##TITLE=X9368
##JCAMP-DX=4.24
##DATA TYPE=INFRARED SPECTRUM
##DATE=5/11/2018
##SAMPLING PROCEDURE=ATR platinum Diamond 1 Refl
##ORIGIN=ComPlat
##XUNITS=1/CM
##YUNITS=TRANSMITTANCE
##RESOLUTION=4
##FIRSTX=3997.453
##LASTX=373.96442
##DELTAX=-1.4165319
##MAXY=0.92195493
##MINY=0.45111689
##XFACTOR=1
##YFACTOR=8.5863744e-010
##NPOINTS=2559
##FIRSTY=0.92076874
##XYDATA=(X++(Y..Y))
3997+1072360341+1071700179+1071127066+1070831763+1070847660+1071172535
3989+1071835404+1072708332+1073436732+1073741823+1073684831+1073495668
3980+1073212444+1072637387+1071680117+1070627397+1069923224+1069710251
3972+1069803270+1070077123+1070586857+1071285408+1071805624+1071672203
3963+1070876399+1070114401+1070035889+1070434763+1070744644+1070864112
3955+1070835651+1070252958+1068658295+1066342173+1064499202+1064275191
3946+1065338184+1066185775+1066178902+1066265189+1067317839+1068829479
3938+1069854154+1069855403+1068505506+1065836673+1062947508+1061663905
3929+1062549050+1064109769+1064638732+1064044585+1063638353+1063984886
3921+1063987038+1062751264+1061308972+1061813847+1064792769+1068400200
3912+1070808855+1071726488+1071462631+1069541635+1065015878+1058112426
3904+1051243474+1047369618+1047216414+1049867407+1054345057+1059033113
3895+1061729644+1061153338+1058397385+1056987026+1058809518+1061159447
3887+1060866712+1058029610+1055246099+1053629638+1052847578+1054229962
3878+1058319776+1061917488+1061780735+1057904728+1052870278+1049131787
3870+1048241297+1050354372+1052630231+1052149375+1049800418+1049601953
3861+1053116641+1057354731+1059213252+1057738750+1052805303+1044816505
3853+1038808263+1041521454+1049711008+1057418387+1062037442+1062814295
3844+1059951995+1054478478+1048022145+1042475323+1040005510+1041991065
3836+1046786787+1051316779+1054375601+1056506655+1058252788+1059239839
3827+1058985562+1057807404+1055871761+1052141878+1046543270+1042894050
3819+1044140654+1047712334+1051455823+1055976304+1061029358+1064740567
3810+1065739211+1063769622+1060008154+1056856451+1054885405+1052034419
3802+1048075458+1046676552+1049528648+1053663445+1057118017+1060200163
3793+1063094882+1065287787+1066578054+1067059466+1066559103+1065172276
3785+1063954204+1063589899+1062953478+1060980279+1059188886+1060127205
3776+1063431419+1066450464+1067228637+1065204555+1061318968+1057994277
3768+1056959050+1057653575+1059077748+1060512682+1060586126+1058241057
3759+1054769755+1053159750+1053874960+1054006299+1050784137+1043788012
3751+1036512272+1034328044+1036500124+1038366974+1038279925+1038468533
3742+1041331180+1045192471+1046965191+1044519258+1037768872+1031023483
3734+1031013556+1038492551+1047818473+1054106052+1055650110+1053151836
3725+1049295891+1047280764+1048276214+1051372452+1055192578+1058470760
3717+1060047514+1058949117+1054604471+1047903232+1042948613+1044298718
3708+1050527152+1056956760+1060778690+1061259686+1059436360+1058049325
3700+1059040957+1061297310+1062873856+1063024145+1061419416+1057234361
3691+1050173608+1042958470+1041236980+1046453721+1053808736+1059395334
3683+1061942617+1061205262+1057582768+1051646791+1043639944+1036011007
3674+1034353173+1038172952+1041329445+1042262905+1045197122+1052230524
3666+1059804343+1064634358+1066187718+1065652994+1064180297+1061808294
3657+1058462707+1055413812+1053659488+1051222093+1044927642+1034439876
3649+1026519246+1029524755+1039746929+1049224043+1055151136+1058115966
3640+1059604906+1060637009+1061176037+1060679978+1059074416+1056769054
3632+1053508088+1048361945+1042973811+1043029762+1049159485+1055537237
3623+1058287358+1056481179+1051138653+1045563925+1043421417+1044371051
3615+1045723655+1046717717+1047966611+1048906874+1048592967+1048432959
3606+1050848279+1055071236+1057926039+1057804697+1056054538+1054996681
3598+1055063600+1055125729+1054936357+1055479690+1056705606+1056539212
3589+1053059719+1047663602+1045556428+1049049458+1054381640+1057992680
3581+1059329665+1059316268+1058866441+1058553367+1058735033+1059335010
3572+1059458574+1057508006+1052109668+1044035000+1038059662+1038978683
3564+1044821711+1050729089+1054795786+1057708762+1060194332+1061726242
3555+1061474464+1059736036+1057975603+1057273374+1056913443+1055382782
3547+1052638353+1050786219+1051858098+1055270950+1058659298+1060234525
3538+1059952759+1059193745+1059209989+1059747490+1059657108+1058440563
3530+1056627789+1055128575+1054538594+1054848197+1055732717+1056988900
3521+1058487906+1059911733+1060925717+1061495914+1061766574+1061694241
3513+1061041714+1059864945+1058893236+1058936830+1059635797+1059571864
3504+1058070567+1056351992+1056230720+1057742360+1059236923+1059566032
3496+1059225330+1059423518+1060457911+1061426288+1061427885+1060603827
3488+1059888131+1059821628+1059915342+1059481690+1058797370+1058834995
3479+1059843426+1061034981+1061749705+1062070346+1062219316+1062028348
3471+1061330006+1060476585+1060093815+1060348509+1060713507+1060624791
3462+1060190098+1060009056+1060428200+1061254826+1062054171+1062487754
3454+1062447423+1061932552+1060890869+1059474332+1058372395+1058296799
3445+1059084412+1059976777+1060567661+1060856230+1060861089+1060703095
3437+1060626666+1060639577+1060513237+1060223904+1060058968+1060295613
3428+1060960842+1061759979+1062144900+1061647592+1060310815+1058817848
3420+1058048006+1058255912+1058778419+1058777517+1058169348+1057620601
3411+1057698349+1058333035+1059128979+1059791709+1060095690+1059794764
3403+1058901566+1057827396+1057031037+1056712617+1056842776+1057174245
3394+1057328977+1057232834+1057344596+1058131307+1059423240+1060515458
3386+1060883858+1060638814+1060217171+1059816700+1059403942+1059050259
3377+1058866094+1058768701+1058602168+1058278056+1057672040+1056717685
3369+1055698494+1055117676+1055162034+1055513704+1055776867+1055921256
3360+1056189208+1056711299+1057388954+1058024959+1058406271+1058390582
3352+1058033636+1057514184+1057004797+1056705676+1056773913+1057080531
3343+1057285869+1057167720+1056694222+1055983454+1055391113+1055296843
3335+1055660800+1056128051+1056559343+1057050057+1057510296+1057663015
3326+1057498912+1057415194+1057746247+1058321512+1058707544+1058810907
3318+1058922669+1059125577+1059035889+1058305893+1057133428+1056115972
3309+1055721333+1055958741+1056443624+1056765444+1056810427+1056715325
3301+1056607936+1056517137+1056425783+1056272648+1056017746+1055788807
3292+1055824557+1056192193+1056675548+1056973281+1056960161+1056778703
3284+1056698040+1056864226+1057177508+1057358410+1057118017+1056419883
3275+1055619150+1055197229+1055345575+1055861556+1056350188+1056485205
3267+1056263554+1056029061+1056140616+1056647573+1057291353+1057700362
3258+1057643648+1057219297+1056752741+1056507141+1056534561+1056685475
3250+1056707203+1056486732+1056205868+1056094869+1056118957+1056101047
3241+1056001086+1055854753+1055595617+1055206531+1054927819+1055026878
3233+1055416103+1055774923+1055971653+1056096882+1056186917+1056181086
3224+1056072517+1055900500+1055667673+1055302397+1054695547+1053916542
3216+1053376402+1053479141+1054098416+1054692493+1054918309+1054872701
3207+1054781139+1054675416+1054458972+1054171096+1053988667+1053961038
3199+1053985473+1054043715+1054176997+1054317359+1054454459+1054732686
3190+1055068251+1055036943+1054475562+1053807972+1053496842+1053525026
3182+1053592014+1053490109+1053230903+1053052222+1053247980+1053790062
3173+1054281054+1054427803+1054387818+1054509161+1054881448+1055251166
3165+1055301911+1054971066+1054494375+1054135971+1053934312+1053750078
3156+1053507671+1053311497+1053347247+1053668234+1054079881+1054335477
3148+1054440576+1054596349+1054807518+1054745944+1054134513+1053178215
3139+1052456895+1052335206+1052599549+1052802804+1052859240+1053002241
3131+1053227432+1053220768+1052901585+1052605102+1052562757+1052541932
3122+1052225040+1051685317+1051259926+1051111997+1051145664+1051283667
3114+1051586050+1052042680+1052453286+1052632175+1052577266+1052349784
3105+1051979579+1051609097+1051511079+1051791388+1052185819+1052298692
3097+1051972915+1051368912+1050793508+1050493346+1050508479+1050642455
3088+1050636277+1050411086+1050072119+1049695875+1049271317+1048882577
3080+1048777410+1049159901+1049972505+1050901175+1051558422+1051700103
3071+1051313100+1050522293+1049516847+1048633576+1048318975+1048733538
3063+1049458467+1049854634+1049704761+1049336361+1049174618+1049324907
3054+1049566342+1049624306+1049407028+1049003573+1048544999+1048160147
3046+1047955851+1047866580+1047687690+1047420849+1047328037+1047460139
3037+1047470760+1047072094+1046339390+1045487218+1044690720+1044141278
3029+1043968151+1044119620+1044458101+1044841148+1045057870+1044904179
3020+1044395556+1043726091+1043002342+1042180853+1041249337+1040329135
3012+1039624754+1039340003+1039482239+1039671472+1039368950+1038400573
3003+1037036723+1035531261+1033866833+1031873364+1029291928+1025869357
2995+1021685135+1017165348+1012515056+1007384809+1001254531+993920967+985539750
2985+976386123+966642375+956341759+945488647+934185153+922643070+911156730
2975+900064335+889642446+880069328+871534212+864302691+858643413+854748801
2965+852742283+852744782+854890552+859174528+865249341+872430603+879920357
2955+887042475+893366984+898658419+902671526+905072060+905627193+904366012
2945+901457896+897055286+891410654+885087534+878859308+873327966+868770207
2935+865386857+863440940+862996944+863758734+865365824+867664105+870543274
2925+873711360+876838003+879825741+882809522+885949077+889291956+892754859
2915+896177083+899460263+902639316+905707995+908510458+911026225+913611132
2905+916650795+920112725+923681073+927109684+930218209+932846918+935091332
2895+937357195+939944393+942697153+945169464+947001537+948054395+948304299
2885+947707237+946112226+943301295+939252785+934394795+929483839+925279069
2876+922444397+921561890+922892488+926145888+930722528+936114341+941899335
2866+947583743+952829431+957709913+962425041+966906648+970917743+974315323
2856+977055726+979211701+981087090+983017249+985042580+987015224+988921434
2846+990881998+992964182+995108496+997119874+998782081+1000132949+1001495133
2836+1003091324+1004782964+1006275375+1007429931+1008307857+1009021887
2827+1009639635+1010229408+1010919143+1011792903+1012744967+1013560209
2819+1014146441+1014571625+1014921421+1015259832+1015681683+1016253894
2810+1016940296+1017689382+1018515453+1019358670+1019989399+1020252701
2802+1020332601+1020548212+1020947711+1021335548+1021634946+1021937954
2793+1022212293+1022281572+1022170157+1022183068+1022513150+1022985259
2785+1023319575+1023518735+1023861519+1024540424+1025392735+1026085663
2776+1026540418+1026978513+1027505741+1027917041+1028048657+1028042964
2768+1028102594+1028236084+1028408657+1028693478+1029085688+1029392236
2759+1029490601+1029512260+1029596672+1029661230+1029594936+1029472206
2751+1029387030+1029289221+1029156910+1029117481+1029228897+1029322610
2742+1029185441+1028778792+1028254480+1027872266+1027850330+1028162988
2734+1028527847+1028683968+1028636972+1028566790+1028572344+1028595876
2725+1028566374+1028542355+1028684939+1029080898+1029618885+1030099256
2717+1030442179+1030691111+1030837444+1030785866+1030511389+1030131396
2708+1029821793+1029725997+1029891836+1030199911+1030414273+1030410108
2700+1030302997+1030269399+1030303830+1030292515+1030264053+1030358809
2691+1030554914+1030622041+1030408720+1030030116+1029702395+1029471234
2683+1029217304+1028916586+1028739918+1028788511+1028889999+1028826760
2674+1028638985+1028549089+1028687300+1028989128+1029271519+1029370509
2666+1029272630+1029120188+1029060003+1029128033+1029299633+1029601253
2657+1030080513+1030630440+1030962743+1030912068+1030688335+1030644671
2649+1030862642+1031113518+1031150587+1030939210+1030679727+1030646476
2640+1030938030+1031409307+1031877043+1032309377+1032770310+1033245336
2632+1033557507+1033480731+1032996959+1032414753+1032109246+1032160823
2623+1032351861+1032465220+1032465844+1032460985+1032612941+1033018062
2615+1033545359+1033887936+1033871137+1033604920+1033292540+1033054090
2606+1032952185+1032989185+1033085606+1033223816+1033536682+1034074322
2598+1034587458+1034739274+1034465560+1034000323+1033627133+1033482258
2589+1033530018+1033637060+1033653373+1033464696+1033075679+1032702489
2581+1032665976+1033084842+1033734384+1034277438+1034561149+1034634523
2572+1034585375+1034430088+1034122567+1033657330+1033182999+1032947187
2564+1033103238+1033602906+1034213921+1034605368+1034577948+1034276605
2555+1033997893+1033850450+1033813312+1033915425+1034042182+1033878078
2547+1033389655+1033012995+1033084356+1033445189+1033784087+1034005252
2538+1034111738+1034018441+1033678016+1033318224+1033338842+1033817685
2530+1034300554+1034336235+1033982274+1033506763+1032982312+1032530264
2521+1032493889+1032969678+1033536682+1033730149+1033460323+1032892069
2513+1032306878+1032056280+1032228991+1032451336+1032413295+1032398023
2504+1032807518+1033362235+1033351267+1032667433+1032061486+1032189007
2496+1032821471+1033268105+1033271020+1033122189+1033086092+1033111499
2487+1033042775+1032793843+1032361093+1031889955+1031640260+1031708081
2479+1031887387+1031954791+1031957013+1032051490+1032176025+1032078979
2470+1031678995+1031263877+1031251312+1031740776+1032323122+1032443145
2462+1032005813+1031488027+1031372585+1031665666+1032069955+1032346585
2453+1032366022+1032120283+1031857259+1031880445+1032085366+1032031081
2445+1031558069+1030982874+1030612530+1030421423+1030294389+1030273841
2436+1030407748+1030560675+1030547555+1030349784+1030078778+1029829707
2428+1029647138+1029502888+1029269228+1028915823+1028734018+1029077913
2419+1029812769+1030298901+1030083915+1029442009+1029038692+1029143790
2411+1029411812+1029429375+1029188981+1028897705+1028627253+1028400188
2402+1028394773+1028727284+1029104292+1029047161+1028520628+1028003257
2394+1027822286+1027790492+1027656863+1027513932+1027549752+1027724268
2385+1027885109+1028025749+1028327091+1029012660+1030166522+1031650395
2377+1033184387+1034515472+1035612063+1036766688+1038362740+1040473108
2368+1042826854+1045116250+1047142414+1048799693+1050048170+1050763867
2360+1050739848+1049963828+1048532226+1046260115+1042940907+1039113631
2351+1036051755+1034738233+1035225545+1036874355+1038724059+1039948935
2343+1040447562+1040681916+1040852406+1040724608+1040208626+1039698337
2334+1039557280+1039498414+1038957650+1037957618+1037034849+1036423834
2326+1035879460+1035133636+1034204689+1033379590+1032884850+1032576288
2317+1032237321+1031987695+1031931050+1031708567+1030956634+1029893710
2309+1028972606+1028361036+1028071495+1028092667+1028193462+1028066844
2300+1027734611+1027450623+1027301167+1027267777+1027488039+1028044422
2292+1028656339+1028940744+1028838491+1028535830+1028196516+1028015336
2283+1028234974+1028845017+1029495113+1029880521+1030035044+1030158261
2275+1030325974+1030484108+1030678755+1031067494+1031574590+1031782219
2266+1031375570+1030462172+1029391542+1028564847+1028294673+1028525834
2258+1028951712+1029550578+1030495214+1031476156+1031826160+1031419789
2249+1030840359+1030619750+1030737205+1030818701+1030526175+1029854905
2241+1029285889+1029483937+1030590803+1031955971+1032791969+1032950102
2232+1032846115+1032793079+1032682983+1032314028+1031845597+1031729670
2224+1032196434+1033031599+1033821572+1034185460+1033928614+1033250820
2215+1032646122+1032442451+1032631614+1033090881+1033642405+1033947982
2207+1033615818+1032560322+1031313927+1030730263+1031023553+1031427703
2198+1031361686+1031432145+1032457792+1034065645+1035260115+1035788315
2190+1035768670+1034704288+1032403716+1030196788+1029599032+1030470432
2181+1031891205+1033608252+1035266849+1035865854+1035167790+1034209201
2173+1033820531+1033945066+1034546363+1035981574+1038300889+1040754666
2164+1042134551+1041627941+1039247260+1035639414+1032253773+1031057984
2156+1032443561+1034346092+1034564342+1032917476+1030753934+1029215082
2147+1028345973+1027523442+1026534101+1025993059+1026476554+1027728155
2139+1029050771+1029900791+1029926197+1029159409+1028274750+1027910654
2130+1027793408+1027066188+1025437162+1023693390+1023027257+1023886440
2122+1025541358+1026860087+1027382802+1027427299+1027299501+1026799277
2113+1025636808+1024137246+1023152348+1023116390+1023499367+1023502352
2105+1023045306+1022739729+1023118264+1024175079+1025414671+1026203256
2096+1026315505+1026179515+1026418590+1027283257+1028583242+1029816865
2088+1030340482+1029880937+1028923736+1028170068+1027678591+1027020442
2079+1026212558+1025887059+1026378536+1027208702+1027859979+1028570331
2071+1029708365+1030680351+1030287864+1028129667+1025217108+1023281951
2062+1023486594+1025422724+1027420773+1028195822+1028000481+1027914750
2054+1028569984+1029803745+1030880066+1030888952+1029694620+1028539509
2045+1028748040+1029950285+1030673201+1030548805+1030705203+1031685728
2037+1032385875+1031791451+1030672507+1030626136+1032125836+1034294585
2028+1036154771+1037513623+1038473600+1038450206+1036621050+1033547858
2020+1031185157+1030687501+1031042434+1030683545+1029957783+1030618570
2011+1033149817+1036088894+1037983789+1038628888+1038212590+1036863873
2003+1035192850+1033868013+1032879921+1032136041+1032094668+1032948089
1994+1033929864+1034222529+1033871484+1033287611+1032746431+1032876520
1986+1034368861+1036725940+1038552875+1039387554+1039995236+1040841091
1977+1041565743+1041955940+1042153363+1041870556+1040421600+1037668285
1969+1034571006+1032547271+1032098764+1032429955+1032677430+1032770519
1960+1032933373+1033004734+1032536234+1031428605+1030211018+1029545302
1952+1029619788+1030150139+1030664247+1030623498+1029589730+1027590500
1943+1025378366+1024093721+1024206039+1025067930+1025820140+1026120927
1935+1026006110+1025588910+1025057100+1024735627+1024835936+1024923333
1926+1023994940+1021772949+1019629538+1019096341+1019698192+1019942612
1918+1019781077+1020404031+1021914422+1022951800+1022527311+1021200877
1909+1020475323+1021084255+1022355780+1023369834+1023867073+1023926217
1901+1023488191+1022447203+1021017962+1019910333+1019857506+1020584726
1892+1020777637+1019720683+1018477620+1018675739+1020296295+1021982659
1884+1022821364+1022751044+1022137461+1021578440+1021549285+1021830912
1875+1021724703+1020795339+1018908635+1015973724+1012632510+1011007997
1867+1012754547+1016538437+1019787602+1021276612+1021391012+1021061139
1858+1020819358+1020795408+1021026153+1021412046+1021580453+1020993735
1850+1019357559+1016907878+1014106526+1011518703+1010451337+1012035379
1841+1014998474+1017140913+1017775391+1017640651+1017640929+1017657867
1833+1016561553+1013739237+1010751291+1010045243+1011333289+1012654724
1824+1013754023+1015498004+1017600319+1018963822+1019248296+1019061076
1816+1018861153+1018190717+1016490677+1014341297+1013192295+1013662183
1807+1014913160+1015634410+1014770576+1012045861+1008652793+1006756787
1799+1007226537+1008604131+1008868682+1007060837+1003949604+1002339183
1790+1004403110+1008373803+1011219444+1011773605+1010683608+1009044795
1782+1007513649+1006658492+1006654049+1006450308+1004614418+1000629425
1773+995433717+991745763+991806712+994478530+997542003+999664866+999722482
1764+997131119+993238452+990608701+989689124+989106710+988392610+987331699
1754+984536525+978640949+970706574+964900338+963779797+965103801+965969787
1744+965621727+964407333+962643360+960782479+958826427+955399691+948946968
1734+940709029+934683503+930665606+924920110+914991364+899551269+877347529
1724+848835732+817860369+787409597+755156948+717489094+680154028+656172709
1714+646586678+644865397+647782398+654174867+662960580+673642300+685238806
1704+694330444+696633654+688520875+670087141+648661782+628050969+606748271
1694+587560522+572564214+559118177+545959876+535176772+528118865+525386931
1684+531160333+547462666+568086633+589246331+610696264+633567456+660138889
1674+688829576+713789824+734672823+757471196+784164735+808111485+825069745
1664+837016047+847708874+859319055+870326274+878057950+881334951+880052112
1655+875970073+876470644+884890249+891709914+893818199+895526777+902433978
1645+913093068+921937023+927116556+928778971+927126483+923315173+921991238
1635+928155878+937651388+944248638+946865547+946972173+946560595+946472574
1625+946355535+946865756+949126760+951690009+952073819+950466244+950632291
1615+954698433+959526157+962286414+962864663+962723815+963312199+964715756
1605+966124519+967171685+968224405+969618937+971009027+971727917+971714102
1595+971689598+972229112+973153618+974121439+975118833+976150588+977018796
1585+977559074+977795372+977704018+976801102+974183499+969599639+965515795
1575+965913906+969150298+970281807+967932017+965134137+965631237+968405377
1565+970495127+970634379+967806996+959798275+946669442+940232130+947171124
1555+956426587+962932276+966564141+968035936+968708663+968982724+967164743
1545+961555792+952707464+943067843+936597627+939843946+951073441+960088927
1536+963423754+963418408+964335486+967175156+968649935+966753791+962714166
1526+958797688+955175055+951316680+949193192+950236471+952324764+954650605
1516+958580341+963188358+965160654+962220259+954190851+943373073+938459271
1506+948310407+962358955+970517202+972776471+971163689+968041420+966638627
1496+968813206+971928534+971881538+967101434+960274272+957872975+962300783
1486+968751355+972882680+973887154+972906560+971012081+967866695+962330355
1476+953966562+943723285+934275465+928703584+925744098+920651754+910086656
1466+893521022+874279127+857321352+843056915+828176813+810747484+795315163
1456+792033857+798854980+806215826+810853554+813097204+814671875+818207041
1446+824993178+833755636+842708230+850680368+856579555+859628797+860364625
1436+861231652+864050983+867215875+868852745+869264947+869760242+870182094
1426+868830531+864927867+859586313+853698442+845944900+835263597+824811859
1417+817991152+813094635+807875326+802976310+800540998+801683821+805814522
1407+812415799+822085409+834353739+846506281+856640851+865219005+873334560
1397+881463652+890050067+899054377+906743222+911019075+911063572+907497723
1387+902068008+895820623+887666124+876342777+862497831+848314266+835747925
1377+825749484+819235048+817504742+820197733+824338013+827064463+827329084
1367+824996232+819914578+812588441+805412316+801388102+800786112+801668272
1357+802847470+804573611+807448268+811394595+815859265+820556275+825455222
1347+830432333+835265958+839535771+842639160+844676986+847326799+852692371
1337+860695053+869192961+876575743+882742812+888267073+893538099+898668068
1327+903684122+908428267+912430476+915160952+916474682+916824061+916959912
1317+917225921+917285273+916750479+915708588+914369104+912590553+910106371
1307+906926970+903217080+898966980+894088373+888809989+883809970+879984083
1298+878137780+878715335+881579510+886039598+891191156+896297800+900923380
1288+904778145+907557144+909036297+909254338+908474916+907027557+905241161
1278+903408325+901654834+899852889+897749880+895234668+892445950+889530129
1268+886368430+882706368+878476747+873885806+869386150+865674455+863374230
1258+862539898+862729756+863528962+864748006+866305878+868246312+870766938
1248+874045953+878101891+882842565+888089433+893522133+898727836+903349945
1238+907157992+910023000+911898667+912838582+913023858+912735011+912215697
1228+911551439+910749804+909920609+909215603+908544125+907626631+906615562
1218+906453819+908129007+911524089+915397111+918497792+920319382+920818981
1208+920028522+918253094+916303290+915142556+915284168+916609075+918690981
1198+921168152+923838443+926588009+929355416+932088530+934648377+936821707
1188+938469406+939623267+940445728+941152470+941915648+942758240+943566471
1179+944252526+944882006+945640464+946651255+947754233+948490338+948426682
1169+947465386+945735149+943319899+940274613+936819347+933331593+930134977
1159+927319256+924760866+922334995+920042891+917846376+915463544+912458868
1149+908458325+903187161+896453504+888299144+879160650+869779332+860928713
1139+853170451+846684546+841216791+836297296+831615488+827131313+822854002
1129+818647705+814214551+809116306+802827478+794887064+785073066+773506826
1119+760685236+747525790+735436626+726118201+720944638+720504530+724815717
1109+733682996+746543599+762174107+778884269+795075950+809721629+822555089
1099+833865386+844016754+853163023+861336334+868568896+874884658+880361576
1089+885230187+889720541+893794042+897250836+900125007+902709150+905112600
1079+907061155+908236397+908611599+908361626+907588174+906260491+904403220
1069+902240789+900109249+898285645+896873203+895699280+894324185+892290732
1060+889377410+885618371+881265187+876753035+872521609+868877041+866148022
1050+864836097+865402684+867869096+871634937+875705036+879202995+881799148
1040+883743746+885551591+887558318+889617803+891201152+891798213+891180743
1030+889364706+886500045+882761138+878164853+872464479+865259476+856179639
1020+845006998+831829017+817196875+802036880+787317896+773846348+762276082
1010+753014371+746060105+741138389+738014800+736512184+736238956+736508089
1000+736607773+736044656+734421601+731224915+726050172+719085007+711155978
990+703284842+696371741+691208729+688522541+688893579+692590836+699397451
980+708644098+719512551+731253376+743191487+754865325+766267253+777676956
970+789169613+800417781+810867715+819955187+827286184+832784413+836674304
960+839389439+841547497+843846056+846860312+851000731+856552968+863512996
950+871440290+879658444+887533328+894553541+900445230+905346746+909663555
941+913660766+917316302+920512433+923220834+925532305+927599703+929548883
931+931407542+933081134+934387436+935187961+935508255+935473823+935147074
921+934501906+933533112+932321565+930975972+929503623+927807540+925878213
911+923872875+921934454+920101202+918391305+916707509+914720149+912190152
901+909328407+906497622+903624700+900123688+895276665+888602153+880124237
891+870593810+861469269+854485153+850996288+851554476+855929666+863319459
881+872522234+882231759+891506867+899960487+907412339+913504854+917804934
871+920155140+920738457+919829779+917628057+914373825+910553213+906915794
861+904287015+903287539+904041207+906034744+908418687+910661643+912879261
851+915426266+918307032+921146286+923580904+925427831+926559618+926962726
841+927012638+927347925+928192808+929036997+929294745+929029569+928669638
832+928343028+927954636+927609699+927560899+927957760+928813333+929924502
822+930818880+931055039+930473249+929037691+926712128+923497533+919335872
812+914194935+908507820+903147245+898704581+895126862+892167932+889794471
802+888016475+886661372+885535417+884668320+884218355+884225158+884641664
792+885522922+887007836+889203726+892158838+895762798+899643664+903309752
782+906339905+908400708+909306609+909133968+908113319+906430772+904164562
772+901194872+897178433+891909143+885740199+879418537+873549130+868453593
762+864506224+862236473+861898964+863136752+865278288+867897696+871018508
752+874907982+879677465+884967302+890121637+894688628+898579838+901938475
742+905120444+908464434+911837440+914807060+917312207+919641171+921799159
732+923413676+924255366+924567676+924904422+925718900+927054080+928630348
722+930168367+931483277+932371546+932671430+932461372+932035356+931621140
713+931160415+930398348+929170904+927513209+925419085+922513884+918098571
703+911717625+903784431+895669431+889250375+886291376+887816275+893601616
693+902230307+911826472+920855842+928488666+934545292+939268195+943056528
683+946212257+948818406+950795978+952004263+952434583+952510943+953034421
673+954590697+957174563+960227554+962139943+961114226+958544869+956896892
663+956813452+957834726+959127769+960043944+960530562+960973170+961592653
653+962095932+962024431+961258199+960138283+959320612+959346643+960013956
643+960387145+959806327+958601514+957411833+956157941+954186686+951223799
633+947753330+944447034+941355308+937738715+932970065+927623166+923048192
623+919840886+917675608+916479541+916486344+917228697+917691297+917454097
613+916776441+915891157+914978314+914321553+913935521+913465216+912622902
603+911301119+909482861+907579150+906493457+906852693+908565298+911311115
594+914849405+918849878+923016538+927266220+931364226+934707174+936848988
584+938043528+939099649+940851058+943631862+947041035+950337752+953074823
574+955152078+956430961+956824559+956747367+956910845+957576908+958525362
564+959685055+961169969+962807671+964288351+965671013+967072279+968045307
554+968050583+967426726+967193621+967915774+969148493+969959639+969907507
544+969612134+970253970+972347886+975038239+976721549+976559667+975303276
534+974302758+973762480+972581963+970159354+967785893+967824489+971219779
524+975919636+978899599+979251408+978456992+978514886+980089072+982410261
514+984591435+986287934+987498718+988594199+990258766+992546982+994211341
504+993983998+992383503+991380279+992127838+993976084+995789761+997037267
494+997808358+998561124+999667087+1000871554+1001558720+1001583571+1001345885
484+1001182406+1001308261+1002170914+1003874147+1005387592+1005313177
476+1003515327+1001314092+1000060477+999892972+1000143015+1000782838+1002249218
466+1004068170+1005210091+1005585780+1005320535+1003354625+999553520+997343329
456+999465429+1003108054+1005116794+1006510493+1008958786+1011099976+1011053605
446+1009633874+1008994120+1010092447+1012636606+1015854672+1018834705
438+1020766114+1020894953+1018654358+1014559754+1010700199+1009501147
429+1011526548+1014706850+1016252713+1015249489+1013064775+1010458556
421+1005830616+1000097824+1001085083+1010616204+1019880969+1022838996
412+1021480769+1022274977+1027731001+1033571183+1034551569+1029531072
404+1020889886+1012015804+1006035121+1005137133+1008297930+1010134792
395+1008645990+1008695416+1014246542+1023250990+1029112830+1027361213
387+1021091891+1018628326+1024110104+1032401911+1038335737+1042611867
378+1047299229+1051606806+1051523435+1047620425
##END=
