##TITLE=R. Baer GH020 Fr.3
##JCAMP-DX=4.24
##DATA TYPE=INFRARED SPECTRUM
##DATE=29/1/2018
##SAMPLING PROCEDURE=Diamant-ATR
##ORIGIN=Angelika Moesle
##XUNITS=1/CM
##YUNITS=TRANSMITTANCE
##RESOLUTION=4
##FIRSTX=3997.453
##LASTX=373.96442
##DELTAX=-1.4165319
##MAXY=0.84898984
##MINY=0.20325918
##XFACTOR=1
##YFACTOR=7.9068341e-010
##NPOINTS=2559
##FIRSTY=0.6924392
##XYDATA=(X++(Y..Y))
3997+875747728+875304623+875121139+875106213+875082165+874865889+874495002
3988+874305261+874555233+875086688+875561380+875863894+876082206+876244205
3978+876333836+876424900+876547323+876532246+876236516+875789264+875400586
3968+875101388+874892425+874962531+875479437+876213750+876672912+876710227
3958+876728395+877124611+877747205+878052509+877684411+876793602+875910708
3948+875530623+875723530+876194377+876622631+876811995+876722816+876488825
3938+876301949+876266142+876410879+876753724+877189215+877408356+877219293
3928+876831067+876617731+876732767+876976784+877028648+876753950+876213524
3918+875495494+874661298+873825142+873155132+872759141+872604906+872533819
3908+872386746+872189994+872252939+872975115+874290787+875523386+876126154
3898+876196261+876104971+876063737+876198296+876597378+876962386+876699447
3888+875787003+874812593+874266966+874155926+874269981+874486785+874502992
3878+873983976+873126561+872354331+871826042+871572602+871862226+872899204
3869+874121023+874734948+874694241+874413135+874225279+874211559+874308502
3859+874463265+874720927+875257282+876097433+876468773+875749914+874875312
3849+874634235+874941725+875418226+875914552+876540991+877285782+877903702
3839+878205991+878239310+878250769+878493881+878972341+879316694+879099966
3829+878398898+877751728+877538166+877672952+878001022+878539790+879082703
3819+879381524+879746306+880416693+880962094+881002802+880752528+880441645
3809+880106866+879771936+879323856+878550947+877646267+877111796+876919115
3799+876417889+875592211+875154835+875553012+876492293+877423131+878020547
3789+878233732+878271725+878420910+878714529+878915125+878904421+878811774
3779+878643367+878166867+877429765+876905773+876923186+877307568+877595533
3769+877518039+877267765+877185672+877314352+877374358+877170520+876899139
3759+876914065+877197131+877403531+877501379+877835178+878656031+879647478
3750+879999520+879577974+879062350+879054585+879444620+879470778+878911507
3740+878018511+876904039+875918849+876026648+877620335+879519326+880632441
3730+880985312+880919276+880578542+880058545+879554379+879178817+878820292
3720+878425885+878266071+878638919+879419216+880128878+880395284+880380735
3710+880584497+880939555+880951164+880551856+880160841+880119908+880281681
3700+880290802+880091639+879841666+879700774+879764473+879939665+880009395
3690+879918332+879753543+879428790+878936760+878610952+878780113+879453139
3680+880335505+881153343+881857653+882297140+882140945+881681481+881536518
3670+881762594+881969974+882009928+882006008+881933866+881806015+881889163
3660+882407125+883272529+884118561+884269705+883271399+881675601+880628823
3650+881050369+882561058+883255191+882497283+881316398+880481372+880160766
3640+880266529+880640809+881097710+881420729+881402411+881003932+880552987
3631+880640357+881444248+881988670+881534860+880790069+880468783+880612917
3621+880894701+880990665+880831379+880610580+880493735+880451897+880456722
3611+880617365+880852939+880673827+879814754+878825494+878498329+879084437
3601+880092393+880779515+881006043+881163369+881313609+881106228+880623697
3591+880534744+881251342+882177430+882025457+880655358+879362452+879003852
3581+879290913+879469723+879286465+879072828+878958923+878576275+877719917
3571+876799105+876368965+876539709+876983870+877415366+877834726+878233053
3561+878422342+878130984+877269499+876177189+875372619+875039423+875019069
3551+875228259+875701141+876299612+876793451+877108178+877219067+876971356
3541+876274283+875297235+874349285+873701060+873501067+873697894+874031015
3531+874234249+874302698+874457310+874755151+874925141+874778067+874520632
3521+874415170+874406350+874389691+874536010+875014094+875604348+875926538
3512+875895329+875677244+875366965+874953711+874513772+874225128+874237642
3502+874556364+875008515+875364100+875523838+875561003+875554821+875457727
3492+875212428+874895289+874622852+874424970+874334585+874480679+874882172
3482+875204212+874982433+874212916+873476266+873339369+873762950+874202890
3472+874247215+873989705+873789862+873863362+874126526+874347551+874417809
3462+874447661+874590437+874848174+875077793+875125586+874977005+874826615
3452+874889485+875116013+875219590+875013642+874614711+874311895+874332097
3442+874703739+875195015+875440389+875281857+874950998+874812669+874975648
3432+875230144+875320302+875174360+874912024+874705548+874622325+874601443
3422+874589910+874570084+874398134+873861779+873029241+872276384+871894641
3412+871945525+872505173+873623415+874932755+875721419+875614148+874922201
3403+874216308+873772072+873537855+873397943+873303713+873244311+873208503
3393+873177973+873196291+873417618+873907536+874380041+874409441+874001992
3383+873657790+873735059+874055288+874236360+874161353+873991137+873846928
3373+873676938+873500766+873602911+874206659+875038820+875538463+875448982
3363+874945269+874345516+873989403+874144995+874746406+875408878+875797029
3353+875788737+875406994+874896797+874675018+874891143+875216273+875264820
3343+875009420+874686476+874513697+874512415+874502615+874308352+873962717
3333+873614595+873369824+873361909+873730460+874354336+874857070+875052464
3323+875172475+875500243+875939429+876124496+875890580+875491047+875347742
3313+875644754+876136708+876334439+875978854+875352114+874994645+875139382
3303+875558741+875873468+875864497+875576155+875232631+875013717+874906446
3293+874837018+874880288+875198784+875779088+876345672+876622782+876627757
3284+876568581+876481513+876194904+875683803+875167123+874748442+874310085
3274+873961436+874184798+875191547+876459576+877243039+877309000+876990881
3264+876751085+876815312+877057520+877233239+877376091+877755422+878400933
3254+878967065+879139241+878956134+878708348+878635452+878719580+878778304
3244+878710006+878538810+878322835+878178325+878227249+878394299+878506998
3234+878597157+878772876+878871704+878674500+878399651+878539337+879170751
3224+879765906+879751507+879072828+878199206+877691346+877751352+878132039
3214+878501042+878850823+879398184+880123903+880658901+880683401+880259367
3204+879692105+879188617+878797074+878613892+878796245+879279153+879743291
3194+879965597+879949465+879730475+879368483+879052097+878945580+879033176
3184+879217112+879389364+879434745+879379187+879421854+879644086+879860965
3174+879888480+879753392+879584005+879481332+879483443+879523547+879456757
3165+879229475+878996540+879025864+879474925+880227857+880946942+881352280
3155+881437841+881367056+881225711+880993303+880730591+880664178+881002500
3145+881679521+882360990+882707830+882534372+881764478+880496826+879124692
3135+878055223+877279826+876516039+875737702+875217253+875070707+875024723
3125+874648483+873712217+872374910+871059691+870082869+869395746+868740888
3115+868025044+867448133+867286058+867747482+869067752+871413014+874457687
3105+877290832+879023979+879417708+878825419+877614153+875668349+872492584
3095+867948907+862916969+859007419+857525753+858663745+861463571+864498444
3085+866793501+868152367+868660454+868220816+866665725+863903516+859946324
3075+855354928+851649216+850507756+852282364+855784615+859604458+863125933
3065+866281645+869000811+871115776+872307216+872009827+869970999+867148332
3055+865424985+866005440+868476291+871610520+874531940+876903963+878605977
3046+879667530+880312136+880851733+881552273+882509496+883501394+884118184
3036+884242793+884247392+884541313+885148830+885871533+886539282+886939193
3026+886873760+886470608+886109821+885935610+885726194+885255724+884540333
3016+883724907+882900134+882041137+881057530+879868201+878376584+876435152
3006+873977266+871103263+867732405+863156614+856330092+846753874+834755502
2996+820751094+804474772+785052688+762019197+736935646+714271761+699731300
2986+696706077+704362196+718921881+736011593+752076840+764934209+773851800
2976+779098431+781187615+780355303+776617025+770227804+761926173+752683076
2966+743429651+735081282+728466513+724035685+721820987+721750956+723795889
2956+727747428+733072080+739148233+745554416+752035982+758334441+764150822
2946+769126448+772847538+775067890+775844493+775254465+773191590+769653380
2936+764972354+759558597+753616402+747224994+740575699+734095414+728341678
2927+723737542+720421338+718349266+717401919+717301357+717449109+716836767
2917+714134111+708073713+698165957+685530744+673210257+665243180+664701472
2907+672078295+685265016+700999782+716536966+730367162+741945421+751282447
2897+758850820+765398799+771441029+776982184+781816315+785902112+789267165
2887+791652230+792450920+791076374+787265200+780781297+770936109+757233236
2877+741241337+727301081+720085202+721119692+728142815+737554169+746758821
2867+754513241+760328944+764195374+766445276+767412901+767198359+765789061
2857+763361178+760513483+758235086+757480947+758668391+761648535+766111477
2847+771815008+778428270+785417168+792187379+798299188+803577254+808023460
2837+811573882+814097879+815789037+817359279+819579706+822664709+826199602
2827+829606945+832598548+835191672+837430945+839291791+840838590+842261382
2817+843706789+845177826+846571370+847752180+848669600+849456455+850337163
2808+851407008+852580129+853739455+854806436+855643949+856096779+856224630
2798+856309814+856558881+856954118+857409134+857894605+858453877+859170701
2788+860008289+860687345+860951867+860918773+860929478+861127888+861408994
2778+861693869+862034151+862461802+862912672+863325247+863712041+864114515
2768+864569682+865104830+865659655+866068460+866246366+866339012+866581446
2758+867031563+867515224+867829876+867946495+867961119+867942122+867949962
2748+868092814+868363894+868560947+868577682+868613339+868895651+869355718
2738+869745451+869929915+869930594+869824077+869732259+869807869+870088372
2728+870415009+870579647+870524994+870393827+870428805+870757854+871207518
2718+871457717+871439172+871383464+871411130+871323835+870916763+870306909
2708+869801763+869531663+869369362+869199447+869095116+869144342+869270911
2698+869348104+869344108+869241511+868950606+868441087+867873071+867481829
2689+867359934+867435921+867654986+868064621+868686159+869386776+869967004
2679+870354326+870656162+871005791+871394545+871712815+871933690+872142729
2669+872367221+872486252+872374081+872067872+871733923+871473472+871180154
2659+870620053+869725625+868801346+868337058+868568335+869258020+869946424
2649+870374905+870632190+870926412+871300165+871602001+871674143+871498499
2639+871196965+870945635+870829695+870761624+870640784+870578592+870791853
2629+871301823+871934142+872578220+873220791+873795818+874229500+874589457
2619+875031507+875651237+876406054+877061892+877292491+877041840+876656177
2609+876425201+876180581+875605931+874743542+873907235+873242954+872621490
2599+871948615+871436157+871476337+872205749+873274766+874189773+874817267
2589+875389279+876094644+876890394+877659233+878296979+878645327+878588714
2580+878248281+877885384+877596966+877292943+876944972+876674495+876601298
2570+876752442+877093101+877550379+878017833+878415407+878767449+879207312
2560+879851240+880655283+881462944+882190698+882822640+883236873+883285043
2550+883078718+882908652+882830253+882640211+882349758+882356919+882975593
2540+883997495+884882273+885275550+885216223+884932026+884616546+884395445
2530+884289003+884141025+883767574+883298461+883197523+883771343+884752613
2520+885541051+885823740+885779490+885692573+885613646+885486097+885392772
2510+885502530+885815146+886082156+886076502+885886459+885771801+885776701
2500+885752955+885722048+885859623+886133869+886305291+886309287+886353612
2490+886582100+886830640+886838857+886649041+886672561+887270580+888293235
2480+889147031+889358633+888973271+888372313+887864452+887574301+887551610
2470+887793064+888206845+888632160+888890274+888869694+888611882+888251020
2461+887908326+887674259+887572265+887538569+887611616+888027507+888892686
2451+889882700+890457803+890326786+889683914+889056872+888864116+889120647
2441+889634386+890269042+890880705+891342054+891797597+892510878+893363392
2431+893952365+894182964+894267544+894210780+893883992+893536322+893632361
2421+894194121+894792893+895134080+895267057+895323369+895354804+895371614
2411+895353974+895240371+894993565+894716304+894646724+894882826+895141468
2401+895015954+894441756+893654072+892739366+891521014+889905919+888102213
2391+886381127+884732561+882907522+880791426+878666510+877133431+876790059
2381+877849501+879971100+882452656+884565963+885834520+886268429+886274610
2371+886119094+885742175+885346561+885625255+887006435+889096976+891065848
2361+892272892+892627421+892519924+892261659+891805663+891246241+891026347
2351+891272625+891522824+891359995+890891561+890539669+890330857+889565938
2342+887671696+884897501+881921201+879483895+878271951+878485966+879644010
2332+881087156+882261559+882473688+881209127+878991112+877348878+877610761
2322+879757840+882588875+884904210+886224329+886660575+886631401+886620621
2312+886899692+887422176+888000671+888499711+888863739+889071044+889153589
2302+889250533+889482111+889721078+889719495+889582296+889819981+890731747
2292+892007466+893135507+893982519+894760931+895563013+896176561+896426232
2282+896543378+896962286+897753287+898515416+898852683+898667314+898024517
2272+897105892+896235285+895617440+895243537+895299020+896170681+897696146
2262+899023201+899575386+899564682+899366875+899039031+898564566+898065149
2252+897668179+897368755+897041288+896644166+896457818+896854789+897764218
2242+898693548+899397255+900249317+901796492+903961437+905805247+906295693
2232+905218761+903137870+900736145+898535544+896942686+896184703+896256091
2223+896834510+897165219+896621250+895719962+895800698+897318021+899363784
2213+901111706+902595559+903766947+904078131+903493605+902896416+903073718
2203+903974327+905171119+906445405+907537413+907773063+906695604+904994947
2193+903986539+904197689+905303794+907081945+909407909+911839788+914047399
2183+915794567+916290065+915157123+913809111+913947441+915182678+915680813
2173+914516135+912248820+910064049+909110822+909711932+910878268+911451788
2163+911673340+912671421+914532870+916045972+916441586+915752353+913531624
2153+909442586+904864835+902190221+902393154+904314911+906300819+907519171
2143+907628628+906339340+903972819+901695629+900439359+900058445+900127874
2133+900904477+902686321+904813272+906132186+906227772+905772078+905736421
2123+906487243+907667450+908774309+909587775+910018366+909918634+909329661
2113+908734431+908717545+909341421+910055757+910249418+909757765+908882259
2104+908067587+907559501+907368554+907539826+908163777+908928846+909118662
2094+908430786+907364709+906512647+905895029+905227280+904521161+904162485
2084+904464774+905349778+906557802+907975996+909464372+910522533+910587966
2074+909761308+908949350+909042449+909949993+910748985+910832284+910446244
2064+910030805+909771560+909946073+910797909+911885395+912405467+912187005
2054+911621778+910888747+910041132+909538323+909854181+910645484+911030920
2044+910595579+909677406+909023226+909380319+911004913+913426539+915830299
2034+917486706+917777234+916540640+914723214+913905904+914787140+916618361
2024+918168250+918870373+919052274+919295990+919676225+919778521+919408990
2014+918807202+918091735+917197006+916394019+916164098+916502647+916947637
2004+917214872+917270204+917023473+916449350+915808664+915453909+915454889
1994+915393225+914580588+912986600+912026211+913365855+916792195+920246277
1985+922145268+922882219+923704203+924977886+926150102+926835717+927104008
1975+926916679+926400527+926511567+928045927+930102696+930904176+930226627
1965+929577196+929998290+931291950+932932601+934353734+934738719+933535972
1955+931099570+928378596+926117763+924530182+923495239+922732507+921855568
1945+920548490+918820469+917014954+915490922+914370569+913625100+913169631
1935+912894406+912738738+912730144+912993007+913740663+915061386+916643614
1925+917936294+918670154+919146429+919881269+920994309+922068979+922602093
1915+922587619+922461352+922565984+922800427+922745624+922203162+921437339
1905+920775847+920294447+919903130+919373183+918380530+916895094+915402874
1895+914500380+914421227+915073296+916322555+918057059+920067768+921959824
1885+923221822+923575221+923380580+923425358+924174597+925439460+926725883
1875+927683030+928245769+928552581+928834818+929310640+929919815+930227381
1866+930000024+929564532+929400949+929705801+930339250+931021397+931565743
1856+932067799+932780552+933660129+934237869+934160601+933699931+933538007
1846+934066221+934889788+935237683+935088273+935054275+935449964+936067583
1836+936524333+936695227+936829561+937282391+938093670+938915353+939590640
1826+940258314+940797081+940965563+941000692+941343688+941968845+942402754
1816+942290206+941747217+941254434+941317304+941973594+942676774+943002883
1806+943101410+943223607+943273737+943044043+942638705+942342522+942160471
1796+941871751+941413569+940991194+940790221+940655133+940419333+940276406
1786+940492305+941041550+941637609+942046717+942171854+942008799+941711108
1776+941535314+941736965+942485601+943533132+944194172+944221989+943932892
1766+943597736+943391034+943547682+944090595+944560763+944616773+944493370
1756+944373435+944007673+943207249+942174115+941215913+940356463+939384767
1747+938225441+936916403+935472504+933989480+932696197+931733321+931012653
1737+930572714+930772104+931344567+930525900+927535580+923855347+921559159
1727+921901175+924615139+928177773+930709384+931251167+929950044+927469770
1717+925373198+925569346+928021428+931300317+934067502+935471674+935153706
1707+932854805+928457070+922948330+918530091+918007456+922798091+929324510
1697+933155962+933227426+929647454+923201921+915507356+909240859+907255704
1687+910328570+917955818+928766520+938034720+943196393+946375701+949191358
1677+951987340+954748645+957135444+958794337+960157275+962058753+964437712
1667+966344694+967672502+969156506+971325823+973917515+976251620+978012810
1657+979270662+980488788+982933406+987531963+991381356+992732081+993655004
1647+996174026+1000329477+1003984758+1006385352+1008291655+1010100185
1639+1011843961+1013872989+1016677564+1019625444+1021621077+1023018917
1630+1024783574+1027448313+1030670740+1033645381+1036083667+1038001655
1622+1039072706+1039173947+1038878819+1039100372+1040321287+1041624445
1613+1041686109+1039617203+1034089843+1023918320+1010508464+998238409+991166663
1604+990268542+993577736+998073771+1001688193+1003998553+1005728986+1008221774
1594+1012858551+1020256632+1030096090+1041489206+1053082316+1063236350
1585+1070508013+1073741823+1072078406+1065641995+1055309301+1040026084
1577+1014874914+977440195+932678407+879466859+807980265+719217234+639718785
1567+590596124+567126538+558252105+556563434+556420205+549495647+525949283
1557+488918734+444312612+398347172+366659556+362484091+383419314+415415475
1547+446871060+475436245+502811084+529927168+558924339+589481124+612598291
1537+626281602+636390820+646590537+656459772+664295003+671076295+679430845
1527+690672516+703093036+714130341+723569437+732019272+738819409+743902156
1517+748689699+754291689+760672090+767368877+773966383+780157949+786420601
1507+793690605+799432507+799874406+795989959+790338669+786199199+787711999
1497+796670071+808712693+817809772+822904505+825906736+828460585+831315819
1487+834564102+838062735+841733545+845545925+849298224+852558570+855041181
1477+856903385+858544790+860171193+861312578+860892464+858516747+854812166
1468+850489965+846296295+843266473+842065158+842343625+843549162+845908973
1458+850468029+856658162+861664921+864325061+863863713+858173148+845856129
1448+829929663+818104297+817431195+830190867+853046679+878286576+899861769
1438+917802186+935003014+951719275+967158536+982457885+997549175+1008212653
1428+1007773995+988456318+941464377+866507797+779292770+699501907+642586607
1418+619419611+623864762+638926728+654958053+669131622+679955214+684978784
1408+679675315+658565766+622358483+585132502+564095322+563567146+575633476
1398+588918535+597841214+604961771+613697197+623600995+633585039+644568219
1388+657578315+671012068+681347853+686605489+686564028+681651724+674191828
1378+668921452+670131737+678280038+688757920+694534574+691963763+682402320
1368+669317141+655797375+643813854+636185324+637989106+651841088+673250361
1358+695588061+715440133+732094806+745788708+757054954+766617000+775164080
1349+783059015+790287559+796638183+801951755+806320014+810093496+813700079
1339+817376241+821031370+824511610+827863697+831187666+834439192+837504368
1329+840317764+842859099+845160564+847274398+849218318+851090623+853102840
1319+855293943+857410039+859250833+860906863+862573973+864277720+865818790
1309+867013094+867939032+868849893+869941524+871283505+872839952+874547770
1299+876433569+878533457+880666289+881785586+878583512+866048333+843088944
1289+818066454+804349560+808083465+823216442+839357074+850892514+858104926
1279+863267956+867681445+871323081+873799361+874983111+874790053+872850506
1269+868689250+862046815+853076380+842638602+832516756+825090934+822505197
1259+825805571+834646874+847697225+863137843+879042297+893893189+906940751
1249+918068215+927541761+935878746+943547380+950427575+955212104+955359479
1239+948944099+938014442+929328882+929685975+940360534+957174945+975257234
1230+992293273+1007937502+1021909947+1032894786+1038220117+1033413652
1221+1011195812+962431149+882799648+781656652+681904788+607230519+568272220
1211+560197306+570537840+587452624+602915292+612472287+614858068+612516688
1201+611291891+617251878+632389906+653523577+675251497+693507320+707060707
1191+717058546+725380455+732911890+739189167+743304740+744488038+742013040
1181+735731090+727376163+720708927+719447079+724958909+736061195+750431742
1171+765773758+780281427+792941668+803664925+812975868+821437764+829273975
1162+836526868+843469406+850650457+858663971+868072536+879187110+891403190
1152+902368428+906957411+896742844+862755648+802782558+727896386+659754115
1142+618080835+609233841+625572053+652183254+672961717+676368382+661983890
1132+640576727+624863031+621378909+630754569+650391459+674386771+694505626
1122+704534825+704260655+699604052+698613209+705838963+719618426+734119688
1112+743080926+742327767+731417031+714304176+696336696+677666942+651279253
1102+612532632+569555514+536800051+518416754+506979463+499116830+501780928
1092+520277865+549038897+577786435+600893463+618204464+631175022+641035587
1082+648960978+656073732+663049212+669917195+676307623+681969768+687073773
1072+691971075+696751005+701127255+704627095+706802367+707537207+707361865
1062+707246829+707855176+708948013+709416297+707975639+704278294+699679964
1052+696751231+697561154+702100610+708403743+714231657+718471840+721151429
1043+722812434+724014577+724971498+725578337+725882435+726207414+726740452
1033+727330707+727704836+727691795+727330179+726811162+726281592+725834642
1023+725641056+725858840+726530132+727737779+729665415+732409307+735921584
1013+740093545+744531760+748102310+749363328+748450507+748222019+752090108
1003+760629800+771455955+782039074+791396679+799288976+804201355+802137877
993+789674388+770632464+756974143+758705480+774186881+793461363+808508252
983+816758697+818180509+814726805+811677459+814545960+823737042+834680570
973+843208729+848743400+852607569+855729661+858535216+861391354+864352803
963+867121948+869555032+871851220+874213217+876610118+878933142+881178295
953+883352210+885344526+886987363+887990117+887823670+886327228+884667203
943+884829806+887578899+891519431+894566139+895639679+894603530+891449023
933+886320745+880051685+874180652+870433629+870106841+873564691+880084025
924+888236622+896577527+904157660+910569195+915610707+919038630+920781275
914+921327581+921675175+922798241+925237733+929170652+934596093+941243654
904+948499336+955674809+962096898+966220688+963633368+945460166+901357910
894+829653532+746552195+680229536+650887484+657444358+683980026+714757308
884+741661300+762941969+780000321+794835684+808455182+821074113+833120127
874+845106137+856373588+863711513+860253889+836412511+786690550+720439430
864+662968250+638218498+649294174+679791104+710246498+727229919+724314002
854+706815258+692301708+695500390+713461688+730553134+733125754+713605822
844+666060791+588339400+491549399+402115001+348345274+342818593+377624946
834+434489814+497198428+556554087+608967435+653659946+690942992+721640368
824+746836994+767427601+783858007+796297072+804765451+809054483+808767572
815+803589918+793613714+779282141+760374475+734530303+697308995+645165936
805+579837701+509924102+446476766+395457941+354793332+319386510+288230086
795+265751815+257067725+263445884+282299179+309719097+341379292+371633901
785+394817179+409872210+422295897+438827393+460854021+484761586+507122617
775+527159417+545302504+561704377+576054080+587767388+596517363+603059501
765+609259584+616816122+625885536+635138094+643156432+649593372+655145608
755+660835494+667272660+674256583+681003575+686780907+691303251+694629255
745+696788396+697561229+696668309+694069908+690024593+685159479+680604569
735+677664756+677170691+679305784+683832500+690136010+697310428+704534297
725+711325163+717482881+722987776+727929856+732336109+736010914+738761892
715+740879948+743100902+745901332+749082901+752147399+754791407+757085484
705+759461880+762401694+765945482+769658506+773128192+776332226+779444743
696+782388854+784831889+786639364+787966871+788857681+789114211+788651205
686+787926767+788055296+790111161+793855922+797229870+797024223+790290951
676+776658260+760134755+746917202+739456251+730157973+694229420+608237645
666+495973254+399591041+347738397+357586072+419698740+500839234+573787292
656+629452278+668806869+695676411+714143006+727516151+737935159+746499577
646+753859665+760631684+767123126+773133846+778310143+782481727+785789714
636+788591727+791013278+792818416+794007443+795117091+796695701+798809837
626+801095697+803163397+805041205+807104532+809416626+811403891+812437402
616+812674559+812996900+813910927+814960495+815573138+815912817+816359315
606+816782217+816941428+817054880+817540954+818489658+819541185+820313114
596+821010263+822294952+824411727+826832297+828787901+829819150+830017786
586+830013942+830411893+831158342+831840263+832415742+833188651+834195325
577+834846264+834255632+832211151+829679238+827879829+827050382+826612478
567+826507017+827542713+830048543+832950891+834783770+835228685+835180892
557+835466973+835531501+833034115+824838926+808809787+785601783+760507528
547+743442617+743367610+760232905+784615689+806379718+821394946+830427045
537+835328870+837642321+838402716+837523139+834481180+830401565+828210688
527+829943609+834666323+839967305+844693712+848766543+851761161+853185837
517+853256020+852519973+851388162+850324875+849830735+850172902+851327177
507+852848571+853816422+853474859+851735153+848420758+842523415+833666132
497+824300385+818971586+820404404+826890041+834281564+839917476+844102855
487+848345374+853194280+857936292+861777318+864598177+866570817+867896666
477+868984754+870173857+871216037+871685828+872118153+873688698+876129471
467+877436097+876171535+872356140+865215644+853108795+837964661+827474642
458+828928944+839621821+850388800+857279323+862078702+866572627+869964139
448+870715640+869181581+867422502+866478774+865231098+862121445+856178269
438+846331649+831425125+811094592+786422636+760623543+738888386+725476644
428+720639272+721963538+727650334+736868479+748874993+763516996+780137067
418+794861390+804589129+810337740+813014766+812540602+809174117+801964871
408+787136067+761998994+731188015+705914875+695362136+701389365+721725551
398+751100923+777103476+789626293+791988290+791698214+791456232+790106638
388+786842749+782414183+777585103+772471525+767563744+764365590+764390844
378+767773235+773265164+779947930+788523505
##END=
