##TITLE=J.Beck JB269
##JCAMP-DX=5.0
##DATA TYPE=LINK
##BLOCKS=1


$$ === CHEMSPECTRA SPECTRUM ORIG ===
##TITLE=J.Beck JB269
##JCAMP-DX=5.00
##DATA TYPE=INFRARED SPECTRUM
##DATA CLASS=XYDATA
##ORIGIN=Angelika Moesle
##OWNER=
##XUNITS=1/CM
##YUNITS=TRANSMITTANCE
##XFACTOR=1
##YFACTOR=9.2739089e-010
##FIRSTX=3997.453
##LASTX=373.96442
##MAXX=3997.453
##MAXY=0.9957783848621924
##MINX=373.96442
##MINY=0.1655708403961138
##NPOINTS=2559
##XYDATA= (X++(Y..Y))
2559A033393632A033623402A033749310A033866605A034360659A035179090A035682591
2552A035446909A034810815A034360659A034237065A034190982A034038981A033812489
2545A033601743A033448906A033371716A033386370A033452891A033462724A033384506
2538A033361497A033543706A033907546A034296709A034536762A034569155A034560735
2531A034715886A034965966A035072849A034969822A034766404A034589850A034644224
2524A035132108A035908055A036548519A036779317A036589653A036072783A035363870
2517A034664598A034145543A033842311A033784595A034069895A034550195A034808630
2510A034780929A034828683A035070021A035128637A034769103A034323703A034263866
2503A034737096A035429298A035876562A035986723A035995400A036037755A036095663
2496A036263411A036755537A037592157A038395227A038677443A038423314A038078241
2489A037935880A037869809A037724170A037625578A037802260A038142384A038178826
2482A037772309A037262574A037015707A037015129A037017571A037072716A037291881
2475A037408855A037160575A036594859A035880162A035285395A035231342A035901500
2468A036713054A036979844A036833948A036880930A037465864A038346574A039062749
2461A039232875A038657390A037680466A037489773A038875591A040025277A039754823
2454A038918524A038118860A037516959A037327102A037656685A038135121A038372925
2447A038518950A038741778A038788311A038652377A038727317A039090707A039299203
2440A039087108A038787796A038746406A038755661A038524477A038297149A038398698
2433A038514065A038530133A038937741A039765878A040358266A040361737A039807654
2426A038801808A037703861A037094633A037093283A037479425A038385265A039767806
2419A040823527A041125152A040960039A040637654A040174515A039510977A038822760
2412A038433533A038501468A038979903A039724101A040411740A040691320A040542082
2405A040234415A039943909A039625380A039280500A039031192A038976176A039161149
2398A039631101A040356917A041057217A041249067A040759962A040098739A039958884
2391A040498571A041144240A041288401A040874879A040074573A039221307A039109667
2384A040221176A041759960A043010294A043877443A044100143A043465271A042467459
2377A041646842A041205491A041067822A040917170A040527300A040164424A040234930
2370A040812729A041669016A042467202A042940367A043025848A042802762A042385834
2363A041976876A041752504A041597610A041164422A040269186A039289820A039120851
2356A039978359A040911321A041441110A041876098A042454540A042909838A042755009
2349A042112681A041685855A041756489A041929636A041773714A041429862A041427934
2342A041851097A041914661A041239940A040492336A040057348A039678276A038964478
2335A037853291A036765113A036395361A037087820A037960560A038152089A038164108
2328A038321829A037946806A036663565A035114433A033854586A033020345A032560547
2321A032298320A032057689A031867510A031745716A031399486A030738262A030298004
2314A030835825A032311817A033277301A032903563A031718914A030458875A029675793
2307A029481051A029501939A029379888A029054675A028532920A027789751A026952360
2300A026390500A026542502A027239653A027742062A027885065A027812439A027589481
2293A027484205A027878317A028460936A028567691A028349747A028266901A028153141
2286A027593466A026782619A026243961A026054682A025897346A025574897A025075894
2279A024496617A024044982A023879997A023888803A023750491A023286130A022684294
2272A022260424A022224497A022591807A022880064A022429586A021364996A020369497
2265A019952312A020137285A020552928A020768365A020600746A020208434A019836881
2258A019527929A019233630A019079058A019245842A019572147A019755963A019712259
2251A019389810A018769077A018051038A017528705A017281003A017161394A017039793
2244A016973208A017087675A017319116A017363399A016945185A016172644A015437380
2237A015022830A015002263A015297718A015657831A015739070A015437187A015062935
2230A015023023A015396632A015919158A016285826A016272779A015703270A014726025
2223A013916656A013624928A013569012A013385454A013174708A013233195A013577496
2216A013975207A014205170A014172649A013925011A013610917A013401907A013369643
2209A013361866A013178371A012924114A012887094A013109987A013416561A013831047
2202A014529676A015374587A015904311A015792672A015131577A014331913A013841780
2195A013809644A013976107A014090189A014284417A014809770A015585333A016194560
2188A016265259A015799485A015152594A014706936A014579679A014679878A014928222
2181A015288463A015693823A016084078A016432686A016669911A016701019A016550109
2174A016388081A016374970A016517138A016668433A016625693A016304272A015898655
2167A015707705A015674863A015358455A014603845A013872180A013577046A013517981
2160A013318483A012968333A012600636A012183258A011722561A011379031A011188659
2153A010956833A010541254A009985372A009302939A008410917A007418375A006740891
2146A006686260A007006074A007082878A006594738A005778620A004969701A004178007
2139A003306552A002452258A001675346A000799521I99725739I98624257I97621689
2132I96632746I95581203I94464553I93208884I91695165I89882521I87798202I85501337
2124I83073295I80577575I78031531I75425393I72735895I69926723I66926988I63670424
2116I60253953I56991797I54182626I51887947I49960514I48120104I46015090I43474637
2108I40759045I38344178I36342190I34282037I31699551I28849310I26437079I24655220
2100I22943482I20793863I18299750I15747664I13136641I10386214I07717604I05541056
2092I04026309I02894555I01596210H99672698H97077164H94207899H91549702H89290114
2084H87338708H85590593H84042360H82725505H81606349H80561297H79462386H78229083
2076H76773337H75053565H73231409H71583171H70312526H69627523H69748674H70574175
2068H71608365H72462531H73182177H73974193H74914932H75987813H77160058H78402423
2060H79712208H81059014H82334993H83479794H84573692H85664505H86591747H87119993
2052H87188956H86946975H86607365H86342696H86273283H86462176H86885788H87436722
2044H87985728H88471748H88950119H89542315H90289212H91017278H91454644H91629270
2036H92036300H93126984H94723870H96288362H97669810H99163862I00959538I03006387
2028I05325554I07990757I10809055I13366990I15415253I17026921I18477396I20162526
2020I22480536I25494540I28752389I31659060I33955667I35713424I37071477I38183371
2012I39214990I40241082I41246671I42219289I43144025I43998255I44788407I45470969
2004I45903707I46025630I45977105I45885711I45695790I45389987I45206942I45414281
1996I45931151I46373402I46469938I46266391I45911549I45438319I44859684I44301745
1988I43839634I43263056I42246219I40835270I39554279I38888620I38834568I39085676
1980I39522978I40350150I41759878I43622846I45610887I47526494I49395247I51324544
1972I53441513I55852973I58466631I60918904I62818057I64051681I64834956I65496693
1964I66215440I66967736I67703835I68422453I69036951I69360879I69278354I68756857
1956I67753196I66410439I65251820I64742727I64673506I64419249I63773708I63008815
1948I62105674I60589063I58302675I55749304I53439264I51333928I49111104I46611463
1940I43883917I41114401I38617267I36649150I35162683I33941399I32975658I32487132
1932I32526530I32778281I32901039I32871924I32828541I32799619I32795249I32930411
1924I33217640I33426779I33315525I32904445I32506092I32526980I33077271I33703531
1916I33726347I32927969I31689653I30442018I29256212I28042448I26859663I25814290
1908I24907742I24246840I24097924I24401156I24656120I24645194I24737873I25172219
1900I25637479I25822002I25766407I25561639I25252044I25067585I25313616I26021757
1892I27008515I28276074I30074579I32419840I34799871I36704938I38282606I40109583
1884I42468148I45116641I47573991I49444286I50692307I51679065I52775598I54016356
1876I55243231I56387197I57437005I58302161I58843261I58950209I58529103I57505389
1868I55907475I53912686I51750406I49563510I47393645I45291202I43336196I41518153
1860I39736745I38051615I36781871I36138193I35927383I35895633I36169236I37028544
1852I38412691I39983740I41591166I43354642I45247947I46865464I47769825I47933653
1844I47631192I47009688I46027751I44724393I43278545I41793299I40164728I38185492
1836I35708925I32715681I29310650I25733565I22297941I19226478I16589233I14417698
1828I12753327I11611354I11043838I11110166I11642783I12248283I12674788I12927695
1820I12893374I12109328I10079061I06706809I02319712H97306677H91837123H85982455
1812H80063001H74807406H71157502H69882680H71261043H75027985H80597160H87305544
1804H94461193I01333082I07368161I12430171I16610507I19873241I22174540I23818536
1796I25335661I27077350I29131269I31416371I33701796I35760856I37554862I39103801
1788I40361205I41438778I42660319I44158355I45708708I47173452I48844442I51120740
1780I53992768I57022904I59807395I62323040I64775119I67234912I69567961I71673361
1772I73625153I75484844I77084236I78103707I78346267I77945986I77358610I77045866
1764I77029734I76870019I76165670I74878894I73108540I70849852I68096790I64968447
1756I61667536I58427811I55467345I52898228I50699313I48785055I47057185I45378161
1748I43503109I41105724I38009967I34426583I30899566I28093865I26730606I27532069
1740I30888447I36501712I43483828I50849386I57901751I64279459I69824339I74491530
1732I78352116I81616136I84521971I87138071I89335379I90971984I92059134I92757956
1724I93275726I93744328I94208046I94732307I95428173I96335427I97404323I98571298
1716I99718670A000662494A001369929A002054097A002867643A003663258A004209115
1709A004494479A004730419A005187131A006029986A007156662A008210905A008923931
1702A009416313A010037303A010929260A011853032A012451205A012659509A012827514
1695A013380890A014402483A015608406A016679038A017518678A018237039A018968640
1688A019725756A020408446A020935021A021325469A021686738A022140880A022686350
1681A023130594A023314924A023378038A023612050A024123522A024823051A025624257
1674A026453357A027181359A027716160A028101595A028448339A028810251A029139063
1667A029371918A029563383A029796045A029930243A029727339A029310668A029160016
1660A029514536A030100498A030539214A030726886A030779975A030849837A030998754
1653A031135909A031108979A030895599A030653681A030602521A030873939A031392802
1646A031899645A032199792A032368505A032598532A032887560A033046889A033018159
1639A032996821A033172089A033502572A033817630A034004339A034014429A033806383
1632A033381292A032861723A032484707A032435861A032657854A032912561A033065720
1625A033194327A033389198A033562987A033522111A033216244A032874449A032799765
1618A033019702A033269846A033330775A033236489A033150430A033194713A033363361
1611A033470372A033255963A032695839A032118811A031872973A031958839A032122667
1604A032205191A032230386A032214703A032070993A031753107A031410412A031295238
1597A031513953A031971372A032563311A033232504A033820008A034159490A034355710
1590A034650844A035020597A035232049A035241369A035189952A035093416A034889548
1583A034718907A034844429A035320423A035941091A036447999A036667421A036565808
1576A036278644A036018024A035971298A036312386A037070145A037889155A038275683
1569A038219895A038204084A038512972A038898215A038984274A038705144A038291043
1562A037986012A037824498A037694413A037554494A037453909A037422288A037518695
1555A037888898A038596654A039479485A040283712A040888376A041361927A041827252
1548A042287692A042632186A042811310A042922692A043087163A043288975A043362501
1541A043205808A043019357A043138387A043550495A043843893A043752949A043469449
1534A043282933A043237879A043275992A043396758A043527743A043514117A043374520
1527A043330301A043463021A043577232A043482496A043188004A042789137A042412442
1520A042268025A042465338A042764328A042803276A042592981A042504415A042731935
1513A043047379A043123155A042898591A042632507A042718117A043316483A044071478
1506A044451065A044455049A044620612A045231190A045902247A046086320A045683596
1499A045024044A044468739A044167178A044109463A044267634A044629803A045140953
1492A045647990A045927698A045882644A045733728A045852887A046350218A047001737
1485A047552478A047855003A047826338A047595154A047570923A048007197A048597915
1478A048799084A048453305A047862073A047379009A047128030A047002444A046816635
1471A046513789A046202266A045966454A045780774A045616111A045446178A045214351
1464A044990301A045014981A045401252A045951029A046386017A046624078A046800439
1457A047093837A047502475A047823960A047928079A047915225A047902114A047845940
1450A047696831A047550421A047532425A047601902A047553634A047270648A046936373
1443A046852049A047046855A047280160A047419629A047559098A047759881A047987980
1436A048304709A048786808A049239664A049328037A049017864A048638406A048507292
1429A048650939A048844139A048866762A048770484A048791178A048945944A048988299
1422A048828585A048661287A048604471A048584290A048611476A048808982A049107394
1415A049270129A049325916A049668225A050564425A051767648A052727991A053044206
1408A052676959A051918558A051225327A050972098A051275973A051963869A052570719
1401A052448539A051196019A049154440A047263578A046170323A045706798A045380749
1394A044977061A044652041A044693175A045237296A046160425A047060673A047362106
1387A046743237A045492324A044312753A043822427A044231578A045271295A046297580
1380A046664955A046218333A045414106A044906170A044987345A045462053A046001482
1373A046443154A046746258A046866767A046818499A046787070A046954240A047188381
1366A047172827A046851149A046452474A046085163A045615661A044945890A044199507
1359A043694591A043828533A044761752A046063954A046930267A046938751A046407548
1352A045918379A045751145A045876924A046226174A046735011A047209140A047318851
1345A046899995A046261717A045902054A045808925A045409157A044337561A042870633
1338A041530383A040619915A040030997A039148551A037152605A033743397A029373204
1331A024687631A020044092A015593366A011578401A008495819A006885373A006763836
1324A007462979A008474610A010239693A013493494A018052902A022955583A027616861
1317A032063666A036087180A039026500A040625378A041497990A042509106A044014277
1310A045773640A047275211A048096342A048274952A048311393A048574713A048844267
1303A048732692A048378557A048375922A049079500A050190494A051062913A051472900
1296A051905125A052833010A054060657A055268765A056692696A058498656A059927086
1289A059906970A058415810A056794759A056621419A058171901A060052158A060780160
1282A060408157A059922395A059708371A059545957A059320301A058944699A058382454
1275A058131217A058767825A059946625A060615497A060108910A058467677A056131736
1268A054017980A053383044A054667507A056537095A056890395A055143757A053234384
1261A053994586A057961991A062432447A064657071A064777129A064669089A065039421
1254A065043406A064082356A062391828A060328589A058272421A056802793A056336055
1247A056964114A058498978A060152550A060649946A059407131A057308737A055842065
1240A055635883A056024467A055948370A055066696A053932821A053342167A053586334
1233A054146330A054196462A053543337A052755499A052291396A052001853A051621046
1226A051259776A051182715A051355541A051481063A051486911A051655881A052154176
1219A052886869A053930893A055402449A056766158A057145359A056461512A055534141
1212A055004095A054703370A054093499A052950048A051534986A050361713A049880257
1205A050117675A050596432A050995943A051730692A053201156A054735441A055237915
1198A054702920A054135726A054144274A054434716A054581383A054584211A054644176
1191A054971060A055825547A057209373A058438370A058605218A057669106A056701501
1184A056885189A058334829A059963593A060787101A060931583A060908317A060782217
1177A060702906A061356866A063140074A065528654A067633604A068910419A069348299
1170A069348171A069194884A068586234A067057476A064834588A063045274A063148430
1163A065917174A070360123A073741823A073718107A070664512A066996161A064548581
1156A063383663A062797444A062642743A063230890A064473190A065880861A067161853
1149A068235441A068779498A068315009A066923856A065596782A065464190A066447798
1142A067089548A066361546A064811065A063367724A062098172A060703356A059338425
1135A058406234A058255132A059178518A060773990A061630405A060745453A058699247
1128A056809927A055733961A055119077A054237403A052914699A051777675A051537300
1121A052216198A053039707A053169727A052577082A051920036A051556710A051200775
1114A050608258A049929424A049363451A049028790A049009766A049103088A048891635
1107A048470658A048488782A049301815A050620855A051872925A052624192A052720085
1100A052229502A051421804A050795930A050830701A051448670A051936296A051764049
1093A051283364A051137018A051417820A051720023A051755758A051643733A051690009
1086A052066703A052649965A053216003A053713270A054123128A054282264A054106482
1079A053818804A053727217A053852353A053904092A053580164A052865017A052041444
1072A051458568A051312543A051518790A051886036A052375334A052932438A053312217
1065A053395448A053412030A053549314A053630039A053428291A053058602A052846057
1058A052988868A053441659A053888024A053884103A053349559A052659028A052188304
1051A051942531A051653888A051187857A050656526A050270705A050238762A050554013
1044A050882504A050949860A050870871A050925630A051276744A051841175A052186183
1037A052007702A051521811A050997549A050444944A049859818A049430100A049304385
1030A049407605A049511468A049476825A049472905A049691749A050015034A050266399
1023A050563589A051092414A051812188A052473669A052800360A052746501A052521615
1016A052249426A051840532A051333239A050927172A050651770A050427398A050243261
1009A050029366A049634804A049095696A048642712A048443792A048486019A048566743
1002A048469180A048240566A047970627A047566489A046969408A046254004A045554025
995A045029185A044763102A044647349A044544579A044473817A044531018A044754811
988A044891388A044501389A043743566A043169173A042885608A042648832A042390140
981A042161527A041908876A041624669A041326257A040890947A040299137A039689009
974A039004391A037931510A036164562A033654188A030557210A026979418A022864382
967A018130349A012880474A007698919A003551555A000891943I99396734I98519495
960I98080843I98141323I98545975I99048127I99398406I99407725I99131037
953I98786607I98352390I97510564I95729348I92155991I86608668I79916609
946I72204949I63031117I52363940I40019025I24899966I07256458H90284006
939H75166233H58796647H39921379H23713756H12575085H03606599G95611503
932G88606443G81224238G72057604G61584912G50554217G36212134G14459631
925F90361482F71309018F55332258F39556667F22658964F03698151E84259480
918E67711091E53955870E40765850E29143602E21784278E18027072E16324814
911E16383879E17792417E19351736E20417451E21022534E21478828E22940037
904E26765916E30481249E32457656E35358029E42439347E54041415E65860976
897E76423584E87464434E99623284F12743697F29051390F52913342F80387600
890G01215110G15437455G26972552G36281097G40793394G37587540G24503761
883G01886038F76975757F58526029F49258810F50522899F62925915F79247170
876F91957982G00310298G04676314G04407595F99502665F91162238F80617306
869F68160301F53148961F34633227F11834644E84703273E55485399E29965825
862E15284872E15033089E26654341E42761925E54949376E58269054E53081008
855E43668601E35539884E32404633E35421400E46904984E72221910F08604624
848F42758537F72418405G04834743G42044114G74743888G96608544H11357400
841H22542925H30598565H36306695H42221521H47585927H46141686H37934109
834H24770570H06556653G82291142G52321293G20320662F89267327F57865512
827F24586461E90502668E53816465E14697335D86147850D70483385D60026954
820D50639644D42980944D39310151D39568747D43234366D50835832D61618055
813D73927975D89510976E10490841E32386637E51760554E71308679E90856032
806F06342402F16493544F22607547F26360414F32702130F52542240F83993864
799G08643590G25857316G41620116G58277574G75991845G93971877H09692066
792H20888517H28399843H34489551H40549888H45543063H47318623H45720195
785H41105963H32482679H18539721G99309997G75667531G47950714G16382436
778F80840713F40754492F01250056E71271401E50988655E34932424E18467941
771D99519404D79908390D62886032D50170046D45067770D56122985D83957901
764E11979558E34519513E55301004E75903822E95537877F12080803F22527079
757F25617437F23266842F19186191F17792596F24401167F45615011F82186233
750G19730651G46395862G64528989G78577480G89330652G96258201G99720691
743H00193213G97683161G91829393G80845937G61449171G34432525G06835766
736F82280969F60169768F40712523F24902290F12818509F03712162E97007120
729E92729541E90644387E89088056E85626788E78561505E68308236E57533083
722E49460347E46675985E50037697E58884002E73191122E93554207F17664953
715F39220400F53330592F58254675F51977359F31777587E96643151E46817767
708D82206218D07581742C36500191B79085970B34810094B02018718A82743248
701A78534038A89381464B14060867B46658128B79229777C08739379C35832926
694C61142397C84108535D02844078D14788422D17969435D12535358D02062892
687C92765208C90484187C98731966D19461237D53067140D95587637E39432349
680E79376466F14174441F43672860F67258960F84044574F93406272F95181767
673F89515671F76920547F58478982F35556227F09455576E81775393E54635346
666E29868422E08447077D91001396D78213522D70483031D67726723D69676362
659D76095814D86667227E00840469E17806653E36525389E55850717E74685109
652E91933669F06451984F17283374F23877741F26053968F24081867F18994084
645F12598573F06908503F03423455F02758825F04681309F08315210F12340009
638F15300025F15973589F13432750F07108966E97580291E87362435E80022585
631E77740375E79508093E81812092E81307241E76982230E70142025E62892798
624E56788243E52438488E49748283E48243627E47290419E46264905E44707932
617E42435812E39683393E37206344E36029600E36959317E40428233E46775413
610E56505320E70202055E88028672F09053495F31032297F50996064F66172325
603F74554527F74977497F67014665F50928001F27605157E98475655E65479976
596E30940725D97220354D66387855D40080540D19411876D04912714C96805497
589C95544590D02039240D17284688D41652456D74169570E12104308E51170672
582E86381848F13274900F29066430F33471522F29188288F21659223F17436340
575F21446614F34759198F54465623F75677476F93991848G06865717G13648848
568G14975794G12223632G07221201G01908662F97569062F93834962F88489194
561F79087648F65875905F53376996F48259648F54573599F70708209F91080485
554G10632595G27582872G42543053G56241908G68576861G79083938G87470961
547G93758239G98313406H01689129H04203359H05770229H06228420H05732438
540H04837910H04315448H04801532H06491290H09100063H11884618H13284319
533H10330859G98648324G73784380G33712558F81170103F24133027E73793794
526E40955322E32376900E48317667E82317972F23723297F61719028F88360523
519F99256055F92697745F68556020F27526167E71196332E03335707D31487013
512C66813088C21208082C03138551C14743993C51499609D04240597D62641736
505E18512417E67292170F07583095F39869412F65456278F85834210G02313828
498G15882598G27252004G36952218G45376390G52748761G59046966G64000229
491G67264248G68628985G68032997G65372164G60320374G52333376G40803806
484G25226428G05303987F81021508F52815328F22050379E91705635E66497905
477E51628926E50469536E62730963E84498248F10045201F34206915F53930179
470F68155866F76244799F76253732F64918519F40490980F06947130E75257766
463E58447986E63063117E84518236F10849814F30975738F39840168F37846215
456F28012766F14129837E99923688E88308188E80762348E77102932E75697896
449E74231931E70846568E65036118E57795375E50907223E45576367E41171145
442E35300699E25718808E12741944E00052952D93160141D96779710E12841436
435E39912520E73953958F09825329F42759758F69296233F87600450F97363201
428F99531265F96000070F89156202F81168432F73264344F65503646F57340030
421F48586853F39958749F32746799F28035389F26189067F26928830F29847326
414F34997838F43136838F55320882F72029307F92490148G14841531G37007684
407G57503618G75636938G91274924H04533713H15565116H24513741H31597149
400H37133931H41421728H44557591H46351275H46424030H44408867H40008723
393H32890031H22670633H09078211G92052928G71739396G48544645G23228554
386F96771454F69992677F43278941F16810594E91161514E67602472E47744688
379E33024754E24608231E23529887E30538515E45522507E66868237E91379522
372F15193013F35249460F50246661F60493374F67070131F71116075F73616873
365F75491539F77604137F80603038F84771869F90076117F96358575G03493400
358G11387911G19875326G28622333G37218173G45460392G53503692G61537801
351G69307112G76041141G80776459G82676770G81311904G76928214G70345801
344G62400001G53604727G44478134G35927540G29047359G24663861G23205095
337G24751206G28830700G34119202G38621987G40540358G39141107G34772006
330G28174426G20037997G11025036G01656975F91973535F81538892F69910024
323F57070348F43502670F29978376F17312168F06328069E97993556E93425728
316E93631589E99211241F10246628F26251088F45963234F67095904F86366569
309F99969724G04509851F98172184F81414527F56849511F29155895F05085511
302E91869784E93761932F09707134F34728027F63400945F91812150G17089485
295G36325251G46551655G45720948G33280526G09611902F75487875F32766273
288E85443551E38956613D97435759D61599448D29809499D01141498C77036664
281C60312783C53346638C57034109C70485906C91346033D16889548D45196891
274D75396864E06978284E39076286E70438702E99837243F26246461F48688788
267F66023729F76734353F78835897F70243913F49648937F17386722E75618328
260E27813057D78025979D30000224C86232381C47732473C14658544B87062331
253B65113158B49112602B39780646B38219238B45026938B59611982B80444023
246C05251664C30865620C54013775C73111165C89145319D04611925D21334842
239D39041047D55935794D70290089D81258312D88628274D92437828D93011353
232D91120009D87955770D84948097D83545118D85015004D90234800D99449091
225E12045854E26429070E40164464E50569092E55773141E55795765E52752325
218E49680284E48568711E49288936E50523652E51591713E52880353E54598519
211E56063969E56302930E54705338E51854840E49253458E47608240E47310985
204E49060965E53117129E58435260E62812009E63734817E59234281E48441582
197E32241608E13907730D98713763D91989246D96625169E11922324E34292956
190E59086200E82402553F02011221F17381259F28858191F36536879F40052714
183F39433716F35963643F32141620F30584004F32762802F38671908F47256565
176F56686776F64553201F68711621F68426770F64611303F58855612F52500399
169F46731854F42877310F42006819F44343660F49256239F55534584F61219126
162F63254599F58535220F46726198F31508612F17421815F05958252E95576183
155E84584371E73256100E63596312E57868772E57499405E62522531E71581318
148E82819802E94744447F06218551F16134653F23325458F26818861F26186110
141F21522968F13382619F03070927E92695927E84662975E81115134E83383847
134E91385242F03661516F18272767F33480199F47772086F60095213F70301436
127F78833391F85955939F91701346F96293019G00121983G03435556G06256489
120G08414848G09612480G09569483G08090407G05171331G01385300F98020632
113F96417384F97098467F99642133G03397571G08151015G13807277G19733929
106G25183559G30022162G34475394G38437786G41308722G42643444G42667675
99G41727771G39579759G35648024G29877487G23156249G16915181G12034353
92G07809991G02262475F94152333F84140467F73649265F63766327F54901190
85F46654343F38375489F30005048F21951915F14617785F08599289F04711131
78F03357255F04562471F08800973F16884699F28835953F43751786F61001760
71F80036871F98753068G14735676G27779543G38455267G46510907G52380615
64G57743736G63266764G67772763G70369324G71861383G73402481G74861762
57G75265771G73723581G70109154G64919566G58312859G50530051G43151766
50G38293561G36344019G35546540G33704202G28897478G19326706G04516535
43F86381737F68295785F53865522F45642455F43433321F44241276F44105085
36F40386282F32460920F19791306F02658562E87147898E79125422E77105888
29E79548520E87306455F00466460F17329200F36247915F55936023F74298791
22F88569919F96921399F99895362G00831217G04627146G11933061G17251835
15G18074315G16856245G16013519G15624999G15485273G17494588G22839263
8G26720223G23608719G16274139G10473009G08188742G08766155G10808505
1G10968605
##END=


$$ === CHEMSPECTRA PEAK TABLE AUTO ===
##TITLE=J.Beck JB269
##JCAMP-DX=5.00
##DATA TYPE=INFRAREDPEAKTABLE
##DATA CLASS=PEAKTABLE
##$CSTHRESHOLD=0.93
##MAXX=3997.453
##MAXY=0.9957783848621924
##MINX=373.96442
##MINY=0.1655708403961138
##NPOINTS=59
##PEAKTABLE= (XY..XY)
3306.1854366536354, 0.8064846425234654
3273.605203135262, 0.8219217687045919
3202.7786085301013, 0.8765763071755583
3180.1140982564502, 0.8706666255802855
3110.7040355433933, 0.8647800712590274
3100.7883122986705, 0.8650658161578816
3092.2891209460513, 0.8647976545903019
3072.4576744566066, 0.8569999961855124
3068.208078780297, 0.8575075293978827
3056.8758236434714, 0.8578992509633007
3000.2145479593432, 0.8679410840349834
2959.13512308835, 0.8448937557518358
2935.054080922596, 0.8067212728007852
2840.146444151681, 0.8594415214885793
1732.4185045269742, 0.9256110812817202
1664.42497370602, 0.4788349287845444
1619.0959531587177, 0.6021167056462409
1592.1818472087566, 0.4776369947871592
1580.849592071931, 0.49374720643799336
1531.2709758483188, 0.4074122319219244
1459.0278493510555, 0.4127517953306153
1440.6129347537135, 0.5729352254398504
1393.8673823143076, 0.5069823282707766
1365.5367444722438, 0.1655708403961138
1344.2887660906958, 0.3621314777128564
1308.8754687881155, 0.43376550191975344
1281.9613628381544, 0.5589930431721042
1266.3795120250193, 0.5357911605601837
1242.298469859265, 0.49710896781034397
1206.8851725566847, 0.3668244493547851
1188.4702579593431, 0.5726048368709425
1162.9726839014852, 0.6011900919098067
1136.0585779515245, 0.7459148191614687
1116.2271314620793, 0.493721487106441
1094.9791530805314, 0.28112793060520036
1046.8170687490224, 0.510500432908927
1028.4021541516809, 0.5178995747552475
992.9888568491006, 0.4573522220745155
963.2416871149335, 0.5807220361533996
906.5804114308053, 0.48551684784652943
851.3356676387803, 0.6706938167045845
821.5884979046127, 0.5503376140388179
800.3405195230648, 0.5488946457478677
769.1768178967941, 0.32769045309332784
726.6808611336978, 0.22092235114394182
696.9336913995307, 0.448435337337175
679.935308694292, 0.5087376251204427
662.9369259890536, 0.5075712214859266
647.3550751759185, 0.4562663447183689
627.5236286864733, 0.5847978606893235
609.1087140891318, 0.5953912752584789
586.4442038154807, 0.5170198693774204
565.1962254339323, 0.5389208813127292
532.6159919155589, 0.6458511375592317
483.03737569194664, 0.5595480217024069
427.7926318999216, 0.5967142002178457
415.04384487099287, 0.5352027430965604
388.12973892103173, 0.663534524109363
378.2140156763094, 0.6567677877313604
##END=

##END=

