##TITLE=X8359
##JCAMP-DX=4.24
##DATA TYPE=INFRARED SPECTRUM
##DATE=31/10/2018
##SAMPLING PROCEDURE=Diamant-ATR
##ORIGIN=ComPlat
##XUNITS=1/CM
##YUNITS=TRANSMITTANCE
##RESOLUTION=4
##FIRSTX=3997.453
##LASTX=373.96442
##DELTAX=-1.4165319
##MAXY=0.96469301
##MINY=0.39977294
##XFACTOR=1
##YFACTOR=8.9844038e-010
##NPOINTS=2559
##FIRSTY=0.63506901
##XYDATA=(X++(Y..Y))
3997+706857158+707337875+707836106+708303355+708673612+708743337+708552603
3988+708498999+708801719+709184514+709292851+709148490+708989799+708834956
3978+708509812+708066579+707800613+707776066+707762399+707710918+707786349
3968+707950480+708006009+707929317+707778919+707527548+707215141+706943005
3958+706663770+706349042+706285420+706812510+707807512+708688937+708956429
3948+708678654+708346610+708293205+708499662+708807756+709055478+709100790
3938+708903289+708596389+708396500+708404129+708528985+708652183+708781086
3928+708909260+708878410+708558375+708128211+707967596+708203112+708573700
3918+708750237+708768813+708939512+709238052+709317995+709119233+709022373
3908+709330003+709859614+710111847+709754129+709054947+708583187+708492497
3898+708546831+708590485+708651984+708767353+708836217+708664191+708310719
3888+708101475+708006340+707502138+706454792+705513925+705006936+704648290
3878+704419408+704571200+704933827+705127016+705191501+705390859+705606671
3869+705689068+705832102+706005521+705880532+705576353+705654371+706213173
3859+706976243+707861913+708813063+709146234+707990153+706485707+706140860
3849+706772041+707712444+708443536+708711360+708632612+708475248+708124761
3839+707108861+705496676+704206649+703833274+704191788+704927193+705835022
3829+706704703+707139047+706903133+706476353+706622505+707394067+708085288
3819+708488782+709011294+709441657+709346389+709099596+709152404+709331263
3809+709336902+709177880+709133298+709434028+709897827+709837853+708795018
3799+707563505+707089290+707398578+708091457+708877548+709598955+710121401
3789+710383652+710374165+710033099+709430379+708944023+708829582+708774120
3779+708321798+707618569+707188405+707216137+707706539+708732789+710075624
3769+711080910+711389004+711181352+710551763+709670273+709147097+709423678
3759+710150127+710561781+710508508+710471025+710758951+711129274+710950083
3750+710302117+710167376+710657911+710709194+709538716+708300038+708187389
3740+708840131+709581772+710134735+710467243+710493117+710275050+710182834
3730+710439910+710841812+710970914+710738650+710599994+710769698+710798093
3720+710433342+710077217+710134205+710649751+711539601+712524719+712947386
3710+712511251+711774387+711208354+710967664+711211206+711920008+712712799
3700+713262313+713582282+713681795+713550968+713417554+713512822+713649354
3690+713365342+712645926+711999088+711535289+711035996+710531595+710264435
3680+710405147+710969919+711775713+712237058+711876156+711285974+711096766
3670+711150238+711257580+711639778+712213507+712460101+712070074+711369433
3660+710995726+711209017+711695771+711920207+711675138+711200326+710744355
3650+710348623+709967088+709840972+710370317+711468349+712594975+713266890
3640+713422264+713274321+712993626+712786439+712984139+713750194+714864481
3631+715763552+715577263+714137236+712825979+712542432+713027594+713802539
3621+714505369+714811805+714587700+714054308+713352472+712396014+711393316
3611+710930048+711261361+711967775+712517952+712881773+713232193+713472817
3601+713432614+713288916+713388164+713668195+713638275+713051676+712403445
3591+712372994+712953821+713287324+712651101+711690928+711267067+711180092
3581+710939999+710673502+710853090+711423900+711801521+711706585+711514325
3571+711689203+712141525+712206939+711417199+710402560+709965297+709868504
3561+709551785+709090971+709038627+709513307+710023678+710206916+710264103
3551+710560056+711109039+711620141+711781021+711530778+711247363+711400017
3541+711996766+712624763+712900084+712733498+712295837+711906342+711874298
3531+712274276+712837390+713137457+712961450+712471645+711992388+711761981
3521+711891282+712407823+713235444+714159858+714884251+715185843+715076444
3512+714802185+714562623+714237678+713633366+712936307+712551985+712562733
3502+712668350+712693892+712779075+712985931+713080933+712861804+712551056
3492+712620981+713218859+713993074+714559571+714896657+715058068+714841062
3482+714145197+713415232+713223038+713572729+714058421+714463242+714829584
3472+715116780+715201500+715175759+715285821+715581973+715864127+715923304
3462+715675582+715187568+714705723+714518173+714710566+715130845+715556697
3452+715819678+715859151+715761031+715704441+715850593+716278899+716918838
3442+717482018+717590554+717097166+716233853+715450814+715139470+715389381
3432+715922110+716353269+716573393+716806653+717261761+717809285+718086397
3422+717894800+717433588+717129209+717282925+717853004+718470652+718701390
3412+718438874+718007449+717792964+717860501+717961209+717828789+717499665
3403+717348006+717673548+718314150+718879718+719214283+719324212+719089427
3393+718486507+717917622+717856321+718296039+718879519+719389891+719828082
3383+720138498+720132859+719690157+718909838+718071868+717499002+717401346
3373+717742213+718276268+718809263+719342921+719841085+720051789+719829011
3363+719460745+719356123+719536375+719690289+719604907+719334230+719035159
3353+718803557+718692699+718805946+719253491+719962492+720626114+720935535
3343+720827264+720484606+720178834+720097897+720230581+720392059+720434451
3333+720427353+720530117+720723969+720855526+720944160+721173306+721498782
3323+721590931+721327618+721027751+721001479+721156787+721258622+721314284
3313+721466937+721670343+721682749+721321515+720638388+719934761+719625141
3303+719942125+720686022+721353094+721574346+721400595+721147698+720994514
3293+720819171+720494823+720198604+720184606+720376667+720496548+720504310
3284+720622731+720994049+721500042+721844558+721795465+721460967+721212382
3274+721195531+721141926+720810015+720356698+720135380+720312780+720753624
3264+721184253+721420299+721408490+721103050+720527397+719984186+719910281
3254+720375075+720917689+721013886+720574699+719901125+719307494+718940886
3244+718854508+719047764+719434672+719877176+720202452+720186066+719735999
3234+719149002+718918064+719193053+719626136+719801280+719648029+719387569
3224+719224831+719219922+719383987+719729697+720162381+720414350+720218573
3214+719619834+719053137+718962315+719336950+719764792+719904774+719753116
3204+719510634+719372111+719393407+719434473+719279033+718860877+718319723
3194+717866936+717652717+717693650+717861828+718009174+718146702+718411740
3184+718798914+719052275+718949776+718570762+718175030+717946547+717939780
3174+718107029+718301678+718399533+718422819+718417312+718304000+718018794
3165+717684893+717479099+717407714+717349466+717261828+717204309+717173990
3155+717058289+716797431+716518263+716491659+716936153+717769811+718569900
3145+718938630+718885490+718672730+718390377+717966450+717517113+717346348
3135+717566405+717981974+718394822+718767467+719004044+718866782+718313155
3125+717732394+717590554+717885180+718139603+717956697+717451832+717089006
3115+717194955+717701611+718294115+718691439+718794668+718661983+718440399
3105+718308975+718352031+718429785+718348714+718219413+718395618+718970475
3095+719600860+719910015+719817136+719435933+718941152+718559020+718418175
3085+718395220+718296967+718138077+718072929+718194734+718530492+719048626
3075+719552032+719742368+719488675+718953358+718456587+718248073+718332925
3065+718536530+718777750+719110059+719443628+719505061+719189272+718718639
3055+718382483+718299488+718438343+718663641+718714924+718348582+717620872
3046+716903380+716501412+716387435+716404684+716503800+716596812+716438453
3036+715937966+715400261+715166869+715129120+714812999+713831862+712082082
3026+709624762+706527503+702650788+697501560+690580793+682116968+673340539
3016+665891156+660943144+658811698+659131866+661211367+664294495+667711325
3006+670945580+673688969+675887754+677642907+679030192+680129750+681162435
2996+682332316+683570662+684700340+685771105+686971238+688330062+689678205
2986+690726016+691132496+690747975+689793309+688583357+687125816+685175749
2976+682624885+679667277+676568293+673400115+670125523+666904867+664173154
2966+662372225+661683790+662051924+663374525+665541001+668278419+671136713
2956+673772096+676159293+678438153+680659294+682760755+684693241+686474467
2946+688092689+689404145+690272831+690767414+691037493+691109939+691053615
2936+691110868+691356733+691478272+691174291+690534154+689843928+689240080
2927+688598351+687568518+685755714+683030702+679588330+675662190+671429349
2917+667316389+664105220+662452765+662404335+663502301+665218710+667206128
2907+669319198+671523754+673766457+675999275+678294787+680691404+682935832
2897+684686540+685976567+687164162+688427652+689579156+690383756+690838267
2887+691017989+690788643+689867679+688162349+685894966+683456885+681299100
2877+679839635+679292443+679652947+680849034+682716637+684891605+686958301
2867+688689107+690051580+691115777+691999789+692778051+693444858+694019317
2857+694569096+695085239+695468432+695675885+695792316+695965934+696348265
2847+697034377+697934842+698730419+699120181+699173056+699304347+699854723
2837+700787364+701807776+702676396+703364963+703936901+704346233+704476529
2827+704374893+704290505+704432876+704806317+705286105+705739290+706063107
2817+706198578+706167065+706093690+706120028+706251386+706340816+706264986
2808+706082545+706028144+706321245+706875137+707261249+707159016+706759900
2798+706511183+706574274+706755588+706854305+706868503+706929670+707147140
2788+707495770+707841214+708072086+708152227+708083762+707933297+707834248
2778+707839423+707856738+707808574+707731683+707686371+707730356+707962621
2768+708402072+708854992+709083475+709060255+708926840+708784735+708660343
2758+708597981+708642630+708740949+708759591+708616358+708360741+708155146
2748+708186393+708492762+708859967+708999883+708845969+708580799+708417995
2738+708449175+708645151+708935929+709267110+709551520+709633585+709434227
2728+709082612+708779560+708599972+708507689+708491701+708610719+708884912
2718+709137676+709097871+708769941+708514058+708625049+709025889+709451343
2708+709732369+709851586+709897230+709999928+710210697+710413771+710427902
2698+710227880+709986261+709820870+709627217+709295372+708942895+708774518
2689+708841458+709031993+709190551+709219410+709152869+709110609+709158043
2679+709282634+709476420+709747628+710034559+710170759+710008287+709629472
2669+709337168+709322241+709449485+709493006+709426067+709348977+709310100
2659+709337035+709481064+709724806+709987389+710252294+710540353+710762798
2649+710789999+710629915+710356186+709952427+709429384+708959149+708688804
2639+708583320+708619012+708895726+709375116+709762422+709852449+709780534
2629+709782524+709912887+710101962+710294289+710446080+710551631+710711715
2619+711027173+711414413+711661472+711680380+711597054+711579141+711678655
2609+711863020+712093294+712332060+712564325+712786638+712921512+712895705
2599+712889270+713202207+713724586+713937744+713627594+713180446+713012335
2589+713110853+713242675+713251300+713069257+712718505+712358266+712165209
2580+712150946+712197717+712272618+712497452+712917200+713280159+713257204
2570+712923237+712772972+713090022+713546457+713653268+713380535+713065740
2560+712940552+713014590+713215210+713446745+713649619+713842676+713993671
2550+713965741+713741172+713520119+713466913+713501610+713400968+713057846
2540+712668217+712584825+712863264+713147010+713169168+713075957+713082127
2530+713183034+713362158+713703954+714164303+714514127+714573768+714360809
2520+714070960+713986970+714312579+715028943+715889138+716489669+716479054
2510+715901743+715246480+714995772+715213176+715615874+715911363+715995949
2500+715869633+715460500+714727948+713907691+713348160+713112114+713039734
2490+713100637+713356851+713734737+714072685+714246037+714186727+713981398
2480+713843405+713797364+713599597+713114966+712550592+712256098+712480137
2470+713210765+714046944+714433653+714247629+713927129+713884206+714075405
2461+714259306+714347408+714360212+714281199+714058620+713643649+713080667
2451+712632790+712618991+713015851+713416360+713503335+713424387+713558133
2441+713992145+714405524+714495816+714324719+714141482+714057957+714009261
2431+713886263+713643450+713364480+713192189+713157028+713175603+713202207
2421+713258929+713316846+713247717+712930468+712428920+712014347+711912976
2411+712063308+712205944+712149155+711934537+711815519+712008907+712390243
2401+712585156+712424873+712108619+711865740+711699884+711547827+711472463
2391+711577814+711869920+712300150+712844953+713446015+713950217+714192366
2381+714119522+713822110+713451720+713063020+712556364+711865740+711136372
2371+710630844+710553024+710913396+711376863+711538473+711591215+712095086
2361+712876665+713122596+712717509+712415983+712594046+712855037+712879650
2351+712802560+712693228+712293914+711340640+709970206+708748379+708071621
2342+707774076+707614323+707680798+708248822+709400790+710701498+711453688
2332+711452427+711185333+711153422+711390397+711699221+711902958+711894068
2322+711781021+711895063+712407890+713111848+713703025+714027439+713966072
2312+713393074+712463551+711720517+711646014+712185510+712857890+713180977
2302+712877527+711899707+710425315+708677393+706708485+704541014+702464034
2292+700934312+700196983+700158438+700544617+701071376+701613923+702312906
2282+703373919+704722659+706027481+707093934+708055964+709111206+710161538
2272+710797894+710678079+709933386+709155721+708928101+709339357+709957203
2262+710293758+710275779+710236173+710523369+711251211+712361384+713699044
2252+714963596+715804353+716120872+716155237+716120872+715863729+715137944
2242+714103003+713210566+712657403+712326620+712286948+712855568+714016227
2232+715269567+716179253+716615189+716534516+716127440+715996148+716440509
2223+716895618+716820253+716563309+716591505+716612999+716228745+715724941
2213+715547541+715596170+715603601+715766338+716453114+717519302+718419568
2203+718884960+719052872+719118883+719324942+719997189+721085933+722047831
2193+722548185+722848849+723303294+723910193+724539451+725229477+725933038
2183+726140424+725274789+723535160+721787238+720597057+719928591+719668197
2173+719762204+719979409+720053713+719869347+719295685+718205946+716757626
2163+715255900+713802406+712474497+711568526+711187920+710980468+710798889
2153+711061803+712120561+713859593+716084715+718615875+720864615+722097389
2143+722201015+721593320+720679321+719953867+720030095+720921006+721870896
2133+722355991+722571538+722589981+721923174+720455283+719126313+718983146
2123+719923018+720993651+721650308+722115301+722678680+723138566+722988765
2113+722017380+720708246+719905703+719983456+720504310+720775053+720523217
2104+719957516+719417224+719178657+719387038+719824765+719920962+719456698
2094+719064018+719478591+720551280+721502364+721894381+721956544+722095067
2084+722386376+722575518+722464660+722173616+721970409+721995089+722183501
2074+722266164+721941750+721337172+721101855+721677906+722687769+723459264
2064+723862560+723983369+723292812+721205947+718349975+716016515+714299642
2054+712160101+709497119+707738118+707937411+709178610+709651564+709128057
2044+709149021+710776001+713386771+715752738+717332615+718397211+719531466
2034+720743540+720890223+719160811+716950085+716469103+717808820+719026733
2024+718749555+717318020+715718174+714541791+713959637+713957912+714317886
2014+714719191+715158974+715879120+716610346+716521115+715466736+714564945
2004+714844511+716094468+717564548+719043186+720783412+722761011+724427863
1994+725031313+723989473+721534209+719207649+718724345+720140754+721916871
1985+722787615+722910680+723116540+723811144+724739738+725277907+724943542
1975+723906876+722818729+722029521+721297366+720403204+719679807+719505260
1965+719589383+719353204+718636176+717688409+716942323+716842677+717399422
1955+717989537+718035578+717678988+717427684+717450107+717504641+717302230
1945+716601721+715018129+712186174+708413284+704694597+701856006+700104303
1935+699306205+699303286+699867262+700715515+701775931+703158506+704838427
1925+706602470+708165628+709274275+709941082+710478256+711069366+711473789
1915+711445262+711217907+711293471+711928964+712906386+713797828+714397298
1905+714778567+715076710+715387192+715785379+716293495+716821447+717241129
1895+717570187+717982969+718523858+718950373+719051545+719001390+719063089
1885+719108533+718869767+718449356+718197852+718162956+718060921+717798869
1875+717662403+717921403+718566384+719446348+720271515+720508622+719891837
1866+718852983+717876755+717092522+716575848+716473415+716741040+717155813
1856+717649134+718299488+719030249+719625008+720021802+720370033+720816915
1846+721314947+721600949+721508070+721305991+721389914+721855372+722445288
1836+722800352+722813687+722640932+722472289+722497035+722857473+723408645
1826+723792635+723836288+723717535+723674877+723754289+723934209+724201569
1816+724450950+724535934+724449557+724309906+724177951+723995178+723740755
1806+723551547+723640114+724100331+724741463+725177598+725262715+725247788
1796+725320764+725333303+725080008+724708491+724581910+724689849+724767602
1786+724751414+724796129+724955218+725024811+724845156+724537659+724279521
1776+724047920+723659685+722799423+721134960+718776224+716210036+713854020
1766+712136948+711387014+711605811+712564988+713879695+715186042+716355458
1756+717319877+717961142+718295375+718518285+718866317+719423062+720005681
1747+720415809+720681311+720965787+721333125+721649976+721785381+721839184
1737+721978835+722191927+722349622+722477199+722657185+722738455+722581887
1727+722315191+722132617+722032307+721933324+721859220+721823926+721701657
1717+721393430+721027950+720672687+720190046+719433942+718300948+716631177
1707+714222817+711300238+708673015+706754460+705197936+703779338+702971022
1697+703104039+704045105+705524274+707272992+709183254+711128146+712829827
1687+714183808+715393959+716636883+717857516+718976379+719924345+720593275
1677+721008976+721397145+721965766+722681268+723392590+723929101+724170985
1667+724311631+724617270+725053206+725390490+725581755+725894427+726478903
1657+727194272+727805949+728033967+727692172+727380164+727575608+727966431
1647+728155109+728013600+727919195+728114772+728428373+728663954+728799027
1638+728890779+728958249+729090270+729362672+729617891+729697900+729657895
1628+729689076+729823420+729924592+729980983+730130386+730415790+730744384
1618+730959333+730934853+730833615+730908979+731151925+731428904+731655530
1608+731793986+731816012+731771894+731791797+731928330+732084168+732171673
1598+732253540+732457211+732789851+733096751+733229104+733203430+733160639
1588+733214044+733379701+733609445+733833682+733996619+734096199+734135871
1578+734009356+733592328+733168467+733194540+733599560+734060838+734372514
1568+734550047+734662829+734678684+734601993+734500887+734306836+733796663
1558+733311501+733606924+734302789+734854691+735133129+735213404+735124173
1548+734853629+734504934+734228883+734081139+734055531+734236314+734654868
1538+734996000+735107389+735118601+735137574+735230586+735429879+735653519
1528+735705465+735429812+734957190+734589520+734420082+734382532+734446154
1519+734525235+734463072+734226694+733927291+733614553+733222934+732641245
1509+731725256+730587750+730030209+730235870+730564198+730709952+730667162
1499+730552787+730553252+730787971+731161943+731517073+731810572+732125964
1489+732609201+733319396+734196376+735150843+736077646+736880189+737543745
1479+738124639+738627580+738944033+738938062+738643303+738390804+738443878
1469+738690672+738944431+739161172+739410088+739707302+739946466+740021433
1459+739860818+739414997+738758075+737926209+736656549+734505929+730783725
1449+724458712+714968771+703686392+693352709+686101888+682937093+683655249
1439+687234286+693025840+700421552+707531130+712983940+717207493+720916694
1429+724271029+727081623+729253406+730873287+732072956+732933814+733511922
1419+733955553+734512829+735297526+736264731+737382135+738594873+739765749
1409+740751265+741515263+742147904+742766613+743394344+743980611+744537821
1400+745152881+745838463+746453589+746919047+747402550+748078313+748875814
1390+749665089+750450384+751305205+752231477+753172078+754046272+754752751
1380+755267104+755693021+756160602+756756688+757528183+758419957+759292691
1370+760066707+760762240+761441586+762164187+762949149+763734908+764399194
1360+764850986+765051936+765002777+764817350+764740459+764987850+765612330
1350+766565869+767757046+769002756+770087520+770937100+771645105+772328299
1340+773041811+773788096+774543271+775297782+776055677+776776023+777363484
1330+777761671+778056762+778471202+779163750+779988784+780567289+780645905
1320+780251300+779498779+778435046+777131153+775851741+775062533+775158464
1310+776153532+777750326+779609902+781454883+783109063+784585579+786009153
1300+787415013+788736885+789961564+791175629+792462472+793802853+795100443
1290+796303495+797442394+798524239+799474327+800234014+800863404+801564974
1281+802606615+804132555+806032401+808065197+810085123+812133973+814373160
1271+816915001+819662570+822385193+824977918+827533160+830134975+832716024
1261+835185949+837588073+840019520+842489844+844983255+847579695+850377551
1251+853354797+856402100+859443034+862473552+865533394+868669132+871936890
1241+875462256+879436296+883995077+889136940+894779888+900852601+907335973
1231+914225427+921396106+928513844+935188880+941269090+946932338+952463299
1221+958065778+964009323+970811337+979027506+988879543+1000153629+1012313319
1211+1024650873+1036494973+1047338961+1056808735+1064607742+1070440893
1203+1073741823+1072906241+1063963293+1040641171+998563204+940836737+877378622
1193+817014382+761396208+706996809+651037568+594921628+543893647+504247990
1183+479619322+469006172+468215073+472892739+480248115+488916904+498135339
1173+507114776+514928710+520844557+524711719+527103062+529158945+532164486
1163+536986347+543686128+551604121+559832761+567663414+574713350+580849288
1153+586103270+590574081+594294162+597132553+598756215+598616963+596034786
1143+590609972+582984980+575256230+570134534+569275798+572422814+578112865
1133+584902341+591887659+598541929+604507964+609612145+613913651+617593196
1123+620769801+623489373+625868608+628123651+630416973+632759323+635092583
1113+637380532+639566578+641549750+643302515+644890419+646289977+647370628
1103+648151743+648865984+649703822+650703800+651906454+653394712+655160347
1094+657048517+658864108+660531557+662148121+663820279+665479634+666953894
1084+668191510+669355951+670725125+672464090+674457678+676460686+678413938
1074+680419931+682420153+684174974+685628933+687045940+688677762+690488776
1064+692323805+694164407+696039109+697839375+699425953+700803021+702023720
1054+703036104+703740461+704081925+704007821+703408152+702152822+700123476
1044+697114983+692707994+686483954+678663650+670541755+664100576+661056391
1034+662016564+666208936+672004205+677997042+683694059+689193707+694509454
1024+699423166+703746962+707431816+710493913+712994688+715063508+716863774
1014+718529365+720119790+721594182+722809839+723552874+723644360+723158402
1004+722558866+722492192+723353382+725065943+727249469+729530850+731749139
994+733934854+736076849+737914731+739071676+739406970+739108496+738401485
984+737355200+736099472+735061679+734745425+735299848+736473179+737965218
975+739657877+741514998+743441248+745316282+747066924+748617809+749849123
965+750722653+751393639+752080481+752895365+753915710+755238709+756758811
955+758100320+759048286+759872191+760966243+762341321+763725687+765010672
945+766358416+767915936+769567329+771007622+772085353+773037499+774264567
935+775907601+777802737+779754064+781634737+783312469+784736972+786075959
925+787587769+789389295+791434829+793646285+795941465+798180851+800240184
915+802187132+804270813+806671942+809362190+812262810+815396624+818781543
905+822291650+825768454+829238092+832894153+836845437+841030909+845446324
895+850270275+855619658+861342283+867187110+873074794+879152417+885650584
885+892607441+899678209+906457203+913092167+920224700+928138280+936299782
875+943867653+950163874+954273782+954549236+949087867+936954183+919154929
866+898762087+879918737+866006614+858384144+856999048+862063557+874477802
856+894138357+917980404+939901575+952352839+948012789+921441816+871515218
846+803335386+726884586+652613133+587757715+535842273+497757652+472361834
836+456988853+448631939+445063086+444963240+447324265+451106442+455558810
826+460536808+466201615+472540892+479329937+486311474+493190910+499618124
816+505384203+510636958+515784096+521120176+526620919+532147038+537683638
806+543287212+548972718+554764173+560730639+566885550+573057246+578883962
796+584023703+588419746+592292348+595873308+599219152+602223465+604770083
786+606979615+609288527+612089103+615252771+618184904+620420641+621999390
776+623156069+623861885+623881058+623093773+621467324+618803214+614822674
766+609640275+604109313+599559488+597064021+596962119+599001218+602642948
756+607202989+612053743+616802926+621190212+624987781+628089286+630465337
747+632103595+633257686+634489398+636120093+637905101+639496786+640943248
737+642555500+644540861+646898071+649480514+652025870+654263797+656193364
727+658177730+660511256+662967979+665039718+666543832+667756504+669024969
717+670446819+671873179+673134546+674285918+675516104+676739258+677522296
707+677564158+677061416+676525171+676379019+676757834+677564026+678600625
697+679646247+680557923+681423824+682445230+683546911+684341427+684504298
687+683786606+681692908+677780501+672426342+666885827+662540469+660333923
677+660674989+663444649+667954602+672954161+677222296+680533377+684068495
667+688853835+693532364+696775907+698713900+699902556+700823587+701850898
657+703197648+704627325+705602624+706073854+706527967+707058441+707293359
647+707378543+707996256+709322241+710791193+711872175+712550857+713053533
637+713404883+713507514+713600659+714144202+715140929+716138519+716850704
628+717209882+717140886+716882084+717065255+718002938+719375429+720774257
618+722055925+723123970+723775120+723937792+723975541+724572754+726079456
608+728051615+729671827+730516100+730742128+730732907+730774902+730953694
598+731170634+731307962+731490669+732097237+733327025+734800224+735793501
588+735855133+735160131+734419551+734292705+734823974+735742418+737035629
578+738656970+739975856+740242419+739580920+738972759+739195471+740041800
568+740695338+740780588+740578443+740390031+740475612+741322871+743034238
558+744750050+745531828+745454606+745202438+745123756+745284570+745923115
548+747110511+748052174+747442090+744869864+741492707+739011968+738227602
538+738719597+739779350+741356042+743727316+746316857+747643240+746863319
528+744725570+742688727+741654715+741709248+742660996+744398237+746835522
518+749834063+753082118+755981478+758024491+759319029+760432651+761754257
509+763285770+765005563+766972083+768929514+770195525+770230886+769285175
499+768208837+767850655+768710717+770505344+772110961+772699882+772834425
489+773609303+775104395+776414722+776678765+775718658+774156296+773073921
479+773275469+774761670+776810322+778527925+779540243+780289845+781292344
469+782490288+783941461+786144027+789083855+791810459+793363932+793596395
459+793109973+792915789+793743609+795435074+797495866+799544319+801125788
449+801880564+801908826+801758959+802090604+803156859+804546399+805891424
439+807704361+810609559+813767853+815245695+814724775+814297928+815724355
429+818214979+819564582+818786187+817237823+817815068+822539771+830291211
419+836463305+837535795+836404857+835775335+834964830+833930487+834148620
409+835557997+835752447+833676130+831932720+833696895+838365340+841579494
399+839318149+833158594+830391454+834276993+841963484+850514614+858483193
390+866143678+874890120+884068783+888986476+886056134+879713209+876619532
380+878235101+883848394+894625642+909386682+916950904
##END=
