##TITLE=P. Hodapp PH 614
##JCAMP-DX=4.24
##DATA TYPE=INFRARED SPECTRUM
##DATE=25/10/2017
##SAMPLING PROCEDURE=Diamant-ATR
##ORIGIN=Angelika Moesle
##XUNITS=1/CM
##YUNITS=TRANSMITTANCE
##RESOLUTION=4
##FIRSTX=3997.453
##LASTX=373.96442
##DELTAX=-1.4165319
##MAXY=1.0362229
##MINY=0.63772982
##XFACTOR=1
##YFACTOR=9.6505781e-010
##NPOINTS=2559
##FIRSTY=1.002116
##XYDATA=(X++(Y..Y))
3997+1038399930+1038497268+1038783600+1038989023+1038905397+1038510115
3989+1037932386+1037403326+1037169863+1037265224+1037372198+1037174927
3980+1036804351+1036600657+1036548529+1036411416+1036281220+1036442791
3972+1036802621+1037010762+1037025832+1037051031+1037067584+1036883284
3963+1036555694+1036379299+1036435256+1036472932+1036324577+1036108222
3955+1035963204+1035874945+1035845731+1035978582+1036224398+1036207352
3946+1035635676+1034796011+1034325255+1034450942+1034666247+1034465271
3938+1033944117+1033509183+1033517460+1034175604+1035289557+1036144724
3929+1036207352+1035794962+1035389242+1035332853+1035573727+1035723996
3921+1035440629+1034776432+1034133111+1033831400+1033735853+1033562546
3912+1033388437+1033498622+1033818244+1033849620+1033344091+1032783409
3904+1032945783+1033878895+1034818863+1035187895+1034900513+1034096794
3895+1033084070+1032366016+1032473854+1033283255+1033716336+1033246939
3887+1032731034+1033223345+1034315990+1034727763+1034451807+1034234340
3878+1033942634+1033161274+1032360519+1032209818+1032518323+1032806447
3870+1033303884+1034074313+1034534013+1034655624+1034921142+1035210068
3861+1034924663+1034066222+1033039972+1032085181+1031542286+1032337976
3853+1034709296+1036194814+1035610909+1034128170+1032649569+1031551736
3844+1031105191+1031431731+1032203642+1032916693+1033465146+1033984880
3836+1034372195+1034547539+1034757285+1035202224+1035690336+1035901132
3827+1035680021+1034918795+1033674213+1032628693+1032870989+1034191600
3819+1034677303+1033968637+1033412030+1033488616+1033387881+1032802803
3810+1032158061+1031828001+1031937938+1032223653+1032218341+1032142250
3802+1032767042+1033888407+1034285727+1033940843+1033673658+1033625853
3793+1033405978+1033021196+1032816020+1032887170+1033007176+1033001246
3785+1032891309+1032696571+1032419379+1032249593+1032409065+1032738816
3776+1032905638+1032854004+1032656301+1032402642+1032349340+1032677362
3768+1033134716+1033482934+1033734864+1033745920+1033463108+1033410363
3759+1034126996+1035038430+1034916386+1033546673+1031780135+1030950599
3751+1032182334+1034367006+1035171590+1034576135+1033994453+1034118844
3742+1034035958+1033209202+1032286033+1031915951+1032163187+1032637340
3734+1033175850+1033825779+1034193082+1033886616+1033137927+1032621899
3725+1032765498+1033210252+1033362435+1033202408+1033038427+1032991241
3717+1033036945+1033217292+1033697313+1034668409+1035874636+1036446127
3708+1036075612+1035263987+1034461936+1033934173+1033815588+1033834982
3700+1033464282+1032652719+1031813857+1031311108+1031290726+1031688540
3691+1032252434+1032691506+1032931331+1033121807+1033335692+1033517707
3683+1033622580+1033577061+1033098337+1031894643+1030506895+1030682425
3674+1032912246+1034818060+1035334891+1035435688+1035817690+1036054427
3666+1035790577+1035250585+1034819048+1034673906+1034545501+1034058007
3657+1033385040+1033153059+1033463417+1033793477+1033910456+1034040158
3649+1034426978+1034761176+1034613625+1034089012+1033407707+1032716829
3640+1032314815+1032581815+1033458785+1034335384+1034601087+1034078574
3632+1033037933+1032192401+1032646419+1034470212+1035940598+1036207352
3623+1035613503+1034555753+1033375282+1032465084+1032097163+1032175478
3615+1032400480+1032461934+1032215871+1031902363+1031913419+1032297521
3606+1032685824+1032860118+1033079623+1033674152+1034513878+1035029412
3598+1034854747+1034130887+1033213896+1032438526+1031911504+1031479412
3589+1031177453+1031505784+1032607879+1033505601+1033549761+1033193205
3581+1032995873+1033001987+1033017613+1032968203+1032813179+1032537593
3572+1032277819+1032165596+1032226062+1032615105+1033512333+1034490470
3564+1034893781+1034701328+1034258057+1033772169+1033247556+1032687677
3555+1032250952+1032144844+1032308330+1032313085+1031901931+1031493185
3547+1031782605+1032759260+1033455635+1033243789+1032648149+1032449149
3538+1032753331+1033099881+1033104205+1032773959+1032364781+1032203210
3530+1032510294+1033098399+1033377505+1032988894+1032276893+1031862650
3521+1031927253+1032197774+1032484045+1032840045+1033240948+1033422592
3513+1033224951+1032892111+1032754380+1032711023+1032469963+1032229520
3504+1032506341+1033285973+1033881304+1033802124+1033176467+1032321732
3496+1031493679+1030936332+1030773340+1030901312+1031168127+1031568041
3488+1032107354+1032524438+1032427841+1031824295+1031259845+1031211546
3479+1031539569+1031836771+1032002481+1032173008+1032375034+1032493680
3471+1032457487+1032300609+1032125203+1032050470+1032097286+1032135270
3462+1032030521+1031832324+1031754441+1031986669+1032515791+1033095435
3454+1033452053+1033524871+1033376764+1032974441+1032332788+1031748636
3445+1031515913+1031553589+1031676929+1031936394+1032339026+1032580765
3437+1032427470+1032102166+1031947944+1031960605+1031974564+1032052447
3428+1032354219+1032798479+1033141077+1033248112+1033108714+1032721770
3420+1032188016+1031818180+1031907489+1032390536+1032888159+1033130083
3411+1033218837+1033436241+1033916324+1034511223+1034881058+1034785943
3403+1034351010+1033921079+1033683910+1033587499+1033501525+1033333098
3394+1033150156+1033208028+1033588116+1033943129+1033978519+1033913359
3386+1034051090+1034215255+1034061342+1033635426+1033224272+1032939792
3377+1032728749+1032588115+1032633140+1033009955+1033675449+1034305861
3369+1034633760+1034753271+1034856909+1034901378+1034799655+1034643951
3360+1034502576+1034294744+1034029596+1033892915+1033984016+1034186289
3352+1034404744+1034730172+1035161893+1035329579+1034857094+1033960113
3343+1033272261+1033114519+1033317348+1033627891+1033885010+1033934235
3335+1033749379+1033530491+1033447853+1033408078+1033217292+1032827384
3326+1032321732+1031799960+1031365212+1031064428+1030776242+1030335009
3318+1029805455+1029438461+1029337046+1029342296+1029188075+1028669638
3309+1027810147+1026919404+1026369778+1026373545+1026987096+1028013655
3301+1028850726+1028875926+1028116490+1027218027+1026768765+1026944233
3292+1027678654+1028834792+1030194437+1031426481+1032186781+1032378122
3284+1032309009+1032358728+1032465640+1032243355+1031590399+1030835349
3275+1030285846+1029974129+1029832940+1029837819+1029959739+1030156885
3267+1030418760+1030735788+1031057634+1031317470+1031477620+1031517334
3258+1031379418+1031042316+1030686748+1030587619+1030739494+1030849864
3250+1030812065+1030886613+1031295544+1031908725+1032445505+1032785694
3241+1032948254+1032873830+1032397453+1031509675+1030569893+1030104078
3233+1030343100+1031035584+1031742521+1032242614+1032591141+1032856598
3224+1032960051+1032813796+1032505909+1032240020+1032123474+1032088331
3216+1032027247+1031935838+1031863514+1031790140+1031674953+1031567424
3207+1031537716+1031575700+1031666120+1031823245+1031939359+1031786311
3199+1031268677+1030516221+1029722014+1029056520+1028624489+1028323396
3190+1027921258+1027414557+1027042004+1026809096+1026295909+1025105000
3182+1023311409+1021382804+1019802974+1018773821+1018146003+1017625157
3173+1017047243+1016390087+1015585627+1014560303+1013495204+1012750592
3165+1012397927+1012132409+1011789008+1011597358+1011761153+1012105419
3156+1012311336+1012286013+1012193986+1012260072+1012614097+1013238642
3148+1013973619+1014587850+1014958117+1015203439+1015524358+1015937737
3139+1016327274+1016689760+1017140073+1017693343+1018159714+1018268725
3131+1017898396+1017178057+1016346297+1015548693+1014741948+1013709645
3122+1012265199+1010578334+1009107145+1008038587+1007062118+1005887328
3114+1004668872+1003668871+1002795978+1001770036+1000570418+999437874+998502106
3104+997655030+996807892+996103117+995838402+996228866+997143078+998038762
3094+998395319+998274634+998207127+998531567+999112817+999685481+1000219235
3084+1000842113+1001544664+1002122208+1002435407+1002600499+1002822412
3075+1003164022+1003578142+1003997449+1004282422+1004270132+1003972312
3067+1003582774+1003245549+1002900357+1002356103+1001500380+1000498712
3058+999726986+999373147+999223866+998991329+998668372+998377593+998089037
3048+997703637+997288468+997027520+996940805+996759964+996158703+995104289
3038+993880707+992756995+991780649+990920912+990190011+989475230+988434466
3029+986789909+984672557+982518148+980632778+978951842+977224214+975330073
3019+973335321+971308329+969237917+967167197+965240878+963521032+961898647
3009+960264095+958645293+957201897+956238274+956125804+956995301+958574575
2999+960476251+962513434+964610650+966590209+968221364+969391768+970106364
2989+970375464+970173809+969472183+968290909+966717934+964833799+962646162
2979+960199986+957722804+955513674+953692784+952151247+950684566+949145191
2969+947602419+946336158+945489946+944803083+943919504+942856567+941955881
2959+941494204+941520144+941935375+942580426+943334488+944217201+945361356
2949+946872630+948726748+950764425+952751272+954487732+955912291+957107894
2939+958227777+959426839+960825890+962477241+964344700+966315056+968186283
2929+969670689+970529500+970758640+970545929+969997970+969014212+967512018
2919+965662779+963776235+962024520+960375083+958684513+956749732+954405650
2910+951707852+948912469+946195216+943512673+940797952+938166549+935897015
2900+934261413+933335527+932925484+932715800+932491724+932203601+931865388
2890+931454048+930925112+930340033+929896514+929707397+929651810+929634949
2880+929890276+930789481+932426441+934594932+937094101+939834082+942649600
2870+945185641+947025184+947900053+947784248+946838228+945278038+943258458
2860+940823584+937944142+934635942+931092612+927645076+924506230+921613756
2850+918793853+916036763+913530306+911469097+909897791+908719295+907806071
2840+907076467+906492253+906054788+905816136+905820460+906023412+906274293
2830+906374904+906240879+906078999+906247488+906829602+907522580+908025082
2820+908311291+908508561+908757897+909151944+909606332+909906191+910008964
2810+910134342+910496890+911168313+912159111+913403569+914743574+916092782
2800+917472501+918810776+919938194+920864821+921807815+922834806+923638710
2791+923761557+922990942+921535565+919870502+918431182+917414691+916810218
2781+916549703+916576817+916777422+916937388+916844003+916417654+915741846
2771+915035280+914604917+914711396+915405424+916513819+917789282+919062521
2761+920280854+921422971+922432422+923296668+924107243+924925847+925658044
2751+926199704+926628893+927117313+927726726+928376780+928968529+929523282
2741+930210331+931176301+932348064+933507845+934542495+935459240+936182729
2731+936557691+936585731+936442133+936192549+935700053+934872432+933795042
2721+932543481+931100456+929562748+928198285+927149492+926271101+925398888
2711+924635562+924221442+924249482+924625124+925220517+925957408+926798185
2701+927727838+928738648+929791765+930810789+931737292+932607900+933532550
2691+934549104+935541138+936355912+936945067+937354554+937646692+937883244
2681+938133259+938450102+938825991+939189341+939485926+939759967+940104727
2672+940564551+941144009+941800053+942393285+942805242+943128076+943550225
2662+944061806+944489328+944807838+945188359+945724336+946307747+946835943
2652+947382667+948072371+948883934+949678389+950375258+951043099+951812972
2642+952697230+953500887+953985416+954116847+954107027+954253960+954744665
2632+955499962+956229628+956743185+957110180+957423873+957606258+957572783
2622+957450925+957539554+958075470+959018649+960057561+960867085+961312024
2612+961435303+961423568+961550552+961928540+962335125+962455624+962250077
2602+961971713+961915076+962191588+962643691+962979804+963110371+963260022
2592+963612379+964033045+964361191+964749802+965391826+966091413+966460013
2582+966445005+966407638+966726025+967443091+968242548+968722445+968718492
2572+968352919+967829850+967360514+967226736+967618497+968341986+968975302
2563+969384913+969815461+970418080+971046764+971626407+972327106+973197343
2553+973932938+974208770+974072954+973892236+973975801+974307529+974640677
2543+974829919+974968947+975162449+975342735+975449090+975608500+975931272
2533+976291720+976541427+976769517+977120885+977568850+978017989+978365405
2523+978395916+978001684+977560512+977665015+978383625+979138613+979386591
2513+979159180+978868771+978815964+979043992+979482508+979959934+980202786
2503+980157946+980226070+980800032+981659028+982213102+982289255+982263439
2493+982438907+982715604+982924918+983092727+983254484+983355343+983439772
2483+983644331+983959691+984253497+984509627+984832770+985248186+985619566
2473+985744944+985581026+985393514+985500178+985838638+986035970+985916027
2463+985661750+985491655+985444839+985511110+985770946+986272707+986847348
2453+987223360+987368440+987530321+987882986+988355163+988870326+989472513
2444+990100578+990471340+990382402+990028687+989826599+989922084+990048759
2434+989949692+989758536+989780524+990013678+990115834+989887497+989615679
2424+989795903+990565343+991548112+992279137+992666636+992953648+993285314
2414+993500310+993437992+993270861+993284449+993437436+993436571+993212557
2404+993016275+993036719+993202181+993414892+993733279+994192424+994600490
2394+994695667+994465353+994158022+993965260+993832409+993659658+993533909
2384+993626244+994000836+994673062+995652743+996721671+997380000+997252954
2374+996356097+994888058+993173647+991964764+992222315+994098112+996342201
2364+997350169+996927341+996283217+996103796+995762866+994773303+993710427
2354+993267773+993406307+993653976+993711909+993677755+993895839+994602776
2344+995573254+996316631+996711665+997013253+997383397+997761015+998023630
2334+998113433+998062541+997997381+998083725+998306504+998441085+998442567
2325+998581225+998936916+999080577+998658860+997999790+997704193+997928516
2315+998391798+998883244+999473635+1000206512+1000841680+1001084717+1000879664
2305+1000357522+999734768+999301131+999234366+999394578+999521872+999561400
2295+999565908+999443556+999099414+998714941+998609821+998806782+998964154
2285+998793627+998373084+997988364+997817775+997880402+998164264+998620629
2275+999055192+999224175+999110346+999048089+999536509+1000831922+1002604822
2265+1004067550+1004578760+1004064523+1002933153+1001881024+1001643052
2257+1002416075+1003543616+1004170323+1004159267+1004034198+1004140245
2248+1004302186+1004339676+1004441462+1004783813+1005189100+1005425651
2240+1005436583+1005195029+1004827664+1004736255+1005118258+1005709019
2231+1006243452+1006694382+1007118878+1007690122+1008407743+1008617057
2223+1007715197+1006264266+1005316764+1004973486+1004654296+1004208184
2214+1003816175+1003422561+1003056802+1003179710+1003962121+1004642067
2206+1004500877+1004184528+1004901903+1006469133+1007495013+1007449988
2197+1007055633+1006666836+1005846997+1004679804+1004207566+1005110723
2189+1006599391+1007095593+1006015486+1004613286+1004633173+1006242279
2180+1007993130+1008906663+1009593835+1010791724+1011714831+1011001718
2172+1008928342+1007301695+1007097261+1007359073+1006794253+1005575364
2163+1005018882+1006152537+1008953850+1012324676+1014788764+1015711067
2155+1015467475+1014641336+1013671105+1012888879+1012323565+1011618172
2146+1010531085+1009408362+1008967746+1009712420+1011470806+1013321836
2138+1014189789+1013773137+1012733793+1011838912+1011221964+1010610574
2129+1009895423+1009285701+1009092445+1009464937+1010322204+1011430351
2121+1012455119+1013060333+1013153100+1012925505+1012512003+1011857750
2112+1011091768+1010622371+1010568575+1010484887+1009952924+1009139447
2104+1008525216+1008343448+1008510269+1008850335+1009174404+1009376307
2095+1009683268+1010537509+1012031550+1013658690+1014668759+1014564689
2087+1013443385+1012065026+1011369886+1011680182+1012423929+1012716623
2078+1012215109+1011363092+1010740400+1010428065+1010328133+1010653993
2070+1011489705+1012318624+1012592603+1012284469+1011575000+1010718412
2061+1010343512+1011048225+1012587477+1014010244+1014534054+1014047178
2053+1013097637+1012551222+1012871833+1013619718+1013959228+1013588960
2044+1012854169+1012338079+1012601682+1013734412+1015030627+1015583712
2036+1015136427+1014128582+1013247783+1012938289+1012958054+1012805314
2027+1012945454+1014631269+1017771967+1020104871+1019679572+1017324929
2019+1015478839+1015347099+1016292070+1017290033+1017662462+1017108018
2010+1016346730+1016810074+1018535602+1019516395+1018320853+1016048292
2002+1014778511+1015233332+1016438880+1017093689+1016817794+1016155018
1993+1015852875+1016300408+1017298371+1018236053+1018648258+1018564384
1985+1018399045+1018602739+1019257547+1019941447+1020191030+1020030385
1976+1019829162+1019933973+1020392191+1020627199+1019941385+1018616079
1968+1017579638+1016884436+1015746766+1013962872+1012077811+1010625459
1959+1009810005+1009421456+1008989919+1008403852+1008113567+1008529107
1951+1009608658+1011040011+1012375507+1013139204+1013318439+1013577164
1942+1014530904+1015990050+1017463462+1018801491+1019798589+1019945770
1934+1019118952+1017955032+1017064475+1016365814+1015481372+1014221040
1925+1012379336+1009745340+1006816796+1004853605+1004749596+1006208124
1917+1008059648+1009512617+1010722303+1011992331+1013177188+1013993815
1908+1014481185+1014871279+1015310412+1015854666+1016389284+1016587728
1900+1016368717+1016236174+1016685560+1017407382+1017568644+1016878569
1891+1015913773+1015473342+1015730090+1016105361+1016179167+1016206775
1883+1016617498+1017433013+1018322953+1018937925+1019100361+1018938543
1874+1018854978+1019165768+1019773328+1020246616+1020276757+1020089739
1866+1020061946+1020197762+1020330058+1020424926+1020543201+1020716878
1857+1021033412+1021655981+1022510469+1023136558+1023175407+1022830771
1849+1022527639+1022377679+1022286085+1022196467+1021895188+1021162250
1840+1020220553+1019486564+1019055089+1018615276+1017921927+1017159034
1832+1016767149+1016998142+1017611014+1018315727+1019190102+1020153540
1823+1020727131+1020680129+1020246061+1019658079+1018931996+1017998946
1815+1016858187+1015618670+1014433875+1013382734+1012431155+1011574691
1806+1010915868+1010526021+1010302872+1010055450+1009776777+1009721561
1798+1010096276+1010852561+1011837862+1012967812+1014146740+1015063979
1789+1015464140+1015491809+1015455678+1015430664+1015225427+1014816681
1781+1014490388+1014459074+1014641954+1014901172+1015311647+1016130066
1772+1017324249+1018334812+1018945090+1019437462+1019876534+1020195971
1764+1020540916+1020978320+1021235253+1021218762+1021256438+1021594836
1755+1022198999+1023011859+1024098946+1025480950+1026896985+1028022673
1747+1028879261+1029589471+1030144409+1030646294+1031298385+1031940285
1738+1032218959+1032277325+1032600591+1033371885+1034099512+1034350825
1730+1034237243+1034030585+1033977777+1034245581+1034871361+1035616282
1721+1036099143+1036207352+1036098711+1035680330+1034888408+1033880192
1713+1032543522+1030732144+1028697740+1026801252+1025127481+1023613182
1704+1022214378+1020882896+1019615895+1018316839+1016830888+1015412444
1696+1014163169+1012544922+1010155753+1006795426+1002208923+996736124+990773978
1686+982656065+969178069+951350925+932568063+912298016+889624347+863888170
1676+834451045+804611042+779976961+760604512+743062526+727115193+714790432
1666+705480127+697699932+691326941+687005276+684847223+684385608+685110394
1656+687452315+695202863+712478034+728073566+733873152+736439519+741126387
1646+747576149+751643845+752914058+753440030+754369622+756227137+760424535
1636+769195281+780407880+788530734+793672855+798787677+805528713+813445774
1626+821311819+829384831+838478163+847077332+852882415+855991491+857604426
1616+857958018+856714424+854388377+851633695+848727325+846058185+844252241
1606+843457046+842809895+841156630+838774378+838188372+842128590+850795081
1596+861915344+872855816+882248760+890157359+897265698+904047312+910564335
1587+916760561+922596834+927995333+932784171+936565782+938873980+939282232
1577+936423851+928068892+913671187+891627622+857263372+812933081+777415412
1567+764697036+769989056+782487432+794362931+804723697+819527307+840051879
1557+853930529+861084017+867166785+873508895+879826424+885778688+890707666
1547+894316897+897184480+899913098+902711816+906401400+911485218+915465272
1537+917368245+918911511+921659522+925437613+928477391+930336945+932069267
1527+934410138+937094965+939626621+942094415+944556279+946527746+947851261
1517+948740521+948955641+948011103+945941741+943345543+940876762+938171367
1507+931961923+919567061+905997287+895354388+889361546+890362659+899887466
1497+915650190+931067660+941205587+946028085+945474506+935861933+914968267
1487+891571171+877533234+876339916+885066378+898397686+911293691+921387643
1477+929018495+935246220+940833466+946275940+951190650+954508917+956202884
1468+957084177+957826689+958530414+958843613+958640537+958145324+957796240
1458+958369769+960022109+961692112+963139585+964664384+966187145+967236309
1448+967046759+964943490+960764374+954321282+945166433+933164877+917673909
1438+896415410+869706532+845775744+831703096+828052484+833901419+845844671
1428+857248364+863993970+866385301+866542364+867052030+870745259+879892387
1418+892875662+904602992+913437106+920726163+927191552+932761875+937461033
1408+941543491+945273036+948653559+951327578+953234195+955004810+957283239
1398+960017600+962732877+965231181+967429133+969120939+970269603+970805395
1388+969781306+964611021+952162117+931808319+907549261+887682649+879994295
1378+885218808+897738925+911934048+924830176+934983173+942314414+947943102
1368+952725023+956620833+959533257+961763325+963166143+962252733+956685005
1358+944740023+927147824+909032618+898356923+899396143+908497814+917395729
1349+919888969+916047510+910853508+909065908+911842515+917832454+925531369
1339+933645638+940795914+946291318+950392737+953619780+956332154+958708909
1329+960752701+962340251+963332470+963633378+963276142+962534495+961891297
1319+961825705+962516028+963727628+965048796+966160649+966947198+967543209
1309+968244031+969262869+970578169+972030274+973492384+974965055+976555879
1299+978309571+980027194+981302533+981675272+980533896+976784587+969157873
1289+957861585+946122397+938774789+938040368+940567083+938929073+927529765
1279+909020883+894015432+892026054+903076957+919567988+934426814+945297555
1269+952807600+958054594+961920635+965024585+967650182+969876977+971746350
1259+973303390+974590650+975636108+976478676+977197286+977876491+978553225
1249+979168074+979570335+979694169+979720295+979914847+980378995+981056471
1239+981832334+982538283+983030038+983355219+983789164+984616353+985805781
1230+986965747+987754952+988249178+988738030+989274625+989595977+989406983
1220+988553359+986814428+983508144+977411047+967377993+953637877+938899735
1210+927623459+923126882+925104959+930114969+934249246+935393772+933770584
1200+930936785+927883604+923459784+914522093+898279967+875689121+852967462
1190+838575872+837479892+848203700+865101315+882632492+897673333+909368360
1180+918154053+925017564+931032764+936918077+942768123+948291444+953273106
1170+957711131+961669940+965160092+968150213+970451988+970929414+966933301
1160+956514354+942404155+931661941+929399324+934415758+942225228+949972627
1150+956902101+962574826+966711573+969619611+971692123+973099635+974092595
1140+975004090+976003226+977138920+978464164+979957155+981420130+982597143
1130+983335826+982982728+979330695+969893653+956149645+945059769+943398968
1120+950943167+961460873+969575451+974370280+977336128+979634753+981575587
1111+983085131+984101869+984806212+985463553+986097486+986535817+986731913
1101+986892682+987273388+987862728+988385241+988670585+988827709+989018248
1091+989333238+989861124+990591531+991315205+991822772+992113674+992345717
1081+992684177+993172844+993686093+994075322+994350104+994597217+994793561
1071+994853532+994807643+994787446+994842292+994918630+995005778+995128130
1061+995202245+995128994+995008063+995037400+995242144+995500065+995753725
1051+996020787+996279820+996468629+996510875+996307243+995819626+995227135
1041+994845997+994752550+994584988+993782381+991858532+988475106+983749019
1031+978700777+974816578+972749131+971971290+972090801+973759570+977582994
1021+982753835+987567317+990805662+991922395+990177782+984013301+971356195
1011+951589823+928495364+910238227+904132298+910922929+925000024+939694005
1001+951412564+959719286+965564700+969981232+973545871+976419013+978744999
992+980813619+982759270+984373934+985411796+985956976+986377148+986948701
982+987477946+987215022+985416366+982434583+980105015+980338725+983166843
972+986742290+989355719+990784231+991620375+992192051+992539343+992790965
962+993062906+993232260+993136651+992853530+992495245+991874590+990608948
952+988065063+982723757+972803791+959278176+947625394+944238633+950554803
942+961910259+972135332+978080493+979872231+978546802+974346316+966534993
932+954432084+939575729+927153939+923501041+930679296+944276370+957385147
922+965938612+969896617+970970425+970575822+969325497+967289178+964374099
912+960531775+955716256+949810376+942661706+934148387+924246641+913060848
902+900724043+887317260+873029616+858369852+844088261+830913644+819445471
892+810197979+803579171+799802131+798874022+800668415+804948020+811301926
882+819133137+827743732+836451171+844796371+852774207+860694973+868680900
873+876481229+883828466+890700316+897127597+902870485+907332474+909866415
863+910172079+908206479+903940833+897796982+891140314+885851197+883803329
853+886777886+895382181+907414557+918825167+927107369+932725867+937168401
843+941077738+944539726+947825382+951174160+954417879+957211718+959392561
833+960967079+962022976+962867026+964007846+965680443+967504051+968899890
823+969757527+970445379+971308823+972480030+974049546+976007240+978008601
813+979559156+980526978+981268934+982243366+983614005+985198220+986684541
803+987867669+988734448+989433108+990181858+991105706+992139120+993140357
793+994034867+994830866+995604259+996411066+996962422+996163768+992030665
783+982891010+969926387+958357540+954283297+959430854+969911873+980321247
773+987854637+992377031+994307611+993499198+989226882+980288759+965712931
764+946314665+924801333+902500464+875998738+839223764+790158924+735322292
754+687975878+661939411+664675873+693260671+736386835+781507504+821010416
744+852969007+878343747+898514789+914522772+927184635+937110097+944576228
734+948830633+946078052+929575966+897134947+860116009+838630532+842925701
724+862915221+879800422+885169707+885999428+893136857+909061708+927882616
714+943234926+953362600+960021306+965228093+969840969+973739559+976259974
704+976522960+973208708+963991232+946403727+920628764+891366118+865881873
694+849586568+843619605+846259346+855216368+868320761+883381057+898460252
684+912417897+924997738+936335221+946523361+955661843+963884506+971019403
674+976549085+980300124+982917198+985387708+988205141+990707459+992205454
664+993120778+993987680+995052841+996380061+997740571+998737546+999403781
654+1000280380+1001613900+1003050070+1004314971+1005489082+1006483339
646+1006951686+1006912219+1006960086+1007597971+1008584508+1009324117
637+1009812537+1010646582+1012161808+1014159278+1016329683+1018337529
629+1019804333+1020776912+1021850657+1023403003+1025146751+1026792482
620+1028553524+1030554699+1032329823+1033453473+1034179742+1034968329
612+1035828314+1036207352+1035276525+1031019897+1019229692+991617410+941297675
602+876078288+822754227+808269745+834791173+880132520+920178019+942362033
592+940703517+908946768+845592061+764178353+693318914+660820332+673225569
582+713864546+760597100+800476333+830883257+853948996+872271787+887717544
572+901377802+913402210+923407409+931060001+934886390+931794670+921613262
562+911525178+911171524+922431557+937927157+950004064+957273851+962037984
552+965791802+969061399+972634684+976821274+980605355+982662982+982849259
543+982378317+982785705+984688801+987363376+989682506+991371594+992974462
533+994832718+996700919+998326762+999861443+1001546208+1003376857+1005272356
523+1007240118+1009141300+1010672893+1011864605+1013245992+1015020745
514+1016533994+1017151931+1017229320+1017772647+1019287502+1021282934
506+1022894201+1023705332+1023894449+1023933669+1024344823+1025560932
497+1027666610+1030123472+1032202530+1033797060+1035197222+1036207352
489+1036281467+1034446927+1029934848+1022207152+1009531208+987153630+952245435
479+913827694+891112459+893380758+905268856+899905377+868846794+833140625
469+817446952+828300462+856776373+889451720+917032626+935568128+943550843
459+939072362+919806886+889039700+858519627+842120623+848458842+873808692
449+905083877+932224600+952868992+969094936+983126759+994571153+1001770901
439+1005443007+1008470988+1012543687+1016414422+1018104931+1017843489
431+1017348831+1017395647+1017174227+1014998140+1008764485+996879598+978140465
421+949820381+914026200+890530159+893990851+914471695+940232946+965391455
411+986415626+1001512856+1011087815+1017368039+1022964487+1028759132+1033626533
401+1036207352+1038658222+1037650254+1035212601+1035834490+1040877852
392+1047459540+1052492959+1056017019+1060314350+1066288539+1071709457
384+1073741823+1073046868+1072251487+1072160573+1071365933+1066302003
375+1053169632+1036207352
##END=
