##TITLE=X9362
##JCAMP-DX=5.0
##DATA TYPE=LINK
##BLOCKS=1


$$ === CHEMSPECTRA SPECTRUM ORIG ===
##TITLE=X9362
##JCAMP-DX=5.00
##DATA TYPE=INFRARED SPECTRUM
##DATA CLASS=XYDATA
##ORIGIN=ComPlat
##OWNER=
##XUNITS=1/CM
##YUNITS=TRANSMITTANCE
##XFACTOR=1
##YFACTOR=8.3566637e-010
##FIRSTX=3997.453
##LASTX=373.96442
##MAXX=3997.453
##MAXY=0.8972899307079262
##MINX=373.96442
##MINY=0.4200874568723864
##NPOINTS=2559
##XYDATA= (X++(Y..Y))
2559A004596440A003894237A003165928A002663081A002583196A003001736A003734538
2552A004401578A004717765A004665555A004379751A003949014A003377909A002690469
2545A002029849A001631280A001598827A001751250A001910878A002210375A002825989
2538A003594882A004118129A004075547A003485397A002874063A002846245A003248951
2531A003317353A002725562A001798611A000685998I99086230I97074127I95670719
2524I95758092I96536116I96458513I95579065I95524358I96977623I98776034I99771173
2516I99692215I98473255I96216504I93932364I93285795I94724295I96660437I97199375
2508I96107518I94916162I94710102I94689488I93830725I92822462I93529230I96377986
2500I99565540A001353823A001595332A000800976I98696577I94505111I88544835
2493I83009660I80224313I80368820I82542833I86183591I90134189I92560839I92485233
2485I90982896I90687250I92357132I93537932I92326747I89732981I88058463I87361324
2477I86625027I86973454I89360303I91474189I90689889I87065179I82757879I79702850
2469I79112414I81054475I83137334I83097605I81832498I82417656I85667548I88968153
2461I89808230I87378014I81681430I73844997I69448398I73588509I81659319I88394194
2453I92100858I92466402I89772353I84996443I79593222I74939493I72420548I73137445
2445I76317295I79939723I82999746I85537093I87470452I88274295I87755114I86430807
2437I84456221I80960967I76158809I73470037I74979650I78280112I81961812I86671104
2429I91584245I94626864I94688989I91921473I87968664I85385240I84253941I82058244
2421I78465560I76958658I79280743I83112298I86877806I90398880I93189862I94822582
2413I95580349I95800960I95323504I94158752I93131731I92789866I92183382I90355870
2405I88608029I89350603I92339158I94886205I94949329I92289016I88410457I85836662
2397I85739373I87079088I88786059I90241392I90305157I88190345I85066414I83287689
2389I83061871I82049329I78096305I71033687I64326772I62828571I65125907I66754990
2381I67031378I68636210I72668833I76439619I77537681I75065954I69750749I65171912
2373I65970619I72326754I79982162I85038240I85922324I83325135I79935158I78665058
2365I80103915I82913228I85785878I87939135I88714519I87415603I83509869I77623130
2357I73319611I74868452I81068312I87445631I91304718I92045794I90645667I89566221
2349I90626195I92769823I94001978I93530514I91183464I86434302I79343581I72776821
2341I71663923I76434198I82527426I87011399I89240119I88930993I85823966I79888083
2333I71741882I64884968I64566070I68586211I70741037I70701665I73312050I80040578
2325I86968033I91384247I93297064I93668458I92977453I90950728I87587213I84133400
2317I81566666I78360782I72098226I62913663I56731492I60141083I69525430I78102012
2309I83476132I86155917I87482079I88303610I88520227I87738781I85985091I83496674
2301I79907912I74638141I69842545I70847099I77300594I83327132I85559561I83473564
2293I78372979I73594571I72203575I73147359I73849063I74203909I75216951I76185628
2285I75984560I75980280I78322266I81952682I83935470I83265792I81604041I80933435
2277I81205829I81315742I81262604I81916163I83003954I82709878I79607915I75098264
2269I73646997I77073849I81995050I85286597I86521391I86642644I86522389I86538794
2261I86807265I87201198I87003340I84832964I79451854I71697945I66267549I67677091
2253I73724314I79401427I82632987I84242600I85622684I86813898I86804768I85311489
2245I83517144I82606882I82067089I80619245I78369483I77141608I78371124I81277012
2237I83877768I84869269I84379403I83568142I83438044I83893102I84109720I83528128
2229I82287841I80983363I80065185I79563265I79566189I80451772I82191410I83948951
2221I84873905I84954789I84808713I84708714I84181973I82878207I81508179I81140423
2213I81572729I81525012I80531086I79726744I80420459I82288770I83836399I84238035
2205I84056511I84224055I84717202I84688458I83692321I82299469I81475797I81484071
2197I81623585I81235215I80674808I80835790I81794481I82696896I83000745I83044468
2189I83250100I83392039I83070573I82418797I81878931I81577651I81290065I80863465
2181I80421672I80231232I80488504I81161963I81924223I82336629I82251110I81826578
2173I81070738I79860123I78601435I78125906I78567770I79241229I79738370I80173601
2165I80587219I80964462I81467238I82038202I82252963I81919872I81353188I80962465
2157I80954619I81310464I81686209I81492915I80429874I79013057I78238671I78472193
2149I79058634I79275822I79127963I78925683I78684459I78369056I78228401I78374976
2141I78365632I77676981I76523213I75748471I75826930I76390262I76815079I76819287
2133I76418863I75846758I75572368I75879497I76443114I76743039I76760300I76881198
2125I77286685I77813284I78280041I78598868I78695300I78638739I78696014I78961560
2117I79094083I78701720I77876265I77155660I77010654I77439037I78045093I78478755
2109I78734387I79007422I79391441I79796786I80083587I80190576I80121247I79860694
2101I79432810I79047864I78987736I79238803I79388017I78996723I78074052I77111652
2093I76590259I76500460I76501530I76469790I76608019I77042537I77592531I77952726
2085I77960501I77738392I77646738I77967134I78558854I78984883I79001146I78714130
2077I78269413I77675269I77006089I76492257I76294328I76341047I76444255I76494968
2069I76504526I76466937I76292759I75992477I75764520I75698971I75626861I75504537
2061I75649328I76260591I76957445I77153877I76780913I76354813I76343686I76690401
2053I77005162I77024206I76751812I76310519I75809455I75348190I75091417I75170090
2045I75406321I75399260I75106895I74979935I75266166I75651325I75836131I75930708
2037I76072219I76154387I76098824I76029709I76085700I76249607I76359948I76267224
2029I76060094I75996471I76053389I75828642I75159676I74482793I74231441I74236576
2021I74090501I73770176I73515472I73397713I73337656I73335659I73464331I73752060
2013I74128375I74418528I74461039I74256619I73943784I73722245I73812473I74244636
2005I74681507I74765387I74597271I74557186I74772590I75043557I75153185I75032145
1997I74717884I74257974I73654914I72989729I72554070I72654212I73254633I73960331
1989I74321811I74134723I73565828I73053708I72970043I73293648I73645285I73647425
1981I73293648I72977104I73067117I73494217I73937507I74277446I74565603I74685644
1973I74442209I73916395I73372392I72890657I72402503I71965132I71720698I71642026
1965I71551370I71398234I71381544I71711997I72298081I72804139I73087302I73357128
1957I73712973I73740505I72927104I71434396I70113798I69663517I69979562I70431483
1949I70622636I70669783I70760581I70753947I70434835I69928422I69558454I69404248
1941I69280782I69083923I68894410I68797407I68833355I69064451I69473220I69836126
1933I69913229I69707169I69314519I68626225I67512614I66250858I65344663I64879690
1925I64449381I63820358I63260664I63045046I63013092I62829499I62380073I61681081
1917I60655343I59229753I57472069I55459537I53190161I50815152I48794133I47581379
1909I47214479I47415333I48003343I48934431I49930925I50421362I50028214I48937712
1901I47639510I46396228I45074060I43403822I41288796I38923628I36736920I35116396
1893I34042371I33158358I32378623I32159367I32926120I34501496I36370305I38214579
1885I39943233I41444785I42520237I42970089I42733573I41952198I40796504I39312712
1877I37597396I35950624I34624674I33626612I32949372I32734397I32994808I33410352
1869I33612561I33521050I33316701I33297586I33813486I35085654I37027573I39391312
1861I41927234I44215725I45666351I46006361I45557151I44831338I44062374I43123797
1853I41662258I39408217I36525582I33471336I30422225I27088240I23094988I18294970
1845I12737042I06560293H99944389H93052596H85998110H78884494H71933001H65597265
1837H60456310H56924680H55161504H55244884H57198072H60729488H65141422H69684667
1829H73960868H77901552H81441955H84381864H86558232H88025691H89006350H89706913
1821H90178306H90275523H89702847H88151795H85498400H81851793H77320032H71814172
1813H65272233H58005837H50628173H43732672H37814834H33290489H30296943H28533910
1805H27449614H26584217H25803483H25337226H25615397H27043555H29898303H34245758
1797H39807822H45984929H52133007H57803343H62689666H66444760H68791381H69928744
1789H70587724H71426374H72531925H73649244H74539035H74943810H74678977H74023064
1781H73626848H73830484H74390820H74984965H75648153H76589441H77871951H79420864
1773H81089747H82577677H83548779H83995564H84249769H84612390H85287704H86615221
1765H88892728H91940198H95206923H98269158I00925476I02963828I04241132I04940839
1757I05480134I06187044I07167704I08344011I09505981I10441919I11118730I11692262
1749I12351241I13168494I14050652I14831314I15433732I15863685I16054410I15946209
1741I15739435I15806196I16309044I17101901I17951322I18690330I19277912I19870702
1733I20734173I21979737I23454328I24880988I26026625I26804149I27342802I27912553
1725I28675027I29536786I30306107I30927427I31480060I32006587I32453159I32756294
1717I32931541I33082324I33316915I33608709I33797794I33809492I33770120I33819477
1709I33942301I34094011I34350142I34793432I35342000I35805618I36085501I36253759
1701I36448906I36750686I37137129I37511233I37784983I37977919I38197674I38502664
1693I38859222I39205794I39453153I39506932I39437033I39512852I39899439I40409561
1685I40687590I40592298I40340161I40278821I40503926I40742867I40700642I40446722
1677I40305782I40424041I40639587I40770399I40816690I40825605I40793937I40801141
1669I40970682I41207555I41268254I41121608I40926245I40707918I40422115I40205284
1661I40221760I40424683I40708631I41084875I41529592I41872455I41965964I41819603
1653I41504984I41062479I40588875I40308279I40392087I40729886I41027030I41115046
1645I41030952I40872110I40732739I40714694I40845220I41018114I41097999I41060767
1637I41000996I40999427I41013050I40930740I40727604I40507635I40410417I40506065
1629I40746576I40984448I41078170I41017543I40930098I40959555I41137014I41347354
1621I41410834I41223746I40859913I40551429I40501429I40677319I40855990I40919755
1613I40983735I41151493I41310692I41324958I41291863I41405056I41634084I41758762
1605I41711330I41678734I41817606I42058045I42283221I42532220I42893414I43314950
1597I43643120I43780779I43708598I43429499I43019804I42704900I42731504I43083712
1589I43403679I43309529I42807752I42318242I42257900I42664601I43233995I43621081
1581I43672435I43488058I43329144I43401968I43706743I44102317I44455237I44695035
1573I44823707I44874491I44787259I44411086I43739482I43016879I42492919I42204263
1565I42113680I42286074I42742417I43251113I43476575I43334351I43056893I42908036
1557I42961316I43157962I43448757I43817298I44207380I44466649I44431628
1550I44122074I43797042I43722150I43923075I44215582I44389903I44359018
1543I44258519I44353740I44663865I44850810I44736475I44616719I44694535
1536I44623352I44103244I43500112I43352824I43627999I43909523I44028780
1529I44099749I44097324I43759881I42982357I42110113I41660903I41777592
1522I42104978I42216460I42052981I41914466I42099628I42634002I43337489
1515I43999821I44412228I44387049I43897683I43164096I42528154I42212964
1508I42150769I42070955I41829446I41573671I41494214I41519963I41433445
1501I41291791I41505341I42305047I43276861I43738769I43538913I43159531
1494I43068804I43274294I43545047I43798112I44082773I44330274I44409374
1487I44393112I44441541I44465437I44241830I43744617I43051972I42175733
1480I41276171I40760128I40898286I41463615I41870387I41694426I41097357
1473I40652212I40743866I41310193I42031369I42527156I42597768I42456258
1466I42380652I42180084I41552273I40782881I40431102I40561058I40859200
1459I41180379I41479378I41533443I41175887I40606706I40186953I40051791
1452I40077825I40111990I40093516I40023760I39933105I39884817I39951364
1445I40103431I40106926I39726545I39131829I38796883I38855513I38999306
1438I39123342I39492596I40123331I40601428I40646435I40346295I39820196
1431I39119419I38468927I38209015I38373350I38557157I38384120I37994610
1424I37842971I38090472I38450810I38571707I38347031I37961372I37864653
1417I38573918I40216696I42283150I44090191I45521202I47028889I48885502
1410I50864296I52741237I54555339I56262239I57687473I58882752I60036448
1403I60981374I61068748I59655353I56769295I53130034I49546621I46657780
1396I44974561I44693537I45553085I46956422I48282655I49196697I49661955
1389I49777218I49665450I49426937I49208179I49126940I48978439I48361685
1382I47271611I46199012I45530903I45228124I45030980I44693180I44115512
1375I43410955I42751904I42181225I41640575I41064975I40428677I39864774
1368I39672836I39988239I40501643I40684951I40267980I39443452I38682619
1361I38319642I38228131I38009517I37551604I37165161I37099898I37254461
1354I37465657I37737266I38052954I38251953I38234978I38158872I38304378
1347I38689893I38906654I38613647I38094394I37890759I38046677I38228344
1340I38298030I38253737I37997962I37585270I37256101I37045405I36778717
1333I36418307I36124587I36134787I36594696I37259882I37635341I37690119
1326I37921643I38478128I38879051I38792461I38447101I38060943I37470364
1319I36709888I36469519I37378354I39074198I40599930I41596567I42485145
1312I43535775I44438761I44960938I45453585I46221765I46724185I46185175
1305I44981408I44485337I45308081I46517839I46860061I46124119I45130123
1298I44810083I45381190I46155147I46134391I45037469I43733918I43288773
1291I43651466I43888196I43587700I43186207I43056679I43286634I44052602
1284I45177126I45656650I44744107I43316591I43036280I44177423I45350948
1277I45524483I45188824I45164145I45362360I45200450I44566363I44111161
1270I44652096I46174690I47679167I48308903I48358618I48904902I50576853
1263I52456718I52309571I49204757I45565424I44125854I44411086I44401885
1256I43443551I42293207I41614755I41217398I40486451I39418488I38860790
1249I39209503I39518416I38801234I37629920I37430636I38603590I40291089
1242I41671102I42520166I42630293I41690860I40072975I38950590I39046452
1235I39754576I40000721I39490028I38623204I37667295I36566380I35366465
1228I34434949I34158347I34512123I35071532I35511969I35878870I36237639
1221I36376439I36140636I35839997I36019025I36823296I37717580I37941543
1214I37300181I36480004I36476438I37572218I38982544I39728970I39678970
1207I39427689I39418631I39571411I39596588I39376905I39105439I39060718
1200I39258932I39511996I39659998I39384608I38239115I36567878I35816530
1193I36969799I39146023I40620686I40848073I40711412I41016901I41606338
1186I41917319I41538936I40270904I38586543I37782986I38622206I40415054
1179I42278442I44226352I46340237I48060975I48815959I48439715I47050073
1172I45274914I44075284I43809025I44186481I45127056I46511348I47178245
1165I45646237I42236003I39173484I37972213I37749320I37046903I36366453
1158I37283776I39874403I42639708I44439902I45082834I44466363I42837495
1151I41521461I41680303I42605757I42643701I41693927I41347283I42425017
1144I43781849I43798896I42206189I40172759I39289174I40408777I42755541
1137I44574066I44978769I44358020I43250115I42190854I42238215I43877283
1130I45727620I45768989I43562094I40409633I37765796I36226013I35842422
1123I36466595I37462304I37890830I37378140I36309820I35242144I34646216
1116I34725530I35025669I34791007I33897579I32855223I31826704I30445834
1109I28902699I28340651I29363036I31082347I32383259I33055007I33570193
1102I34379528I35411543I36111677I36069738I35338933I34029604I32380192
1095I31349105I31826917I33108216I33721547I33472477I33405859I33997364
1088I34589012I34422823I33475401I32526624I32423202I33236103I34306633
1081I34870678I34564120I33633032I32588250I31639687I30811451I30325793
1074I30162956I29648411I28402562I27318622I27593369I29008618I30476005
1067I31510516I32160366I32382118I32207940I31994034I31992322I32016430
1060I31603810I30174725I27350148I23952468I22537505I24888692I29372736
1053I33133465I34865186I35048209I34844074I34990791I35610470I36484712
1046I37153535I37076788I35970666I33995082I31615365I29240855I27282460
1039I26759570I28454487I31135912I32973766I33535600I33534317I33621762
1032I33525330I32307797I29616599I26862208I26005727I26633252I27108924
1025I27462273I28653271I30405464I31572498I31653952I31127852I30579927
1018I29775870I28149212I26107437I25051814I25698811I27220620I28218184
1011I27690801I25586830I23113104I21973175I22646848I23940414I24301252
1004I22966816I20755927I20321553I23280293I27481317I30074084I30302826
997I29197417I27949428I26937457I26491242I26861851I27083746I25584405
990I21725032I16545774I13014430I13438105I16394492I19416285I21305921
983I21323253I19150024I16040716I14090595I13414283I12797956I12010518
976I10940701I08473324I03637572H97374588H93004808H92668078H94639740
969H96499848H97553545H98033283H98227931H98562307H98767583H97498553
962H94225123H91251190H91337351H92807164H92694825H89251854H80852660
955H65485854H42145243H12800061G79322044G38185552F83552490F22040190
948E73629135E43407251E23774088E10733968E03619960E02697574E10023206
941E26616460E47773929E69602432E95668121F28147682F58716817F83875953
934G08328964G30069379G44515296G52886744G58310435G62005260G63533417
927G63191552G64689681G71854152G81326372G89184631G94714883G98309280
920H01211316H04675115H07928788H10006725H13077947H20247981H29462145
913H36462139H40418372H43441377H48009158H53602748H57485372H57839505
906H54163084H47642685H44840220H50103072H54998096H55571556H55277908
899H59594835H67652592H74262291H77587147H77774163H75090242H70642859
892H68576976H73369647H81304010H86653024H88346800H87739602H86621569
885H85737199H84986352H85206535H87254943H89499069H89594004H87661643
878H87014503H89544433H92346684H92709091H90354124H86396536H81919624
871H76722178H69614054H59809170H47631273H34080781H20359820H08259812
864H00508899G99530878H04998864H13376160H20677720H24949927H26227017
857H25373032H23431398H21477354H20321090H19970666H19756261H19895632
850H23040105H30663558H38017257H40722077H39053765H36380470H36084468
843H37626675H38880585H38836934H36500227H30215774H21076574H19332014
836H28103672H37484239H44185520H48556227H51374741H53816226H55942237
829H56088598H52998404H47365442H41151958H37908199H43797721H56398794
822H65964380H70045789H71551051H74430477H78863167H81543095H81000804
815H78605467H76255992H73934477H71346489H70472675H72400970H75043452
808H77923877H82457992H87604297H90176451H88163635H81458787H72150260
801H68240673H77686932H90499986H97429866H98344834H94558001H86870710
794H75662703H61106017H42951582H20137640G93379948G71609932G70978413
787G93246069H21920573H44834015H60085558H70078671H76751279H80195820
780H80022284H76698854H71916311H68940524H70642859H74826265H76747213
773H73864720H65901042H54805801H43370122H31652848H17540165H00109973
766G84223202G79786304G84702726G89634340G91333038G89818646G86009487
759G81440066G76614085G69567444G58362290G44863581G34387020G31505168
752G38145181G52563139G67624527G77797667G83706802G87811750G91299586
745G93095286G91054439G84335612G74669884G64741248G55693561G48870455
738G47542866G51635332G56781352G60225465G62059681G63587624G65685604
731G68277943G71520062G76578064G83861936G91674903G98439236H04329327
724H10206865H16553515H23823833H31981232H39321879H43794511H44866468
717H43752429H42549803H41909582H40095408H35164150H26539781H14897613
710H01530357G88077653G76947605G70958014G70450601G71966062G71776763
703G68570451G62821156G55247631G46801362G39862352G37128145G38535619
696G41987649G46149087G51004525G56954460G63948034G71531474G79397506
689G87377803G95102896H01956457H07137142H09914144H10432969H10443311
682H12369110H16810644H22157233H26814528H30432177H33471373H36442595
675H39566313H42830399H46071376H48939247H50979453H51996203H52416384
668H53062240H54292826H55657219H56730459H57811688H59412883H61505371
661H63718756H65918161H68188392H70461049H72441270H73862723H74705795
654H75164492H75417913H75428326H74926335H73540188H70888933H66540122
647H59856459H49915413H35733402H16866992G94187000G70457591G50179927
640G38213012G37496758G47286664G63451749G80786435G95438270H05878240
633H12428311H16183761H18191014H19276095H20232504H21878205H24815834
626H29075558H34039769H38865892H42923337H45753762H46894477H46084357
619H43594441H40188916H36846015H34561446H34097828H35626271H38648634
612H42367779H46103901H49443735H52231294H54525491H56486311H58228160
605H59804462H61302235H62852859H64505337H66046690H66909163H66426358
598H64496279H61973696H60038554H59103971H58640923H58028234H57157701
591H56171193H55063930H53833844H52783927H52343988H52592631H53144550
584H53579852H53853030H54202384H54798740H55641313H56707635H57991786
577H59368232H60553455H61290109H61558651H61572845H61575841H61694741
570H61980900H62483677H63221543H64135013H65071094H65747763H65778933
563H64873950H63074612H60755094H58371026H56219481H54437546H53082211
556H52009898H50783877H49062641H47076857H45316463H43774611H42028054
549H40174294H39223806H40303180H43649220H48466285H53577070H58065109
542H61455371H63639727H64779586H65139924H64901767H64137367H62849578
535H60920926H58140144H54382197H49646301H43836879H36567273H27186350
528H14980850G99507341G80982154G60572964G40493729G23847194G13976975
521G13140465G21171261G35483085G52641954G69986341G86009630G99940218
514H11493157H20813952H28251459H34117585H38669746H42120207H44500709
507H45552980H44883586H42366852H38478379H34207599H30562133H28096539
500H26814243H26367172H26315318H26363249H26474517H26683074H26781504
493H26354833H25171465H23448160H21787265H20932710H21366871H22881975
486H24561700H25345571H24713410H22975341H21055890H19997342H20488635
479H22640466H26035934H29959144H33687562H36761993H39146774H41158663
472H43165702H45288503H47334558H48903513H49492522H48586113H45787071
465H41049249H35044608H29379549H26120028H26619808H30585100H36302155
458H41836829H46062817H48782330H50304353H51131591H51808401H52749904
451H54129061H55895589H57846709H59705034H61151523H61802657H61380265
444H60184415H59245624H59538916H60937902H62241169H62265918H60588619
437H57255346H52320950H45866171H38065616H29134688H19542640H10272058
430H02592542G97615636G96037764G97830398H01974288H06904477H11486524
423H15444326H18982089H22370283H25871813H29715637H33915590H38118611
416H41740112H44375888H46072446H47129638H47724639H47852169H47547037
409H46989483H46401758H45956042H45810109H46155327H47204388H49134680
402H52010897H55715848H59931565H64195426H68063215H71334149H74070923
395H76276819H77649415H77813607H76653206H74234260H70625027H66088487
388H61365073H57549566H55656791H56211777H58965741H62859136H66442263
381H68592739H69008925H68194812H67127277H66826139H67911291H70346999
374H73623068H77215896H80865142H84478012H87957289H91244414H94413138
367H97544130I00552299I03255836I05498536I07085465I07828966I07822904
360I07428043I06852800I05998102I04797759I03438786I02110770I00726620
353H99129990H97606184H96928730H97654400H99501740I01571546I02903985
346I02655058I00098738H94760423H86426350H75129614H61583900H47647963
339H35842031H28117010H25135231H26521592H31323536H38203132H45699840
332H52724298H58875871H64275383H69122546H73485267H77481013H81320201
325H84898835H87651515H89160485H89642149H89570324H89115764H88043593
318H85763233H81507360H74999301H67106807H59583851H54013157H50923890
311H49854786H50208420H51925377H55288892H60291475H66405388H72925144
304H79383703H85589127H91390846H96625595I01276114I05416368I08990794
297I11882630I14141450I15933156I17319375I18200535I18389620I17679143
290I15844641I12539256I07193310H99094327H87674981H72981206H56029326
283H38389150H20994906H03348810G84118709G62696693G40277326G19656656
276G04305970F97458114G01161639G15299143G37268087G62986632G88689843
269H12028315H31920534H47996462H60321432H69318194H75714629H80513149
262H84829720H89426103H94248161H98592548I01878319I04148693I05797748
255I07146520I08468260I10088713I12130773I14353074I16455904I18354456
248I20043096I21411555I22233585I22143786I20635957I17120162I10854896
241I00775763H85333780H62454504H30217058G88369804G39366851F88068346
234F40780567F04087534E83774208E83984441F05737161F45097424F93262511
227G39918557G77977194H05689869H24858201H37950139H46833065H53150898
220H58786284H65403330H73513726H82194942H89891503H95641013H99668215
213I02836725I05838475I09206412I13568988I18675066I22239506I23296912
206I23606894I24277358I25221498I26242386I27581957I29331225I30832349
199I31216653I30322583I28694142I26903078I25334479I24451250I24700178
192I26058722I27936019I29731220I31413156I33237530I35002132I36148054
185I36540988I36514455I36227154I35580227I34552351I33217772I31784051
178I30702964I30207677I29758253I28378311I25326419I20175477I12734832
171I03385006H93345104H84409825H78449192H76994286H80773488H89111698
164H99834904I10368525I19236829I26347092I32031480I36366739I39402369
157I41452845I42897480I43982917I44959297I46105575I47541579I49277866
150I51290825I53275467I54729874I55723158I57127779I59534528I62234498
143I63767149I63608663I62861524I62830569I63305100I62910739I61171956
136I59098513I57466933I55822872I53391729I49805534I44701383I37732202
129I29258330I20117917I10702614I01230395H92716723H86494324H82863907
122H81236037H81372626H83639648H88238670H94601081I01507995I07939735
115I13700513I18839971I22821026I24947892I25375705I25158659I25518000
108I27106499I29541993I31897744I33786810I35732509I38651022I42905753
101I47905769I52944087I57845388I62413241I66243940I69565729I73013623
94I76070222I77427055I77381121I78088816I80773380I84325837I86943567
87I87605972I86481234I84904433I84443382I85369477I86452561I86462761
80I85510988I85043090I86362548I88933204I90660004I89949312I87103196
73I83611152I80636577I78874043I79045510I81397909I85422615I90294245
66I94803895I97706288I98808557I98812838I98107282I96996025I96734473
59I98059280I99779732A001191984A002950952A004547867A004030041A001311883
52I99016901I99052564A000552262A002011304A003279550A004607068A005220542
45A003652442I99538150I94695194I91517270I90738890I91197373I91611277
38I91985952I92785230I93535222I92982303I90217712I86717465I87546843
31I94066029A001234851A004894368A005804843A008889474A017361705A028768996
24A037803776A040672218A036834600A028624847A019584434A013030441A011887016
17A016841668A024608344A032069531A038778658A044978589A049943014A052772797
10A053667794A053074220A050785800A047936474A047437835A051159334A058852259
3A068222555A073741822A072075793
##END=


$$ === CHEMSPECTRA PEAK TABLE EDIT ===
##TITLE=X9362
##JCAMP-DX=5.00
##DATA TYPE=INFRAREDPEAKTABLE
##DATA CLASS=PEAKTABLE
##$CSTHRESHOLD=0.93
##MAXX=3997.453
##MAXY=0.8972899307079262
##MINX=373.96442
##MINY=0.4200874568723864
##$CSSOLVENTNAME=- - -
##$CSSOLVENTVALUE=0
##$CSSOLVENTX=0
##NPOINTS=66
##PEAKTABLE= (XY..XY)
545.3647789444876, 0.7364193201529757
609.1087140891318, 0.7328746314923619
701.1832870758403, 0.487840473298985
762.0941584362781, 0.5828422903534262
813.0893065519936, 0.7101950640437469
849.9191357466766, 0.6895377632488815
869.7505822361218, 0.7495331759478101
906.5804114308053, 0.7243774529992455
919.329198459734, 0.7150436045008187
947.6598363017979, 0.7068150634973344
978.8235379280686, 0.6652219886247968
1000.0715163096165, 0.718042671546465
1026.9856222595777, 0.6903607249830583
1053.8997282095384, 0.6852442021987886
1065.231983346364, 0.6860258577799627
1077.980770375293, 0.6905239222684557
1110.5610038936666, 0.595947503686662
1148.8073649804533, 0.7013111115776043
1204.0521087724783, 0.7122752064432836
1243.7150017513682, 0.6970275041496444
1277.7117671618448, 0.6163012386446285
1361.2871487959342, 0.6159932011569836
1372.6194039327597, 0.6438396570019884
1417.9484244800624, 0.6246964332496164
1439.1964028616103, 0.6112942692144665
1456.194785566849, 0.6516411900393965
1473.1931682720874, 0.7261443734369779
1488.7750190852225, 0.6442807317400708
1507.1899336825645, 0.7255595323279334
1521.3552526035965, 0.7274247405014398
1541.1866990930412, 0.700211703887234
1558.1850817982795, 0.6846882099641692
1568.1008050430023, 0.6986876723869412
1579.4330601798279, 0.6850427389146426
1595.014910992963, 0.6681410665211729
1616.262889374511, 0.7412481898593641
1624.7620807271305, 0.7395533322753822
1636.094335863956, 0.7258405685994972
1647.4265910007816, 0.714726984719554
1653.0927185691944, 0.7060045598774014
1685.6729520875683, 0.6377735138745063
1708.3374623612194, 0.4200874568723864
1733.8350364190774, 0.7447886467054803
1748.0003553401093, 0.7459726923571369
1772.0813975058823, 0.7629754544757191
1797.5789715637397, 0.7721059318636773
1811.7442904847717, 0.7739168401077937
1828.74267319001, 0.773831844481301
1842.907992111042, 0.7758781908615022
1868.4055661688994, 0.7709335679922069
1892.4866083346537, 0.776875912996638
1942.0652245582655, 0.7757830619446069
2014.3083510555284, 0.7824899547682856
2044.0555207896955, 0.785873234469534
2106.382924042236, 0.7817758912257826
2134.7135618843, 0.7843594549242683
2236.70385811573, 0.7847527262033213
2347.193345699779, 0.7901669141842514
2837.313380367484, 0.7653084394348285
2895.391187943706, 0.7300605768027018
2925.1383576778735, 0.6897065636772897
2971.883910117279, 0.7146297098114205
3020.045994448796, 0.7801886198372736
3025.712122017209, 0.7796344150930197
3051.2096960750664, 0.7791574593480085
3076.707270132924, 0.7915552852773713
##END=


$$ === CHEMSPECTRA PEAK TABLE AUTO ===
##TITLE=X9362
##JCAMP-DX=5.00
##DATA TYPE=INFRAREDPEAKTABLE
##DATA CLASS=PEAKTABLE
##$CSTHRESHOLD=0.93
##MAXX=3997.453
##MAXY=0.8972899307079262
##MINX=373.96442
##MINY=0.4200874568723864
##NPOINTS=220
##PEAKTABLE= (XY..XY)
3949.290915668491, 0.8320485354620201
3942.208256207975, 0.8319262264964405
3930.8760010711494, 0.8300555346802142
3918.1272140422207, 0.8296683428740029
3902.545363229085, 0.8191404934304538
3891.2131080922595, 0.8278840180127826
3881.297384847537, 0.824489354864242
3869.9651297107116, 0.8182113168293172
3864.299002142299, 0.8204843995516923
3852.966747005473, 0.8101354236589753
3838.801428084441, 0.8126191494605708
3820.3865134870994, 0.8134961721235557
3800.555066997654, 0.8164114953709315
3779.3070886161063, 0.8261464829472848
3767.9748334792807, 0.823749243600986
3749.5599188819388, 0.8046034568598573
3735.394599960907, 0.8065617081269995
3724.0623448240813, 0.8178374764646995
3711.3135577951525, 0.8133704661741821
3701.39783455043, 0.8269472117776878
3688.649047521501, 0.8119868633933696
3674.483728600469, 0.806055426342066
3670.2341329241594, 0.811182736743506
3648.9861545426115, 0.7995083329843241
3629.1547080531664, 0.8104647990517116
3617.822452916341, 0.8124378324212728
3607.9067296716185, 0.8155938977791837
3599.4075383189993, 0.819733082838081
3595.1579426426897, 0.8200081583014275
3586.6587512900705, 0.8136440516443909
3578.159559937451, 0.824403583739358
3566.8273048006254, 0.8074772951216271
3545.5793264190775, 0.816564380533323
3535.663603174355, 0.8218261003493803
3525.7478799296323, 0.8185880778478981
3508.749497224394, 0.8199060557486746
3503.083369655981, 0.8187246917503993
3496.000710195465, 0.8223429324222351
3487.501518842846, 0.8201863165218469
3481.8353912744333, 0.819516956951807
3460.587412892885, 0.8191462754060679
3446.422093971853, 0.8173869252699812
3428.007179374511, 0.819750785594463
3419.507988021892, 0.8174811591881943
3408.1757328850663, 0.8174725768945744
3401.0930734245503, 0.8154001827936203
3391.177350179828, 0.8152530194388642
3375.595499366693, 0.8178154825615075
3365.6797761219705, 0.816454946679506
3345.8483296325253, 0.8181071276176384
3335.932606387803, 0.8160285947115302
3333.0995426035965, 0.8160029648239623
3323.183819358874, 0.8169865006868011
3309.018500437842, 0.8158563371313494
3293.4366496247067, 0.8151963353533207
3283.5209263799843, 0.8158975839520398
3272.1886712431588, 0.8148511048625463
3265.106011782643, 0.814757943104286
3253.7737566458172, 0.8156352039321864
3245.2745652931976, 0.8156074280533803
3238.1919058326816, 0.8141324518403392
3228.2761825879593, 0.8133838769480879
3216.9439274511337, 0.8137069338674007
3208.444736098514, 0.8144046659820349
3195.6959490695854, 0.812730729305626
3184.36369393276, 0.813078343952554
3177.281034472244, 0.8130842445927925
3153.1999923064895, 0.8117508887594753
3137.618141493354, 0.8103151913728234
3117.7866950039092, 0.8095914123731026
3076.707270132916, 0.7915552852773713
3049.7931641829555, 0.7789742344823878
3024.2955901250975, 0.7794547677151289
3015.7963987724784, 0.7799254058223829
2971.883910117279, 0.7146297098114205
2925.1383576778735, 0.6897065636772897
2895.391187943706, 0.7300605768027018
2838.7299122595778, 0.765252649512301
2796.2339554964815, 0.7803202865948644
2765.0702538702108, 0.7850559352106803
2755.1545306254884, 0.7857593891329498
2748.0718711649724, 0.7857819195339514
2739.5726798123533, 0.7861898542507987
2726.8238927834245, 0.7856979367350991
2709.825510078186, 0.7857840061928772
2698.4932549413606, 0.7861236335406409
2689.994063588741, 0.78636157533317
2682.911404128225, 0.7858693594845764
2674.412212775606, 0.7863036394194043
2663.07995763878, 0.7859454151522428
2651.7477025019543, 0.7866059542637474
2644.6650430414384, 0.7869292493479756
2627.6666603362, 0.787786781764213
2617.7509370914777, 0.787413238896823
2609.2517457388585, 0.7883084414816873
2589.420299249414, 0.7872927190929416
2579.504576004691, 0.7879565356879493
2565.339257083659, 0.7886368633790956
2558.2565976231426, 0.7890850889143061
2551.1739381626267, 0.78938442460804
2544.0912787021107, 0.7883282300613289
2531.342491673182, 0.7869143485809321
2524.259832212666, 0.7871262426527085
2503.011853831118, 0.7867750521893833
2498.7622581548085, 0.7866058940957688
2488.846534910086, 0.7880908840989215
2478.9308116653638, 0.7891975637580435
2467.5985565285378, 0.7861616012064954
2459.0993651759186, 0.7860714194345104
2443.517514362783, 0.7858866452434398
2430.7687273338543, 0.7855696677969687
2422.269535981235, 0.7854301332405044
2413.770344628616, 0.7845209833839247
2396.7719619233776, 0.7840297218663256
2389.6893024628616, 0.7837238312055853
2381.1901111102425, 0.7837419501238196
2348.6098775918686, 0.7894486188272507
2310.363516505082, 0.7852529878477253
2293.3651337998435, 0.7831028700890303
2283.449410555121, 0.7839878190475347
2274.950219202502, 0.7837637660300749
2259.3683683893664, 0.7822878354860392
2239.5369218999217, 0.782576083558376
2219.7054754104765, 0.7892746330890167
2211.2062840578574, 0.7895460124000088
2202.707092705238, 0.788274704794664
2195.6244332447222, 0.7880807516441852
2185.70871, 0.7880637048859036
2178.626050539484, 0.7898418901063037
2172.959922971071, 0.7889619467893556
2155.961540265833, 0.78897422523533
2143.2127532369036, 0.7845743883146323
2136.1300937763876, 0.7833792567129113
2124.797838639562, 0.7846494311546583
2110.6325197185297, 0.7806447148426904
2099.300264581704, 0.782050013193801
2089.384541336982, 0.7825818655339901
2080.8853499843626, 0.7850405572781395
2073.8026905238466, 0.7847414614206537
2063.8869672791243, 0.7820304026110961
2056.8043078186083, 0.7861208908836145
2046.8885845738857, 0.7836737037583809
2029.8902018686472, 0.7887094618949892
2014.308351055512, 0.7824899547682856
2002.9760959186863, 0.7867978215909666
1995.8934364581703, 0.7866522668939727
1987.3942451055511, 0.7849323744168785
1977.4785218608286, 0.78735721080938
1964.7297348318998, 0.7820520396847481
1954.8140115871772, 0.7810524105589559
1942.0652245582482, 0.7757830619446069
1923.6503099609067, 0.7782971257780988
1916.5676505003908, 0.7800158859272619
1908.0684591477716, 0.7791947125191168
1889.6535445504296, 0.7749289866801422
1876.9047575215009, 0.7788346405936112
1868.4055661688817, 0.7709335679922069
1859.9063748162625, 0.7812177538355914
1844.3245240031274, 0.774461805724661
1837.2418645426114, 0.7801232339578194
1828.7426731899918, 0.773831844481301
1810.3277585926503, 0.7730346914672952
1800.412035347928, 0.7704619763896248
1791.9128439953088, 0.7690817714282726
1780.5805888584828, 0.7742375730389316
1772.0813975058636, 0.7629754544757191
1748.0003553401093, 0.7459726923571369
1733.8350364190774, 0.7447886467054803
1708.3374623612194, 0.4200874568723864
1685.6729520875683, 0.6377735138745063
1653.0927185691944, 0.7060045598774014
1647.4265910007816, 0.714726984719554
1636.094335863956, 0.7258405685994972
1624.7620807271305, 0.7395533322753822
1616.262889374511, 0.7412481898593641
1595.014910992963, 0.6681410665211729
1579.4330601798279, 0.6850427389146426
1568.1008050430023, 0.6986876723869412
1558.1850817982795, 0.6846882099641692
1541.1866990930412, 0.7002117030515677
1521.3552526035965, 0.7274247405014398
1507.1899336825645, 0.725559531492267
1488.7750190852225, 0.6442807317400708
1473.1931682720874, 0.7261443734369779
1456.194785566849, 0.6516411900393965
1439.1964028616103, 0.6112942683788002
1417.9484244800624, 0.6246964332496164
1372.6194039327597, 0.6438396570019884
1361.2871487959342, 0.6159932011569836
1277.7117671618448, 0.6163012386446285
1243.7150017513682, 0.6970275041496444
1204.0521087724783, 0.7122752064432836
1148.8073649804533, 0.7013111115776043
1110.5610038936666, 0.595947503686662
1077.980770375293, 0.6905239222684557
1065.231983346364, 0.6860258577799627
1053.8997282095384, 0.6852442021987886
1026.9856222595777, 0.6903607249830583
1000.0715163096165, 0.718042671546465
978.8235379280686, 0.6652219886247968
947.6598363017979, 0.7068150634973344
919.329198459734, 0.7150436045008187
906.5804114308053, 0.7243774529992455
869.7505822361218, 0.7495331759478101
849.9191357466766, 0.6895377632488815
813.0893065519936, 0.7101950640437469
762.0941584362781, 0.5828422903534262
701.1832870758403, 0.487840473298985
647.3550751759185, 0.7725328203294626
609.1087140891318, 0.7328746314923619
570.8623530023451, 0.8046051265212646
545.3647789444876, 0.7364193201529757
528.3663962392493, 0.7731239782405979
502.86882218139135, 0.8167645334926008
491.5365670445658, 0.8226662275064633
484.45390758404983, 0.8231673833138833
473.1216524472243, 0.8180121182010339
457.5398016340887, 0.8329374789057731
430.625695684128, 0.8279271718241293
419.29344054730245, 0.824566602192152
##END=

##END=

