##TITLE=LL- 128
##JCAMP-DX=4.24
##DATA TYPE=INFRARED SPECTRUM
##DATE=13/6/2019
##SAMPLING PROCEDURE=Diamant-ATR
##ORIGIN=Rieke
##XUNITS=1/CM
##YUNITS=TRANSMITTANCE
##RESOLUTION=4
##FIRSTX=3997.453
##LASTX=373.96442
##DELTAX=-1.4165319
##MAXY=1
##MINY=0.39148685
##XFACTOR=1
##YFACTOR=9.3132258e-010
##NPOINTS=2559
##FIRSTY=0.99891371
##XYDATA=(X++(Y..Y))
3997+1072575423+1072592255+1072467263+1072432063+1072507967+1072451007
3989+1072268415+1072189759+1072132031+1071788863+1071240063+1070998655
3980+1071399167+1072228671+1073029887+1073550207+1073741823+1073567039
3972+1073125375+1072818111+1072970111+1073370623+1073553215+1073391103
3963+1073070783+1072685183+1072258175+1072002047+1072160703+1072634239
3955+1072996927+1072867519+1072196351+1071345855+1070897343+1071077695
3946+1071397823+1071243391+1070666559+1070335423+1070681407+1071361279
3938+1071792511+1071809919+1071666111+1071680191+1072010175+1072575615
3929+1073053183+1073136383+1072847999+1072575999+1072723647+1073197695
3921+1073476287+1073237119+1072692351+1072213503+1071790719+1071233023
3912+1070611007+1070129343+1069838527+1069674111+1069641279+1069809919
3904+1070127935+1070330303+1070244415+1070078399+1070156863+1070500543
3895+1070861631+1070987711+1070765759+1070306815+1069807103+1069268031
3887+1068767167+1068734783+1069329535+1070021567+1070451583+1070667775
3878+1070581567+1070071935+1069316799+1068571199+1067971007+1067788863
3870+1068352895+1069232767+1069641471+1069680383+1069977343+1070652031
3861+1071286847+1071674303+1071770303+1071408831+1070614207+1070117375
3853+1070924927+1072222527+1072654015+1072318207+1071759551+1071456255
3844+1071725631+1072497599+1073305535+1073741823+1073718271+1073272831
3836+1072626175+1072127295+1071880575+1071659647+1071251647+1070786815
3827+1070528575+1070398655+1069956287+1069039039+1068306367+1068702655
3819+1069842687+1070590399+1070737023+1070709951+1070679231+1070545279
3810+1070436479+1070717887+1071470527+1071919487+1071144703+1069385471
3802+1068009663+1068312959+1069607039+1070359487+1070300607+1070024895
3793+1069908287+1069886975+1069865087+1069791551+1069584383+1069291967
3785+1069111743+1069036799+1068824831+1068475007+1068309823+1068497535
3776+1068895871+1069415999+1069994751+1070385535+1070340287+1069888319
3768+1069282751+1068824639+1068797887+1069196415+1069678911+1070054335
3759+1070488191+1071103807+1071658495+1071783871+1071300095+1070549823
3751+1070621311+1071995647+1073380031+1073741823+1073128831+1072217343
3742+1071868415+1071977599+1071862527+1071230783+1070622335+1070950335
3734+1071967807+1072422399+1071929855+1070903679+1069801279+1069141951
3725+1069381695+1070338815+1071241855+1071566335+1071478143+1071500543
3717+1071800575+1071929855+1071379391+1070315263+1069670271+1069933439
3708+1070436159+1070633983+1070556863+1070380799+1070327423+1070584063
3700+1070936703+1070941567+1070551039+1070133311+1069956223+1069806527
3691+1069270271+1068523071+1068567039+1069726591+1071086591+1071990655
3683+1072409343+1072549759+1072651775+1072793919+1072723647+1072095807
3674+1071123327+1070325887+1069674623+1068975487+1068296447+1067872319
3666+1067838015+1068133055+1068588607+1069110079+1069628543+1069815999
3657+1069362815+1068705343+1068602559+1068813375+1068449471+1067259391
3649+1066316479+1066522367+1066905279+1066800063+1066681599+1066994431
3640+1067429439+1067341119+1066681791+1065990975+1065584831+1065242431
3632+1064699711+1064211327+1064427071+1065200191+1065499007+1065266367
3623+1065026111+1064808319+1064320191+1063831103+1064052223+1064773311
3615+1065138559+1064871807+1064297919+1063676607+1062959103+1062247615
3606+1062016447+1062522687+1063426303+1064122047+1064198143+1063773439
3598+1063350783+1063217791+1063178239+1062899583+1062399231+1061979263
3589+1061876863+1062179263+1062721151+1063069055+1062908799+1062229503
3581+1061320191+1060755519+1061037055+1062071039+1063216319+1063855103
3572+1063799423+1063261439+1062691263+1062655103+1063360447+1064061823
3564+1063922047+1063071295+1062151615+1061615551+1061511487+1061703615
3555+1062026367+1062145279+1061699391+1060855295+1060322047+1060579391
3547+1061413887+1062109439+1062079487+1061374847+1060418623+1059578239
3538+1059141311+1059281279+1059759423+1060024703+1059935999+1059931903
3530+1060309951+1060807615+1061096319+1061203327+1061208703+1061134783
3521+1061226559+1061733823+1062452927+1062901311+1062809663+1062231423
3513+1061436479+1060870335+1060882047+1061298431+1061638143+1061771647
3504+1061912319+1062054271+1061872831+1061250943+1060513023+1060062015
3496+1060001151+1060114815+1060207999+1060354431+1060678015+1061033087
3488+1061163647+1061123327+1061228287+1061598975+1062046015+1062411391
3479+1062724543+1062940479+1062811903+1062225151+1061509823+1061157631
3471+1061281599+1061560831+1061718783+1061892479+1062429695+1063332799
3462+1064037887+1063928191+1063062015+1062124479+1061654271+1061573439
3454+1061502271+1061286399+1061050623+1060889919+1060730687+1060507135
3445+1060300351+1060179455+1060096575+1060025407+1059984255+1059824959
3437+1059311679+1058536319+1057937279+1057829631+1058198591+1058907647
3428+1059715775+1060195839+1060097087+1059706175+1059527359+1059736767
3420+1060152191+1060509695+1060603071+1060340159+1059753279+1058885887
3411+1057841727+1057050175+1057129599+1058173759+1059371711+1059701887
3403+1059001663+1058065983+1057674175+1057886079+1058322943+1058657023
3394+1058684159+1058375167+1058032255+1057976191+1058065663+1057987711
3386+1057897791+1058216447+1058880383+1059384255+1059483199+1059319871
3377+1059050239+1058855487+1059048383+1059639615+1060114303+1060118719
3369+1059975807+1060108543+1060381311+1060385791+1060055807+1059737727
3360+1059779967+1060148351+1060476287+1060504383+1060295999+1060001215
3352+1059715007+1059536703+1059448191+1059239231+1058816383+1058399679
3343+1058279615+1058576127+1059201087+1059899775+1060468095+1060916351
3335+1061210943+1061113151+1060638079+1060268479+1060297023+1060370559
3326+1060091455+1059634111+1059389823+1059383231+1059411263+1059477055
3318+1059762303+1060316031+1060951039+1061383487+1061427455+1061113599
3309+1060627135+1060104447+1059544447+1058932799+1058425407+1058341567
3301+1058842879+1059627007+1060204671+1060505023+1060816511+1061155007
3292+1061258495+1061219391+1061444671+1061911871+1062114815+1061844735
3284+1061455999+1061275839+1061216895+1061048447+1060747519+1060504447
3275+1060501695+1060697983+1060855487+1060822911+1060689535+1060622655
3267+1060688703+1060848831+1061033919+1061215039+1061404543+1061544703
3258+1061549759+1061498367+1061495679+1061347967+1060827007+1060256191
3250+1060276799+1061012479+1061869695+1062144959+1061652991+1060869247
3241+1060459135+1060565631+1060707263+1060469375+1059976959+1059555519
3233+1059319359+1059263167+1059463231+1060056063+1061089407+1062334911
3224+1063240575+1063301951+1062577151+1061648703+1061016959+1060708479
3216+1060532671+1060460863+1060615935+1061040063+1061623615+1062147775
3207+1062347007+1062131263+1061804735+1061797951+1062154687+1062566335
3199+1062864575+1063132223+1063409535+1063615039+1063680959+1063597567
3190+1063442047+1063406911+1063674175+1064223999+1064726847+1064681791
3182+1063939263+1063038399+1062570623+1062358143+1061868351+1061203071
3173+1060944127+1061210943+1061487423+1061294527+1060733631+1060381183
3165+1060694207+1061511679+1062206783+1062253055+1061565951+1060481215
3156+1059492415+1058881919+1058645119+1058796607+1059497279+1060775615
3148+1062349887+1063762815+1064544639+1064352959+1063226047+1061727295
3139+1060710463+1060791935+1061887551+1063204671+1063815423+1063394239
3131+1062421311+1061626751+1061315199+1061242879+1061027967+1060560511
3122+1059995199+1059432639+1058781951+1058042623+1057543423+1057633535
3114+1058177983+1058627007+1058601727+1058252927+1058002111+1058020159
3105+1058063999+1057806783+1057134399+1056084287+1054805823+1053680831
3097+1053086271+1052840703+1052225471+1050777727+1048783615+1046809023
3088+1045030847+1043326719+1041799167+1040683455+1039794687+1038652799
3080+1037181695+1035722687+1034431743+1033221759+1032079807+1030876031
3071+1029129599+1026486847+1023240959+1020105471+1017676735+1016219327
3063+1015747647+1016155391+1017269759+1018816639+1020451007+1021953599
3054+1023416319+1025194431+1027600767+1030521727+1033391679+1035695999
3046+1037408191+1038787135+1039967807+1040938687+1041685119+1042160063
3037+1042289279+1042073727+1041525567+1040529919+1038919999+1036613183
3029+1033599487+1029974399+1026017023+1021996159+1017871807+1013353983
3020+1008223103+1002485631+996277695+989623871+982274431+973988159+965009791
3010+955860671+946587583+936790335+926555519+916744703+908136063+900898303
3000+895122367+891183807+889265343+889079679+890361471+893215743+897743615
2990+903582591+909974975+916123839+921419967+925499135+928284799+929962175
2980+930725439+930562047+929409791+927466815+925249599+923459775+922808639
2970+923736383+926219711+929900479+934294527+938856511+943115775+946905535
2961+950339071+953516799+956333119+958585087+960239999+961557695+962893823
2951+964420671+966064447+967594943+968775551+969531263+969899647+969781055
2941+969030975+967917887+967110911+967008575+967341503+967554367+967333247
2931+966617151+965241215+962797631+958963583+953841151+947806527+941211327
2921+934554431+928845311+925388799+925039231+927702335+932545599+938621055
2911+945290367+952171263+958880319+964980863+970189055+974599615+978634751
2901+982625855+986368319+989244223+990892991+991506431+991234239+989532351
2891+985445567+978493311+969217471+959159487+950494655+945336511+944867519
2881+948873279+956036287+964720319+973622591+981931327+989213247+995397887
2871+1000705919+1005295231+1009055359+1011904063+1014023743+1015583231
2863+1016557055+1017045247+1017459199+1018149823+1019060479+1019899967
2854+1020507263+1020931839+1021256959+1021467647+1021506047+1021344511
2846+1020837951+1019519871+1016759487+1012284479+1006491455+1000132991
2837+993823743+988047359+983526143+981264191+982064447+985988991+992218943
2827+999441855+1006505535+1012780223+1018002879+1022050687+1024989119
2819+1027085887+1028594687+1029639231+1030364671+1031024703+1031829503
2810+1032788095+1033726591+1034440191+1034872895+1035194175+1035669951
2802+1036426111+1037346559+1038175551+1038692607+1038848959+1038797183
2793+1038755199+1038828863+1039009727+1039255039+1039471103+1039542463
2785+1039499071+1039509503+1039624255+1039694911+1039586687+1039338623
2776+1039130815+1039146431+1039390143+1039684927+1039943487+1040269439
2768+1040679231+1040993791+1041133759+1041223551+1041305983+1041241151
2759+1040985151+1040735231+1040709503+1040905535+1041136063+1041247167
2751+1041270399+1041366911+1041619327+1041911999+1042071359+1042066175
2742+1042004863+1041983295+1041995583+1041936831+1041710207+1041420415
2734+1041349055+1041585535+1041875455+1042013887+1042126335+1042367487
2725+1042636159+1042785343+1042856575+1042954559+1043073919+1043154431
2717+1043196223+1043260479+1043378559+1043498367+1043568575+1043645823
2708+1043793663+1043909567+1043836095+1043631807+1043521855+1043595391
2700+1043752511+1043883455+1043893503+1043681983+1043312767+1043059967
2691+1043122495+1043445183+1043873535+1044257599+1044419199+1044254143
2683+1043890431+1043570495+1043396543+1043285055+1043152063+1043053887
2674+1043096191+1043257215+1043412799+1043487551+1043451711+1043260863
2666+1042979839+1042840511+1043003967+1043382527+1043814335+1044251519
2657+1044677503+1044987199+1045077887+1044989951+1044877247+1044848703
2649+1044905471+1045053183+1045382271+1045906431+1046371391+1046448831
2640+1046139199+1045788927+1045695167+1045888127+1046258495+1046698751
2632+1047139327+1047551167+1047840639+1047805695+1047419583+1047066687
2623+1047201279+1047818687+1048466111+1048721727+1048533439+1048141567
2615+1047766975+1047489983+1047445887+1047861439+1048655103+1049266559
2606+1049241343+1048837375+1048687231+1048959807+1049202943+1048995775
2598+1048460607+1048095103+1048301439+1049024959+1049678591+1049606783
2589+1048786303+1047857919+1047374591+1047317823+1047392639+1047460351
2581+1047626687+1048100607+1048941055+1049838847+1050327935+1050362943
2572+1050468223+1051073279+1051844095+1052021375+1051418303+1050672383
2564+1050382591+1050435007+1050478975+1050643711+1051283967+1052253887
2555+1052932671+1052945599+1052537023+1052242687+1052376959+1052819391
2547+1053214399+1053343551+1053233151+1052984191+1052717183+1052609279
2538+1052729023+1052893439+1052864063+1052617535+1052343423+1052236095
2530+1052274495+1052244287+1052042815+1051787903+1051507903+1051068543
2521+1050570047+1050381823+1050595775+1050864831+1050918271+1050823231
2513+1050663487+1050415679+1050203007+1050211135+1050287231+1050056447
2504+1049470527+1048820671+1048243967+1047693439+1047367423+1047651455
2496+1048536127+1049471679+1049929087+1049849023+1049460223+1048978111
2487+1048653567+1048771455+1049322943+1049955583+1050457343+1050932223
2479+1051331391+1051268415+1050538943+1049484351+1048701695+1048639295
2470+1049419135+1050676095+1051628287+1051745407+1051385151+1051383551
2462+1051997247+1052659263+1052764351+1052283711+1051634367+1051300927
2453+1051444671+1051655871+1051383743+1050755007+1050514431+1051068671
2445+1052081471+1053041855+1053688703+1053853887+1053416063+1052562175
2436+1051808895+1051667135+1052291071+1053355519+1054292671+1054779839
2428+1054909375+1054793663+1054328127+1053540351+1052786495+1052368063
2419+1052260735+1052337983+1052556671+1052854399+1053086975+1053139135
2411+1053041599+1052929791+1052813439+1052520191+1052051455+1051712703
2402+1051607039+1051381695+1050832127+1050327039+1050250047+1050372607
2394+1050178111+1049615999+1049151871+1049085439+1049208383+1049291711
2385+1049459583+1049733887+1049670399+1048947199+1047964031+1047377343
2377+1047341887+1047650687+1048260031+1049127871+1049878271+1050255103
2368+1050579391+1051104575+1051323647+1050729983+1049834303+1049587519
2360+1050154751+1050910207+1051278463+1051095679+1050371775+1049088959
2351+1047379071+1045735935+1044754815+1044671871+1045110655+1045338367
2343+1045063743+1044700287+1044662399+1044952639+1045353535+1045634495
2334+1045648383+1045437759+1045210431+1045043455+1044713599+1044089151
2326+1043505727+1043432511+1043909375+1044563263+1045046463+1045233023
2317+1045218431+1045309695+1045718655+1046224191+1046484927+1046532735
2309+1046523519+1046280383+1045645439+1045026559+1045028415+1045653759
2300+1046262527+1046243135+1045520639+1044544255+1043910911+1043875263
2292+1044174527+1044444863+1044697919+1045178623+1045889727+1046573759
2283+1047159423+1047866495+1048696383+1049180863+1048963839+1048309119
2275+1047641727+1046966335+1046223999+1045883519+1046607359+1048433279
2266+1050595007+1052124863+1052553791+1052071359+1051189119+1050446271
2258+1050246399+1050539391+1050723583+1050339775+1049730175+1049539583
2249+1049818431+1050150335+1050422975+1050798655+1050984191+1050388543
2241+1049277887+1048803967+1049337663+1049782975+1049291327+1048578495
2232+1048676479+1049501439+1050517823+1051750335+1053252223+1054393215
2224+1054438399+1053336703+1051557119+1049624831+1048079231+1047362559
2215+1047408255+1047737727+1048227775+1049207679+1050502079+1051149183
2207+1050587199+1049515327+1049027199+1049350207+1049888767+1050228479
2198+1050687103+1051680191+1052775039+1053048895+1052452671+1051901887
2190+1051889919+1052101247+1052503359+1053579263+1055251071+1056649919
2181+1057071999+1056384767+1054699967+1052376575+1050209663+1048970559
2173+1048660031+1048659647+1048652799+1048836671+1049087871+1048650047
2164+1047220479+1045876543+1046273727+1048883327+1051991743+1053188671
2156+1052400959+1051855615+1052965311+1055011583+1056861503+1058396159
2147+1059613247+1059720127+1058146687+1055674367+1053750015+1053011967
2139+1052960575+1052927999+1052934399+1053427775+1054493887+1055657727
2130+1056338175+1056248255+1055467391+1054302271+1053091583+1052128511
2122+1051721279+1052089279+1052981695+1053603647+1053337407+1052428799
2113+1051541759+1050892223+1050353343+1050063551+1050268159+1050857343
2105+1051604863+1052547455+1053669567+1054441407+1054137535+1052673215
2096+1050832319+1049443775+1048589823+1047943615+1047493439+1047523135
2088+1048199423+1049420735+1050730687+1051324799+1050548479+1048522431
2079+1046190015+1044741951+1044796799+1046069439+1047964479+1050174079
2071+1052307455+1053571775+1053561023+1052850943+1052238655+1051807423
2062+1051177919+1050411391+1050247295+1051331135+1053287743+1054791743
2054+1054612927+1052480575+1049187967+1046310015+1045463295+1047041343
2045+1049811967+1052145535+1053219135+1053139775+1052630463+1052558399
2037+1053336511+1054611007+1055692095+1056348415+1056734015+1056374463
2028+1054217023+1050343039+1046737023+1045533375+1046903935+1049062079
2020+1050239167+1050444479+1051174975+1053237503+1055399359+1055883071
2011+1054451135+1052395519+1051049855+1050733183+1050896447+1050874111
2003+1050430975+1049904767+1049831807+1050256703+1050678079+1050917823
1994+1051429311+1052444863+1053639487+1054844735+1056042751+1056585023
1986+1055639039+1053442111+1051296127+1050458687+1051262463+1052829247
1977+1053597695+1052753599+1051014399+1049724287+1049645247+1050451903
1969+1051066751+1050863039+1050516735+1051052863+1052393791+1053637311
1960+1054234623+1054218047+1053556415+1052195583+1050804671+1050381503
1952+1050881343+1051303743+1051234623+1051180671+1051376831+1051305023
1943+1050525887+1049367871+1048544767+1048344063+1048657215+1049439487
1935+1050543231+1051292607+1050961791+1049677951+1048207999+1047006527
1926+1045983807+1044939135+1043844351+1042861055+1042187647+1041888895
1918+1041939647+1042231487+1042444351+1042192063+1041399039+1040492351
1909+1040108479+1040397119+1040746943+1040506559+1039785215+1039256447
1901+1039309503+1039738559+1040225919+1040766399+1041512191+1042394751
1892+1043115903+1043575487+1044106367+1045037951+1046113599+1046815423
1884+1047140863+1047691135+1048933759+1050607551+1052080319+1053060543
1875+1053674175+1054027711+1054058303+1053790271+1053484543+1053381695
1867+1053361215+1053272191+1053305727+1053639231+1054126783+1054538175
1858+1054798783+1054831935+1054527615+1053971775+1053491903+1053491199
1850+1054148927+1055075775+1055559487+1055448959+1055415615+1055879039
1841+1056353343+1056417471+1056119999+1055600063+1054945151+1054247295
1833+1053598655+1053109183+1052839615+1052586751+1052080895+1051459199
1824+1051116991+1051144511+1051216703+1051063359+1050727039+1050465023
1816+1050541951+1051070847+1051986111+1053051711+1053906431+1054351103
1807+1054580223+1054899263+1055334655+1055685311+1055880191+1056116287
1799+1056509951+1056889983+1057135615+1057378495+1057751807+1058072703
1790+1058036671+1057710399+1057348991+1057051967+1056808575+1056655807
1782+1056623103+1056573631+1056374335+1056163647+1056177087+1056519615
1773+1057259263+1058316927+1059210751+1059610751+1059713663+1059759551
1765+1059808639+1059906879+1060084671+1060239807+1060288831+1060225151
1756+1059885439+1059028735+1057612735+1055695231+1053318271+1050637887
1748+1047832319+1044835135+1041495103+1037838079+1033891839+1029406783
1740+1024368703+1019493055+1015195519+1010921663+1006305471+1002431295
1731+1000127103+999096511+999089151+999958847+1001646271+1004217343+1007446847
1721+1010937087+1014826623+1019719039+1025424767+1030458239+1034157055
1713+1037007167+1039451007+1041678975+1043806783+1045945599+1047997311
1704+1049661823+1051023679+1052606655+1054353663+1055142847+1054678399
1696+1053888959+1053424255+1053173183+1052923007+1052657599+1052436415
1687+1052419199+1052958655+1054241151+1055514879+1056138175+1056416063
1679+1056737215+1057409983+1058611327+1060035839+1061185087+1062121919
1670+1063207167+1064307135+1064920703+1065100095+1065343487+1066086527
1662+1067301439+1068520319+1069413055+1069961791+1070378111+1071100735
1653+1072305087+1073045567+1073019839+1072860095+1073037503+1073522303
1645+1073741823+1073621695+1073475071+1073402559+1073286463+1073168639
1636+1073230463+1073250559+1072846079+1072052927+1070954623+1069545599
1628+1067803391+1065615103+1062763455+1059178943+1055272063+1051405951
1619+1046905023+1040125823+1030376255+1019673599+1009114367+997149183+981711871
1609+960887679+933055935+897388287+853978111+804422591+753018495+705514495
1599+665352447+632461567+605884735+586608447+577586687+581022079+596130687
1589+618792767+642421695+660470527+669311039+669013759+662288895+652911551
1579+643613055+634967743+627598975+625021887+629887871+643010431+668214527
1570+707077631+748990335+783519743+811781695+835644991+854211903+869724159
1560+889385279+913299775+928365503+935839679+941808063+947427519+952519679
1550+957349567+961910399+965975807+969778559+973703743+977951807+983257407
1540+989892863+995276927+998336575+1000591615+1003511295+1007258303+1010625791
1530+1013211007+1015823295+1019048959+1022544383+1025753791+1028756351
1521+1031736831+1034336703+1036271807+1037767807+1038992447+1039753727
1513+1039885823+1039423039+1038238143+1035792703+1031977919+1029008895
1504+1028377343+1028798655+1028769407+1026319999+1017935935+998965631+969275327
1494+935289151+899471039+856065663+798647743+733872191+679880831+644591423
1485+625263167+618151551+619819199+626577407+635798847+646982335+661036735
1475+679495103+702737791+725349503+740002111+746948159+750615871+755153983
1465+763777727+776569407+790741887+804693055+818315583+829098815+830293247
1455+820676159+804044159+781412607+751735359+713379647+668847103+630371007
1445+612915519+622751295+654854527+695860031+733593855+764002687+787436031
1435+804637375+818600575+833305279+850275519+867343167+881296703+891850495
1425+900801983+909211519+917049855+924905087+934036479+943785279+951888767
1415+958185407+963777023+969137727+974213119+978804095+982820479+986545919
1405+990254399+993670079+996551871+999234047+1002033919+1004870591+1007684991
1395+1010592511+1013411007+1015720255+1017479999+1019105855+1021053823
1387+1023321727+1025422591+1027036031+1028215295+1029185855+1030220607
1378+1031395199+1032561407+1033730047+1035110143+1036671423+1038170623
1370+1039524095+1040742783+1041795903+1042668735+1043379583+1043972095
1361+1044482879+1044808191+1044798143+1044433919+1043713471+1042540159
1353+1040865215+1038725759+1036051263+1032554495+1027814911+1021552511
1344+1013829759+1004627775+993261375+978944127+962349055+945688255+930803199
1334+918392319+908594943+901201919+895476031+890125695+883598079+874593727
1324+862496575+847423231+829874751+810458751+790171135+770590655+753146751
1315+738398847+726264831+716466879+708679359+702574399+697570687+692235263
1305+684204159+671402751+653843967+634177343+616164671+602576575+594418047
1295+591672063+594487231+603610367+619595775+641538751+666464191+689801983
1285+706710783+713792511+710652543+700357951+687760383+676472447+667228287
1275+659032703+651471487+645824575+644491711+649752959+662849087+683655615
1265+710738303+741704447+773840959+804683263+832378815+856042751+875847743
1255+892524991+906726783+918837759+929133631+937816383+944847487+949862591
1245+952221631+951054975+945264191+933556223+914639871+887714239+853054143
1235+812227007+767791487+722712767+679759231+641019583+607497407+578833471
1225+553533247+529775104+506251488+482699552+460240064+441417344+429631968
1215+428002720+437820736+456842944+478560288+494065312+496366528+484340864
1205+463276544+441581344+426261760+420355808+423241696+432470336+445430784
1196+460143968+475553632+491889792+510841600+534641696+564066495+596866175
1186+628151615+652481983+665963775+667246143+657518527+639798719+617822847
1176+595193151+575026687+559491839+548987647+541869311+535470208+527726720
1166+518084128+507366464+497364128+490560576+489589696+496161184+510015072
1156+528722048+548631551+566456959+580457919+590476095+597070271+600571583
1146+600684031+596912575+589729791+581671359+577165695+580783871+595033279
1136+619174271+649705983+682046527+712279999+738119295+758991935+775529087
1126+788805695+799769407+809059583+817022143+823727487+829032831+832745727
1116+834786623+835231231+834174655+831539199+827031295+820240895+810765951
1106+798450303+783788543+768026431+752376447+736515455+717623039+691554623
1096+656361791+615808255+579500159+558627775+559975615+582283519+617274559
1086+654392063+685883967+708986943+724659263+735065087+742014655+746602367
1077+749175551+749324223+746556159+741945791+739203327+743059455+755647743
1067+774437631+793855551+808719999+816256895+815780159+807579967+792470719
1057+771848575+747469887+720896575+693166015+665024575+637615359+613196863
1047+595264191+587584575+592269759+607824895+628612223+646665855+655226431
1037+651932479+639647743+624619903+613548927+611174591+618540863+631916671
1027+643815231+647268927+641181695+632132223+630325695+642742463+669129279
1017+703482303+738567935+769426175+794241663+813443455+828339839+840065407
1007+849091135+854937023+855537919+847307711+828423295+803891519+784937855
997+780034687+787756735+800952575+815534463+831692479+848862271+864117375
987+875285119+882768959+888188479+892723455+896721535+900030655+902547711
977+904614207+906828543+909492991+912398463+915130495+917411967+919166463
967+920492159+921633087+922827135+924158911+925577535+926920767+927928831
958+928423423+928467903+928180991+927434559+925872191+923234367+919607359
948+915349247+910834175+906349503+902257343+899188991+897988287+899284351
938+902935615+907956159+913140287+917743103+921583999+924783551+927627903
928+930507583+933660159+936911679+939833087+942130431+943716799+944497599
918+944318911+943042815+940503039+936556671+931344063+925418495+919625343
908+914921599+912038207+911005951+911099007+911523647+912257087+914142271
898+918078463+924042431+930757887+936146815+938127487+935140735+925828799
888+907980607+878333823+835062783+781875007+729151359+689061951+668257535
878+665214335+673916351+688664191+705669183+722377535+736956927+748308479
868+756038015+760430271+762585983+764280447+767099263+771443647+776541759
858+781372799+785276031+787892415+789095039+789052351+788147199+786891967
849+785978687+786290623+788802175+794351167+803345023+815686463+830854591
839+847751487+864644095+879818431+892403647+902505279+910850175+918426303
829+926036991+933900351+941716735+949024319+955403455+960658303+965039935
819+969053183+972852543+976072831+978382719+979928191+981131967+982360383
809+983828863+985449535+986735935+987346687+987758463+988796031+990413631
799+991566271+991377535+989792447+986931647+982404863+975446463+965257919
789+951029439+931974015+907637503+878221567+844716223+808973695+773724095
779+742205375+717414143+701368127+694437695+694901055+699538687+705354751
769+710875135+715753535+719590271+721561407+720925247+717566591+712310079
759+707095743+704919231+709374719+723578687+748516543+781879551+818757311
749+853863743+883486143+905994751+921247679+929877247+932825791+930782399
739+923537087+909799551+887805951+856680959+818099391+776942399+739706175
730+711440191+693957375+686823551+689296319+700875135+720521151+745897215
720+773459711+799475007+821318463+838187391+850981695+861503039+871192511
710+879867839+884960063+881913023+866503295+838318335+802273599+765903871
700+734601343+708847423+685280255+660250367+632749439+604929983+581130815
690+567190527+569992127+595000575+641734591+701970367+763456447+815952575
680+855173311+882268927+900448639+912360383+919569727+923155775+924034687
670+922650879+919453247+916499071+915421055+914605887+911304127+903319295
660+889752767+870948799+847820095+821624703+793877823+766427903+741511551
650+721272383+707604095+702468799+707567359+723110655+746838207+774763263
640+803062719+829119103+851543359+869868671+884132095+894732607+902450175
630+908130431+912255359+914808959+915529599+914462271+912187775+909268031
620+905783231+901727679+897510911+893684735+890350783+887164287+883847423
611+880400511+876745983+872515391+867699455+863549759+862289983+865526463
601+872980607+882904639+893638399+904245183+913528383+919456959+920451711
591+916997503+911149439+904502079+897402175+889638207+880618239+868987263
581+853704639+836156479+820125375+809351487+805582655+808278463+815031359
571+821909311+824581567+820651647+810408319+794584319+772999039+746554687
561+719261439+696865855+683701247+681282623+688994815+704993279+726661759
551+751471295+778111359+806199359+834324287+859151295+877337151+887733823
541+891157951+888981439+882234879+871309695+856704191+840287295+825049855
531+813426175+806092095+801968447+799315327+797695423+799099839+806087935
521+818879487+834419967+848044799+857358335+864700287+874458751+888653183
511+905781119+923056959+938942591+953014463+964606527+973255487+979719935
501+985334655+990678975+995466751+999314111+1002197631+1004468031+1006382847
492+1007573439+1007466687+1006248703+1004848255+1004174143+1004715519
483+1006217663+1007151359+1005525311+1001196735+996525503+993546815+991344255
473+987538815+981659519+975227263+968822783+961879743+954837823+949657023
463+948247871+950990719+956922943+965039871+974156223+982010239+987133311
453+990203071+992506879+994761983+997314495+1000469503+1004257151+1008205759
443+1011522239+1013761919+1015817535+1019600575+1025808255+1032040255
435+1034290751+1031412415+1026207039+1022123007+1020774079+1021553727
426+1022407295+1021729599+1020499711+1021527295+1026461567+1034017791
418+1040086463+1042329151+1042127423+1041167359+1040575487+1040947519
409+1041910399+1042646079+1043039231+1043845759+1045666111+1048470655
401+1052289983+1057221759+1061702207+1062631039+1060162431+1057895167
392+1058488575+1061130303+1061958975+1058661375+1055083839+1058039359
384+1065966015+1068412031+1062747967+1056452607+1056393023+1063501631
375+1071725567+1073741823
##END=
