##TITLE=JMB-197
##JCAMP-DX=4.24
##DATA TYPE=INFRARED SPECTRUM
##DATE=27/3/2019
##SAMPLING PROCEDURE=Diamant ATR
##ORIGIN=Rieke
##XUNITS=1/CM
##YUNITS=TRANSMITTANCE
##RESOLUTION=4
##FIRSTX=3997.453
##LASTX=373.96442
##DELTAX=-1.4165319
##MAXY=1.0000427
##MINY=0.6979512
##XFACTOR=1
##YFACTOR=9.3136232e-010
##NPOINTS=2559
##FIRSTY=0.9985103
##XYDATA=(X++(Y..Y))
3997+1072096517+1071565340+1071284776+1071516574+1071945932+1072073862
3989+1071905869+1071886798+1072171650+1072396792+1072245439+1071894542
3980+1071694038+1071663640+1071563868+1071311975+1071121071+1071236522
3972+1071644441+1072098245+1072442422+1072806631+1073306578+1073696001
3963+1073587526+1072956833+1072187073+1071678359+1071628697+1072018825
3955+1072541682+1072729450+1072408312+1071873679+1071488223+1071272296
3946+1071047218+1070788477+1070626244+1070645443+1070837691+1071139374
3938+1071405667+1071465056+1071317286+1071141678+1070997364+1070742015
3929+1070384590+1070198678+1070365647+1070775422+1071189932+1071460448
3921+1071562268+1071537693+1071469344+1071410594+1071316838+1071136174
3912+1070926839+1070814652+1070867706+1071074865+1071439905+1071989770
3904+1072645486+1073190359+1073494730+1073634500+1073696001+1073656707
3895+1073521992+1073413581+1073397838+1073374671+1073291154+1073246292
3887+1073254292+1073261715+1073348624+1073475914+1073275475+1072615535
3878+1072054471+1072103365+1072609391+1073081499+1073108634+1072595696
3870+1071822225+1071270376+1071125167+1071154925+1071121327+1071064305
3861+1071150894+1071310631+1071326246+1071233514+1071371108+1071969099
3853+1072666157+1073000543+1073156504+1073322961+1073498889+1073647683
3844+1073676226+1073547079+1073447756+1073507913+1073455883+1073000607
3836+1072364602+1071889934+1071624089+1071533405+1071597787+1071718805
3827+1071833552+1071981514+1072097221+1071965451+1071586011+1071411170
3819+1071718421+1072179970+1072458102+1072578353+1072741418+1072930978
3810+1072875172+1072307580+1071358181+1070596485+1070228821+1069817702
3802+1069270974+1069262270+1070008094+1070784637+1071094320+1071080817
3793+1070971509+1070760510+1070505161+1070397454+1070504969+1070800061
3785+1071289448+1071773075+1071851344+1071458464+1070989044+1070731327
3776+1070613189+1070635012+1070940215+1071447521+1071829521+1071853776
3768+1071550493+1071063857+1070593669+1070335824+1070219733+1069968608
3759+1069589040+1069530355+1070007134+1070643523+1071058993+1071292328
3751+1071586651+1071929228+1072052231+1071695382+1070682754+1069378745
3742+1068666712+1068727765+1069120260+1069454326+1069509556+1069454518
3734+1069789800+1070464651+1070800061+1070476746+1069876708+1069769897
3725+1070765374+1072466549+1073514505+1073129049+1072032840+1071401251
3717+1071553244+1072105413+1072657517+1072884836+1072518451+1071786258
3708+1071305511+1071338982+1071715669+1072070406+1072022472+1071525022
3700+1071008372+1070799293+1070800445+1070874937+1071046258+1071237354
3691+1071114863+1070491658+1069893795+1070023070+1070674882+1071180012
3683+1071223466+1070990196+1070839867+1070726080+1070042333+1068563804
3674+1067595781+1068316391+1070016862+1071440481+1072048007+1072238783
3666+1072384505+1072354618+1072012745+1071591451+1071479264+1071759316
3657+1072150595+1072366650+1072393721+1072271166+1071782675+1070724096
3649+1069622191+1069520819+1070367375+1071263657+1071700502+1071718037
3640+1071578395+1071379108+1070895672+1069927202+1068837712+1068459040
3632+1069246271+1070796861+1072130052+1072454646+1071979850+1071348709
3623+1070879993+1070554951+1070188631+1069787560+1069722091+1070178135
3615+1070827899+1071180396+1070942646+1070283731+1069785064+1069912162
3606+1070435020+1070715520+1070575494+1070438540+1070704001+1071168493
3598+1071276456+1070890425+1070442828+1070368015+1070634372+1070914360
3589+1070961974+1070764606+1070541256+1070460683+1070412365+1070258516
3581+1070035677+1069837094+1069663021+1069481781+1069341755+1069340283
3572+1069517107+1069796199+1070015006+1070067420+1070025438+1069977696
3564+1069843749+1069580977+1069320188+1069195137+1069247295+1069498612
3555+1069892707+1070164056+1070002847+1069437623+1068888014+1068761044
3547+1069102597+1069584752+1069800039+1069561585+1068949964+1068257897
3538+1067863162+1067904568+1068131566+1068275496+1068394851+1068617242
3530+1068751956+1068478112+1067903672+1067573190+1067751487+1068064497
3521+1068071921+1067844155+1067719616+1067836027+1068123055+1068496095
3513+1068862159+1069093125+1069100293+1068909645+1068666904+1068531805
3504+1068501279+1068399651+1068175213+1068035059+1068090928+1068154477
3496+1068092656+1068084720+1068274536+1068481312+1068460384+1068175405
3488+1067760126+1067477514+1067622788+1068187884+1068744084+1068891598
3479+1068677911+1068397923+1068178092+1067944822+1067687809+1067575622
3471+1067763198+1068213035+1068772755+1069296893+1069629615+1069622191
3462+1069272638+1068795730+1068466592+1068365732+1068349349+1068347685
3454+1068548445+1069038024+1069428791+1069192513+1068314599+1067320849
3445+1066661869+1066378809+1066425655+1066861925+1067553031+1068097840
3437+1068330662+1068550301+1068972811+1069325051+1069251775+1068817297
3428+1068365796+1068111727+1068029299+1068028979+1068115759+1068296295
3420+1068391075+1068145454+1067564359+1066945761+1066569521+1066464758
3411+1066456246+1066400504+1066374521+1066560050+1066950753+1067342480
3403+1067633796+1067947126+1068396515+1068852112+1068970379+1068478432
3394+1067508617+1066587952+1066175234+1066277950+1066629423+1067079515
3386+1067608965+1068073265+1068204139+1067944438+1067587974+1067404237
3377+1067285139+1067027934+1066737066+1066544434+1066257278+1065809810
3369+1065658584+1066140995+1066887972+1067397582+1067703489+1068020211
3360+1068230698+1068118639+1067771582+1067520393+1067598021+1067852474
3352+1067816124+1067228885+1066424119+1065992970+1066133508+1066529139
3343+1066785832+1066807655+1066745834+1066734250+1066737578+1066634990
3335+1066449590+1066450742+1066874532+1067520457+1067841467+1067534664
3326+1066854245+1066280509+1066105925+1066355962+1066861669+1067358415
3318+1067662466+1067756286+1067684993+1067494794+1067281171+1067143065
3309+1067082843+1067043549+1066963296+1066749673+1066337403+1065825361
3301+1065436513+1065335398+1065553628+1066004937+1066475189+1066714475
3292+1066637486+1066367674+1066053383+1065736853+1065437537+1065280232
3284+1065451169+1065976650+1066580977+1066872996+1066718251+1066342075
3275+1066045895+1065914701+1065808338+1065558876+1065203819+1065070577
3267+1065491935+1066366906+1067198102+1067611973+1067619652+1067379087
3258+1066995871+1066577137+1066253951+1066092229+1066036296+1065910093
3250+1065558172+1065070129+1064757054+1064831355+1065236586+1065779603
3241+1066252351+1066492148+1066515635+1066509748+1066557490+1066527987
3233+1066316092+1066022024+1065821137+1065802706+1065978954+1066320700
3224+1066732586+1067068380+1067258324+1067411661+1067657347+1067866810
3216+1067752383+1067304914+1066862373+1066669037+1066638254+1066577841
3207+1066388153+1066090438+1065841680+1065804946+1065926669+1066012617
3199+1065997769+1065943372+1065886222+1065856528+1065894414+1065992714
3190+1066180290+1066578673+1067180887+1067723008+1067954294+1067856122
3182+1067491530+1066903523+1066292861+1066013193+1066195265+1066564785
3173+1066764329+1066669165+1066344251+1065955403+1065778771+1065993418
3165+1066392185+1066550322+1066321596+1065955147+1065733845+1065737109
3156+1065934476+1066210112+1066254079+1065746772+1064798525+1063981728
3148+1063757545+1064002463+1064198998+1063995103+1063519347+1063210688
3139+1063385849+1063964768+1064584070+1064951286+1065107503+1065322854
3131+1065728277+1066176066+1066479925+1066594800+1066562225+1066535923
3122+1066768809+1067266579+1067636036+1067580166+1067300626+1067132889
3114+1067056860+1066838502+1066449462+1066115524+1066002953+1065998537
3105+1065857743+1065533725+1065237994+1065160365+1065245866+1065271337
3097+1065054322+1064587846+1064024670+1063518835+1063100933+1062759636
3088+1062499103+1062165613+1061433676+1060202625+1058816508+1057648750
3080+1056688727+1055673794+1054369466+1052672386+1050763028+1049149401
3071+1048277758+1048158275+1048478069+1048869924+1049021214+1048772905
3063+1048135492+1047076849+1045432503+1043193495+1040736192+1038574492
3054+1036954017+1035837841+1035196972+1035042995+1035200108+1035392036
3046+1035638297+1036294269+1037645700+1039636975+1041925517+1044011700
3037+1045395385+1045854949+1045655086+1045356602+1045337467+1045588849
3029+1046030686+1046737727+1047633497+1048288509+1048327484+1047868687
3020+1047386084+1047272169+1047578844+1048085126+1048607280+1049195607
3012+1049930039+1050644761+1051000650+1050752724+1049921336+1048840422
3003+1048026120+1047841680+1048290429+1049145049+1050110192+1050834833
2995+1051052487+1050879247+1050740245+1050848016+1050986762+1050915661
2986+1050674391+1050386020+1050114415+1050032691+1050373924+1051081286
2978+1051772009+1052152728+1052290131+1052415245+1052596613+1052706561
2969+1052665155+1052566535+1052517065+1052504585+1052486858+1052439500
2961+1052258964+1051805415+1051098821+1050342438+1049766142+1049483658
2952+1049422285+1049390926+1049342992+1049495626+1050048242+1050891534
2944+1051687852+1052124698+1052080347+1051714027+1051375738+1051296125
2935+1051403448+1051463798+1051291325+1050863055+1050329126+1049834171
2927+1049298322+1048538547+1047592091+1046731008+1046174808+1045919650
2918+1045800423+1045623279+1045318972+1045034504+1045038600+1045458422
2910+1046106394+1046633988+1046911224+1047196396+1047857552+1048942497
2901+1050115951+1051027784+1051627247+1052062044+1052440524+1052832763
2893+1053330982+1053932876+1054489653+1054875748+1055106010+1055262804
2884+1055414285+1055595333+1055822268+1056104048+1056383332+1056488351
2876+1056299495+1055936695+1055630852+1055477962+1055421389+1055372367
2867+1055263764+1055044125+1054650222+1054033288+1053275240+1052592134
2859+1052162840+1052074332+1052403982+1053098864+1053804754+1054119620
2850+1054081414+1054171522+1054727594+1055534280+1056147118+1056471648
2842+1056756372+1057117828+1057416120+1057543730+1057529779+1057408760
2833+1057256703+1057279038+1057636334+1058205590+1058676866+1058914616
2825+1059122863+1059558364+1060169026+1060665453+1060871460+1060848357
2816+1060751209+1060695724+1060677037+1060567345+1060295997+1060004745
2808+1059922061+1060156419+1060677549+1061364623+1061988725+1062287400
2799+1062179500+1061865850+1061617604+1061475211+1061283219+1061075100
2791+1061162008+1061663618+1062218795+1062426018+1062308775+1062108527
2782+1061884217+1061580486+1061274131+1061106650+1061085275+1061101658
2774+1061108442+1061188375+1061430540+1061781693+1062075953+1062198764
2765+1062173165+1062126703+1062214059+1062488607+1062795410+1062905933
2757+1062791186+1062630041+1062535837+1062439713+1062257961+1062032563
2748+1061874809+1061870778+1062043506+1062309159+1062472224+1062370020
2740+1062051378+1061727168+1061506057+1061280915+1060948897+1060641326
2731+1060602288+1060858405+1061154712+1061283923+1061357328+1061599301
2723+1061968629+1062195052+1062182444+1062142062+1062294312+1062604762
2714+1062847056+1062822545+1062532829+1062215083+1062161837+1062444513
2706+1062832977+1063022152+1062929292+1062721685+1062534685+1062274472
2697+1061813180+1061296466+1061072796+1061310674+1061800125+1062151342
2689+1062143534+1061859642+1061494922+1061143641+1060839718+1060686828
2680+1060778152+1061054940+1061366927+1061615685+1061772286+1061836091
2672+1061832059+1061795645+1061740799+1061663554+1061576582+1061543432
2663+1061656323+1061915384+1062157101+1062212267+1062108911+1061993076
2655+1061928567+1061920248+1062009652+1062170093+1062240106+1062146990
2646+1062076081+1062255337+1062632601+1062886606+1062756500+1062338982
2638+1062002420+1061980469+1062156269+1062309159+1062407331+1062510814
2629+1062569884+1062513758+1062415010+1062406627+1062510238+1062631001
2621+1062653016+1062492191+1062132910+1061695489+1061455883+1061672194
2612+1062256425+1062690455+1062499295+1061824956+1061323025+1061451020
2604+1062014388+1062456481+1062515998+1062507166+1062868047+1063535283
2595+1064037789+1064157720+1064096219+1063970080+1063569777+1062708502
2587+1061559943+1060622639+1060393913+1060935650+1061761342+1062341926
2578+1062621338+1062839504+1063062471+1063167938+1063143683+1063158531
2570+1063384889+1063874596+1064537864+1065148526+1065426530+1065204843
2561+1064537288+1063681132+1062994954+1062746324+1062934924+1063367098
2553+1063891235+1064379535+1064544456+1064137241+1063372666+1062835408
2544+1062886862+1063344635+1063736874+1063765417+1063573745+1063550002
2536+1063787368+1063926562+1063704875+1063389945+1063371066+1063599472
2527+1063763305+1063777640+1063797927+1063938017+1064210518+1064551687
2519+1064733567+1064485194+1063910947+1063548530+1063735210+1064127513
2510+1064161112+1063784808+1063384761+1063202881+1063242047+1063528819
2502+1064048093+1064552391+1064717248+1064399438+1063678060+1062819217
2493+1062208171+1062134382+1062591963+1063292285+1063853541+1064091419
2485+1064191703+1064454155+1064807740+1064788477+1064095067+1063034440
2476+1062316839+1062438369+1063291325+1064306130+1064897784+1064844795
2468+1064369615+1063888676+1063647214+1063620847+1063680492+1063679596
2459+1063478773+1063121028+1062851920+1062785619+1062764499+1062678423
2451+1062651352+1062829393+1063217024+1063714219+1064135577+1064277651
2442+1064084443+1063693932+1063367354+1063397048+1063831334+1064251732
2434+1064132697+1063481909+1062842384+1062687575+1063047047+1063598448
2425+1063923874+1063776936+1063282749+1062865103+1062899854+1063381369
2417+1063935074+1064195286+1064079579+1063643822+1062938060+1062192876
2408+1061833915+1062053746+1062610778+1063174274+1063579057+1063770473
2400+1063832358+1063988511+1064274259+1064388750+1064120218+1063663981
2391+1063292349+1063007689+1062761428+1062733077+1063088454+1063606192
2383+1063823846+1063578801+1063214656+1063143235+1063331387+1063417848
2374+1063253567+1063055751+1063075142+1063387641+1063932194+1064498633
2366+1064811452+1064730048+1064204310+1063188289+1061858106+1060625967
2357+1059795730+1059480608+1059713430+1060334395+1061034845+1061621956
2349+1062010740+1062106032+1061915256+1061643139+1061422221+1061179159
2340+1060949153+1060862565+1060875492+1060887396+1060890787+1060852453
2332+1060741418+1060650606+1060663341+1060784488+1061074908+1061542472
2323+1061953462+1062107440+1062147118+1062221867+1062149614+1061772862
2315+1061268307+1060823974+1060355450+1059818897+1059509214+1059726485
2306+1060318012+1060815975+1060970656+1060985951+1061217430+1061740991
2298+1062273000+1062469088+1062220971+1061679554+1061124633+1060824102
2289+1060872164+1061086491+1061169624+1061046941+1060941537+1060998047
2281+1060957601+1060482101+1059774867+1059569756+1060405432+1062040114
2272+1063580145+1064196054+1063858533+1063334459+1063352698+1063916706
2264+1064489802+1064564423+1063985183+1063050375+1062325478+1062045170
2255+1061797053+1061227157+1060862309+1061480458+1062690135+1063138948
2247+1062404899+1061590022+1061640387+1062237802+1062711958+1062886030
2238+1062741716+1062370212+1062391587+1063387961+1064810748+1065366180
2230+1064694913+1063908195+1064074588+1064805372+1064992692+1064485066
2221+1064052893+1063933794+1063487413+1062349925+1061139481+1060830950
2213+1061720384+1063062663+1063800807+1063762281+1063709035+1064045597
2204+1064251476+1063958113+1063634478+1063650222+1063613103+1063380089
2196+1063797159+1065350885+1066762665+1066311484+1064424141+1063492980
2187+1064828731+1067004383+1067755838+1066643886+1065077169+1064270163
2179+1064110618+1063840230+1062961739+1061371407+1059338918+1057560370
2170+1056647065+1056591323+1057271998+1058958326+1061410893+1063389369
2162+1064373839+1065749076+1068726037+1072085254+1073696001+1072949409
2153+1070620484+1067957174+1066003209+1065125423+1064982965+1065070961
2145+1065223723+1065493791+1065789842+1066038280+1066498036+1067311505
2136+1067904248+1067493258+1066044488+1064210198+1062720213+1062182316
2128+1062890830+1064411597+1065696406+1065949260+1065355365+1064840891
2119+1065027763+1065565852+1065694358+1065251625+1064714752+1064454283
2111+1064487498+1064820348+1065426530+1065926605+1065813905+1065109231
2102+1064405581+1064123098+1064045149+1063845989+1063807655+1064427149
2094+1065358437+1065522974+1064501961+1063161027+1062639961+1063214016
2085+1064291218+1065089072+1065178028+1064704513+1064223189+1064250388
2077+1064918648+1065899982+1066683692+1067113114+1067424717+1067632324
2068+1067443084+1066884388+1066311548+1065875279+1065698710+1066092485
2060+1066818918+1066921762+1066032648+1064947574+1064324945+1063837926
2051+1063133124+1062593051+1062559388+1062665304+1062682455+1063110405
2043+1064157592+1065215787+1065920269+1066533427+1066855077+1066186561
2034+1064595013+1062726613+1060597488+1058287955+1057188033+1058744831
2026+1062333030+1065659416+1067095259+1067015774+1066867236+1067221845
2017+1067165016+1065895886+1064259476+1063839654+1065121327+1067258708
2009+1069233663+1070681410+1071612890+1071682647+1070354512+1068016947
2000+1066069830+1065311335+1065116783+1064748991+1064409357+1064426189
1992+1064484042+1064183895+1063577265+1063002633+1062975178+1063841830
1983+1065151470+1065932044+1065748884+1064910328+1063680172+1062103664
1975+1060790184+1060812967+1062122415+1063019145+1062351973+1061367759
1966+1061848571+1063262078+1063731306+1062754964+1061287827+1060218752
1958+1059877135+1060229568+1060819942+1061042909+1060776232+1060419256
1949+1060315900+1060436919+1060653870+1061132697+1062219819+1063876388
1941+1065552924+1066742058+1067172055+1066650606+1065411619+1064292626
1932+1063878692+1063799975+1063473653+1063092038+1063186625+1063656813
1924+1063921442+1063785704+1063554482+1063425207+1063370106+1063479285
1915+1063904547+1064534600+1065042866+1065158253+1064797821+1064047645
1907+1063083526+1062100592+1061230229+1060455670+1059681687+1058984501
1898+1058627460+1058665154+1058784765+1058801149+1058963126+1059452321
1890+1059959179+1060079494+1059856464+1059628505+1059657048+1060026376
1881+1060628143+1061255316+1061811836+1062330534+1062777427+1063044680
1873+1063155651+1063285693+1063553202+1063874468+1064112730+1064350096
1864+1064794109+1065446433+1066004233+1066190273+1066069318+1065859727
1856+1065603994+1065235626+1064769726+1064278547+1063860517+1063675565
1847+1063775080+1063928610+1063863333+1063648110+1063489717+1063330555
1839+1063015049+1062583131+1062253289+1062150574+1062142830+1061998452
1830+1061687041+1061418445+1061278227+1061109402+1060823398+1060515507
1822+1060246975+1059937996+1059499295+1058979061+1058553223+1058336208
1813+1058256660+1058178135+1058087387+1058078427+1058204374+1058489930
1805+1059009268+1059778515+1060563121+1060989343+1061011998+1060998111
1796+1061213526+1061561799+1061804220+1061830907+1061749439+1061750527
1788+1061946358+1062272169+1062452833+1062220267+1061631492+1061026462
1779+1060746986+1060902627+1061305938+1061578758+1061419277+1060967328
1771+1060700012+1060731946+1060813351+1060824038+1060827686+1060888996
1762+1061004831+1061105306+1061165720+1061335504+1061748799+1062223531
1754+1062437601+1062344613+1062213931+1062315815+1062593115+1062814545
1745+1062901646+1062938892+1062983498+1063000713+1063015753+1063120708
1737+1063264382+1063310140+1063321596+1063468021+1063593520+1063523379
1728+1063421879+1063552562+1063934434+1064340496+1064513929+1064355152
1720+1063971680+1063655085+1063725290+1064157912+1064671874+1065078257
1711+1065269609+1065237546+1065153966+1065304423+1065843472+1066572017
1703+1067095451+1067073564+1066472437+1065800722+1065464992+1065373860
1694+1065338982+1065293800+1065229738+1065144942+1065055026+1064972405
1686+1064852986+1064621188+1064323729+1064105434+1063999583+1063943457
1677+1063813031+1063481077+1062996426+1062547933+1062179308+1061856762
1669+1061675842+1061673346+1061707073+1061760446+1062029875+1062571484
1660+1063091462+1063353978+1063393017+1063299645+1063153923+1063239103
1652+1063750249+1064269395+1064485450+1064467083+1064605317+1065140078
1643+1065792722+1066269822+1066520243+1066624431+1066650926+1066643182
1635+1066680812+1066780264+1066851621+1066834918+1066752297+1066650158
1626+1066525427+1066360762+1066212480+1066125828+1066001929+1065679383
1618+1065120559+1064557511+1064225941+1063919586+1063253183+1061974261
1609+1059979914+1057244671+1053687191+1049088155+1043293586+1036644078
1601+1030072519+1024597808+1020835601+1018930466+1018597360+1019114330
1592+1019502090+1018924322+1017090161+1014497951+1012323388+1011878543
1584+1013928824+1018219905+1023587867+1028829052+1033391033+1036941346
1575+1038897166+1039410552+1039604144+1040667011+1043263636+1046693313
1567+1049659459+1051784808+1053245162+1054146691+1054514868+1054435447
1558+1054219968+1054035528+1053620058+1052853370+1051843878+1050752084
1550+1049751359+1049038109+1048679021+1048621039+1048895715+1049575366
1541+1050552861+1051559602+1052412749+1053112047+1053699478+1054227776
1533+1054780392+1055403790+1056049394+1056596187+1056913101+1057024456
1524+1057109125+1057236351+1057368506+1057612079+1058133273+1058856570
1516+1059434530+1059558876+1059311783+1059045874+1059002868+1059125679
1507+1059179564+1059039602+1058855162+1058788989+1058870010+1058963382
1499+1058777278+1058107482+1057131652+1056181740+1055232853+1053829969
1490+1051187650+1046327057+1038481952+1027526067+1014066674+999494816+986314322
1480+977812797+976253440+981476449+991172099+1002056370+1011343910+1017677016
1470+1021250047+1023031731+1023823185+1024161667+1024531763+1025156633
1462+1025804349+1026216171+1026444130+1026797842+1027464502+1028276499
1453+1029139759+1030064583+1031036062+1032085361+1033254079+1034480011
1445+1035447073+1035063730+1031245205+1021553458+1003041800+972680152+935150874
1435+907126278+899199000+909056179+930839058+956561096+977974262+992423373
1425+1001967734+1008731925+1013459660+1016549704+1018636079+1020225515
1417+1021492213+1022590342+1023729621+1025036766+1026556829+1028293587
1408+1030218049+1032298472+1034419277+1036279486+1037649283+1038616794
1400+1039404088+1040096219+1040578694+1040721024+1040589830+1040374223
1391+1040127386+1039771881+1039237248+1038474912+1037456716+1036196865
1383+1034685186+1032891918+1030953697+1029263465+1028330705+1028632004
1374+1030381818+1033188994+1036293501+1039170370+1041562844+1043349328
1366+1044660440+1045827046+1047070001+1048315004+1049349776+1050113519
1357+1050757396+1051477877+1052307090+1053101040+1053723605+1054130180
1349+1054322876+1054362426+1054383225+1054476853+1054573361+1054500596
1340+1054138948+1053487903+1052604677+1051508916+1050190316+1048713451
1332+1047287912+1046181655+1045590384+1045636782+1046345104+1047485536
1323+1048594736+1049299282+1049501130+1049208406+1048370554+1046956406
1315+1045095622+1043113626+1041425826+1040372623+1040156568+1040843195
1306+1042297789+1044192044+1046194007+1048119684+1049864506+1051278910
1298+1052226325+1052740927+1052981045+1052980981+1052595909+1051731946
1289+1050501343+1049150553+1047948044+1047078513+1046571079+1046393294
1281+1046578054+1047124143+1047837329+1048421496+1048689708+1048638830
1272+1048440503+1048369722+1048592112+1049004575+1049390734+1049710401
1264+1050144174+1050878607+1051940833+1053205931+1054457590+1055482186
1255+1056211819+1056773267+1057335419+1057940001+1058481994+1058809340
1247+1058881849+1058855546+1058907000+1058983221+1058906616+1058680514
1238+1058473867+1058352208+1058233685+1058083355+1057982176+1057998239
1230+1058088859+1058174551+1058257620+1058398286+1058610309+1058870394
1221+1059193836+1059577244+1059924301+1060141699+1060247871+1060320700
1213+1060417272+1060574129+1060780776+1060938721+1060924450+1060697196
1204+1060311036+1059848592+1059346725+1058751167+1057943201+1056823249
1196+1055336209+1053400355+1050891918+1047777171+1044247978+1040685314
1187+1037486218+1034956086+1033348795+1032910478+1033826982+1036128580
1179+1039570033+1043510153+1047042930+1049505417+1050878799+1051578481
1170+1051986399+1052314641+1052650243+1052804989+1052218326+1050297064
1162+1046942007+1042791016+1039065607+1037082780+1037586374+1040297234
1153+1044103344+1047751700+1050467296+1052103386+1052899065+1053108912
1145+1052759678+1051691948+1049835323+1047404259+1044812050+1042436471
1136+1040452108+1038746773+1036916643+1034431181+1031043165+1027224000
1128+1024156035+1023071537+1024445879+1027766633+1031963446+1036018185
1119+1039355515+1041896398+1043824316+1045279550+1046270547+1046795133
1111+1046901049+1046569863+1045605424+1043632900+1040065820+1034034462
1102+1024579633+1011236779+994650734+976800808+960670617+949431288+945435043
1092+949444664+960352038+975544542+991911971+1006941666+1019211734+1028301714
1082+1034571399+1038740437+1041252522+1042070983+1041147374+1038823761
1074+1035743061+1032710422+1030673261+1030442295+1032190252+1035306087
1065+1038819729+1041964043+1044412643+1046191319+1047499039+1048512692
1057+1049202838+1049386446+1049054621+1048514740+1048060935+1047623322
1048+1046909368+1045806055+1044440802+1042887908+1041091440+1039178690
1040+1037612165+1036786664+1036490933+1035838289+1033617711+1028781054
1031+1021163139+1012352571+1005660697+1004323666+1009101254+1017676568
1023+1026512287+1033202369+1037290451+1039563186+1040991605+1042083590
1014+1042787560+1042809767+1041998538+1040457164+1038405027+1036078470
1006+1033700012+1031288467+1028399246+1024410616+1019527049+1015343611
997+1013803453+1015450999+1019070044+1022983925+1026245930+1028740992
989+1030829350+1033007241+1035505759+1038138670+1040601157+1042721259
980+1044374436+1045442679+1045930210+1045950625+1045615535+1045052423
972+1044482336+1044190892+1044408739+1045214017+1046532744+1048169474
963+1049792381+1051050375+1051875428+1052516041+1053129071+1053554141
955+1053665304+1053718870+1054113221+1054894563+1055675202+1056050354
946+1055977333+1055696193+1055425869+1055293202+1055440588+1055936631
938+1056599451+1057120964+1057373242+1057427319+1057305724+1056912333
929+1056228458+1055397134+1054572465+1053782291+1052965302+1052061788
921+1051101509+1050283944+1049921848+1050186156+1050896078+1051679405
912+1052372175+1053151662+1054203265+1055388750+1056373668+1056993994
904+1057364026+1057671597+1057973664+1058192727+1058264020+1058241813
895+1058211862+1058158104+1058024990+1057848869+1057681644+1057455286
887+1057130948+1056942988+1057240063+1058048541+1058997556+1059746068
878+1060293053+1060781160+1061172695+1061266259+1060982432+1060535795
870+1060288509+1060392569+1060565937+1060283773+1059214443+1057362746
861+1054754409+1051152067+1046249620+1040105755+1033250303+1026364197
853+1019928184+1014161326+1009156419+1005014452+1001991477+1000636463
844+1001580679+1004905145+1009802856+1015109125+1020096176+1024566130
836+1028322833+1030896868+1031897337+1031449100+1030127364+1028559495
827+1027294781+1026966475+1028175000+1031035934+1035065906+1039620719
819+1044237610+1048554802+1052277267+1055363535+1057968864+1060133956
810+1061769790+1062889422+1063612399+1064108570+1064686657+1065608986
802+1066674541+1067382862+1067582470+1067615684+1067879801+1068518750
793+1069371322+1070004830+1070026206+1069532979+1069102725+1069239423
785+1069919202+1070722432+1071301863+1071579995+1071622745+1071607322
776+1071825425+1072381625+1072993247+1073369999+1073564551+1073696001
768+1073741823+1073323089+1072192705+1069890147+1065600922+1058392846
759+1047631449+1033353851+1016398286+998106075+979743595+962044062+945090738
749+928488886+911761472+894923663+878910906+865599090+857763201+858921679
739+871961059+896674436+928661487+961243584+988946402+1009695980+1024381818
730+1034892537+1042549554+1047884047+1051205697+1052926775+1053453473
721+1053166253+1052594822+1052395470+1052908664+1053532317+1052489098
713+1047484512+1036917795+1020658520+1000033545+977440461+955842279+937790953
703+923756736+911026911+894866001+871598002+841264257+807907024+777745751
693+756863123+749387410+756323242+775631666+803582985+835983842+868715565
683+898166852+921906575+939372838+951786324+961081159+968730561+975275049
673+980642308+984995339+989448332+995653316+1003139844+1009275582+1013721345
663+1017643801+1021555954+1025251860+1028472651+1031206102+1033595056
654+1035720726+1037441228+1038679255+1039818215+1041404579+1043458571
646+1045397369+1046677954+1047367525+1047981834+1048829158+1049791613
637+1050743637+1051719339+1052585670+1053073329+1053306535+1053891982
629+1055235221+1056917261+1057905763+1057307452+1054779496+1050560668
620+1045815911+1042759145+1043303826+1047092656+1051640558+1054813095
612+1056518366+1058031709+1060296253+1062928780+1064702209+1065001652
603+1064626500+1064829499+1065793042+1066637614+1066823270+1066731114
595+1066793384+1066943777+1067097883+1067430540+1068025523+1068843408
586+1070001887+1071554716+1073046877+1073696001+1073205334+1071944652
578+1070852474+1070390862+1069895139+1067975349+1063607664+1056849424
569+1048846437+1041293992+1035456545+1031354384+1028013087+1024831654
561+1022844987+1024285054+1030413944+1039819047+1049196311+1055824572
552+1059004276+1059382884+1057876516+1055620420+1053980234+1053786835
544+1054882916+1056658968+1058602629+1060254143+1061176983+1061295250
535+1061086235+1060942177+1059949772+1055646659+1045259455+1026512991+997711020
526+959565000+917048414+876882321+844312063+823463288+817492023+825773782
516+842170010+858361959+868679791+871630321+868652400+862436665+856040906
506+852487138+854125020+861817235+873969805+886726124+896530250+902100572
496+903823763+902482956+898941347+894554014+891244652+890946872+895045257
486+903816723+915691544+927493089+936396965+941810046+945242539+948645402
476+952975329+958291262+964458679+970842663+976156548+979793577+982544563
466+985695021+990233195+996741397+1004822844+1012677165+1018238272+1020746197
456+1020752916+1018629743+1014213932+1007798397+999874000+990005301+978095089
446+966860432+960426915+959948663+962776959+966131376+969363238+972306088
436+974175704+975011509+976103622+978036915+979847782+980420366+979668910
426+977974582+975262122+971561352+968136026+967206146+970661230+977910713
416+985964705+993204332+999718614+1005952204+1012522356+1019826812+1027110085
407+1032495583+1034918456+1035633177+1036468854+1037044509+1035127791
398+1030628783+1027734954+1029383332+1034177048+1039680301+1043848635
390+1045452918+1045230144+1045704108+1048977312+1054032264+1057475573
381+1057676845+1055571974+1053417890+1055116122+1063801255+1073696001
##END=
