##TITLE=S. Marschner STM113
##JCAMP-DX=4.24
##DATA TYPE=INFRARED SPECTRUM
##DATE=22/5/2018
##SAMPLING PROCEDURE=Diamant-ATR
##ORIGIN=Angelika Moesle
##XUNITS=1/CM
##YUNITS=TRANSMITTANCE
##RESOLUTION=4
##FIRSTX=3997.453
##LASTX=373.96442
##DELTAX=-1.4165319
##MAXY=0.91743624
##MINY=0.77406496
##XFACTOR=1
##YFACTOR=8.5442908e-010
##NPOINTS=2559
##FIRSTY=0.87361401
##XYDATA=(X++(Y..Y))
3997+1022453507+1022640602+1022796724+1022810676+1022786888+1022785144
3989+1022724453+1022595886+1022577749+1022745242+1022871786+1022811164
3980+1022832023+1023193029+1023652326+1023772103+1023519364+1023252115
3972+1023182007+1023134640+1022947545+1022800701+1022896969+1023080995
3963+1023118037+1023071507+1023106387+1023173077+1023092435+1022777192
3955+1022325219+1021954516+1021809835+1021893756+1022145658+1022362052
3946+1022287270+1022074154+1022218208+1022792539+1023242349+1023195400
3938+1022826581+1022468575+1022417511+1022902201+1023836212+1024641238
3929+1024695651+1024072488+1023594077+1024032795+1025123626+1025830709
3921+1025761229+1025404129+1025288189+1025548462+1025953068+1026054150
3912+1025528302+1024462235+1023220863+1022119358+1021430343+1021590790
3904+1022843533+1024464677+1025322371+1025299630+1025008383+1024654353
3895+1024123971+1023666696+1023841514+1024564642+1024694883+1023709947
3887+1022641718+1022754659+1023724946+1024389964+1025009639+1026139256
3878+1026791230+1026191995+1025151530+1024525995+1024096904+1023602657
3870+1023552988+1023881068+1023814098+1023560034+1023980266+1024956621
3861+1025405734+1024917347+1023828818+1022428254+1021183603+1021546492
3853+1024591779+1027479687+1027883944+1026804205+1025360320+1024076185
3844+1023324246+1023262370+1023615074+1024161362+1025102907+1026388019
3836+1027351120+1027585234+1027238528+1026613761+1026021293+1025739603
3827+1025805247+1025724117+1024888955+1023756686+1023928504+1025766949
3819+1026959908+1026493635+1025749021+1025585225+1025393805+1024707649
3810+1023743572+1023035372+1023210189+1024045979+1024371338+1024173500
3802+1024775944+1026322515+1027224018+1027196812+1027150631+1027156700
3793+1026693985+1025905352+1025373993+1025311907+1025606153+1026261266
3785+1027105497+1027378815+1026630713+1025649683+1025623733+1026451570
3776+1026919587+1026458686+1025428755+1024544063+1024468583+1025133811
3768+1025694748+1025876053+1026061405+1026086518+1025577273+1025055262
3759+1025440335+1026479683+1026901241+1026276822+1025202385+1024560317
3751+1024977201+1025677727+1025333951+1024432727+1024584803+1026221224
3742+1027338215+1026812995+1025594155+1024865655+1025439218+1027310520
3734+1029100552+1029347361+1028140450+1026448570+1025233846+1025244659
3725+1026492100+1027854436+1028228557+1027718684+1027040202+1026557116
3717+1026203854+1025858613+1025703049+1026387112+1028280946+1030159712
3708+1030538088+1029561803+1028156565+1027243342+1027518753+1028759009
3700+1029651165+1029418935+1028524058+1027595000+1026765209+1026055335
3691+1026023106+1027500545+1029840074+1030789223+1029788870+1028108012
3683+1026842503+1026275218+1025916374+1025129277+1024323134+1025045844
3674+1027123843+1028196328+1028275296+1029007493+1030280117+1030610290
3666+1030133831+1029797869+1029750223+1029573034+1029141989+1028919386
3657+1029483672+1030508301+1030603941+1029275718+1027749657+1027920847
3649+1030499651+1033076920+1033406743+1032027875+1030128809+1028554613
3640+1027724125+1027500406+1027450598+1027356910+1027198626+1026736189
3632+1025772321+1025088397+1026423317+1029625493+1031719746+1031613712
3623+1030314230+1029039791+1028833861+1029932435+1031025848+1030861424
3615+1029860374+1028968637+1028421930+1027954960+1027684013+1028000931
3606+1028668112+1028961940+1028668600+1028120569+1027645855+1027389558
3598+1027493151+1028066854+1028959568+1029708647+1029782173+1029060440
3589+1028189282+1028321616+1029619912+1030489187+1029981686+1028774705
3581+1027812999+1027518753+1027894687+1028791726+1029888766+1030670422
3572+1030701814+1029922529+1028718409+1027888409+1028127615+1028946383
3564+1029309203+1029215725+1029284159+1029741154+1030234564+1030357132
3555+1030083953+1029690788+1029340386+1028826885+1027988444+1027223949
3547+1027208601+1028127196+1029417888+1030438611+1030951484+1030885561
3538+1030208335+1029186287+1028445718+1028378540+1028702783+1028933129
3530+1028919456+1028701806+1028272645+1027763121+1027476688+1027524612
3521+1027744216+1028038322+1028493015+1029118341+1029635190+1029657582
3513+1029163615+1028617815+1028431906+1028421024+1028114639+1027502847
3504+1027074942+1027207276+1027666155+1027874527+1027620183+1027211601
3496+1027019971+1027112542+1027378257+1027734728+1028025696+1027985235
3488+1027524961+1026885614+1026423457+1026444036+1027127890+1028238811
3479+1029067137+1029070207+1028437417+1027804209+1027512684+1027396115
3471+1027266990+1027223739+1027374839+1027633996+1027972399+1028539196
3462+1029337665+1030070420+1030474258+1030528531+1030262259+1029671325
3454+1028910387+1028314710+1028137660+1028366053+1028788029+1029137315
3445+1029233025+1029086670+1028870345+1028732430+1028653323+1028523221
3437+1028306199+1028078155+1027946030+1027935497+1027923079+1027785862
3428+1027650529+1027772189+1028166122+1028644045+1029161313+1029737946
3420+1030110253+1029935575+1029332433+1028803376+1028640208+1028691830
3411+1028726361+1028754684+1028893924+1029109063+1029218236+1029079205
3403+1028735221+1028427860+1028397305+1028603305+1028783983+1028887367
3394+1029176869+1029709902+1030063165+1029905299+1029522319+1029394379
3386+1029502228+1029443839+1029120643+1028892808+1029024026+1029324899
3377+1029500902+1029574150+1029677743+1029650327+1029257162+1028690714
3369+1028431697+1028666089+1029158801+1029635608+1030014194+1030287372
3360+1030371991+1030180780+1029819285+1029571290+1029598147+1029778267
3352+1029905369+1029897974+1029807287+1029740527+1029706903+1029542200
3343+1029154755+1028754195+1028611467+1028771426+1029133548+1029534875
3335+1029675232+1029327061+1028696016+1028221511+1027974283+1027563399
3326+1026771209+1025961439+1025592829+1025583691+1025486446+1025078980
3318+1024492511+1023977894+1023727666+1023716714+1023711482+1023636700
3309+1023724457+1024107438+1024609079+1025076189+1025541137+1025965904
3301+1026159556+1026041663+1025813060+1025778599+1026029873+1026413551
3292+1026814739+1027255131+1027652900+1027807209+1027709266+1027598837
3284+1027681920+1027986561+1028401979+1028724548+1028814049+1028757962
3275+1028747568+1028873415+1029173102+1029673418+1030218031+1030489605
3267+1030359713+1029993056+1029552106+1029132502+1029007214+1029449141
3258+1030215938+1030714441+1030797245+1030923580+1031408828+1031964045
3250+1032131328+1031841686+1031385737+1031036032+1030867144+1030859331
3241+1030985596+1031158740+1031259612+1031286679+1031343603+1031456474
3233+1031535302+1031493307+1031311164+1031061216+1030913674+1030978341
3224+1031135719+1031216152+1031311095+1031658079+1032231573+1032713961
3216+1032889127+1032829971+1032704194+1032592160+1032513611+1032496031
3207+1032562094+1032674546+1032701055+1032524982+1032251036+1032180509
3199+1032457454+1032840295+1032979535+1032906148+1033032343+1033562028
3190+1034111594+1034186377+1033842671+1033516684+1033405278+1033384699
3182+1033316753+1033109846+1032729447+1032351490+1032251524+1032463244
3173+1032743329+1032822716+1032581696+1032145350+1031854522+1032006319
3165+1032611902+1033436252+1034165728+1034585681+1034717806+1034689971
3156+1034460741+1033929592+1033314730+1033070293+1033349471+1033811698
3148+1034046160+1034010792+1033927917+1033877690+1033730009+1033443507
3139+1033150098+1032930215+1032799207+1032861711+1033145982+1033411836
3131+1033441763+1033298825+1033056829+1032696172+1032443712+1032647619
3122+1033122264+1033221741+1032723239+1032073428+1031728745+1031733629
3114+1031870706+1031843919+1031484378+1031044543+1031033172+1031552254
3105+1032080822+1032102029+1031682565+1031261217+1031083330+1031093096
3097+1031263240+1031672868+1032217970+1032585882+1032616018+1032406460
3088+1032035269+1031497841+1030946949+1030657308+1030666516+1030703070
3080+1030543948+1030266514+1030054724+1029888766+1029572546+1029061905
3071+1028634627+1028603933+1028878926+1028999610+1028693016+1028199397
3063+1027915615+1027912476+1027984468+1027998490+1028036578+1028242718
3054+1028560961+1028696155+1028477180+1028141567+1028043694+1028226952
3046+1028530058+1028899574+1029341083+1029756223+1030008962+1030046841
3037+1029934947+1029835539+1029859188+1029946178+1030023611+1030179454
3029+1030498116+1030840775+1030976388+1030891072+1030847751+1031053054
3020+1031326791+1031300212+1030934881+1030563202+1030433379+1030516323
3012+1030703209+1030911651+1031086817+1031275727+1031566833+1031922607
3003+1032238967+1032485428+1032622715+1032532795+1032154209+1031553649
2995+1030845100+1030161596+1029659815+1029421446+1029351408+1029217678
2986+1028809933+1028085480+1027188022+1026344489+1025749300+1025469494
2978+1025399246+1025370994+1025310233+1025203571+1025009499+1024760527
2969+1024626658+1024698162+1024839914+1024905278+1024925718+1024967853
2961+1025002593+1025034403+1025181387+1025520907+1025954951+1026269497
2952+1026281636+1026006922+1025720629+1025711281+1025950836+1026168765
2944+1026214597+1026133955+1025963043+1025705840+1025453170+1025276121
2935+1025067470+1024694186+1024240818+1023916227+1023777893+1023725015
2927+1023702483+1023735828+1023782009+1023730178+1023584799+1023524526
2918+1023702553+1024026447+1024217867+1024143155+1023989893+1023982568
2910+1024046049+1023978801+1023853513+1023955362+1024354526+1024792407
2901+1025008034+1024994152+1024894884+1024795407+1024709045+1024696279
2893+1024882327+1025358716+1026094261+1026905147+1027520776+1027795489
2884+1027866923+1028021022+1028402747+1028912759+1029333479+1029498740
2876+1029378265+1029054441+1028654648+1028289596+1027982933+1027647389
2867+1027248574+1027001067+1027230297+1027955866+1028737453+1029074462
2859+1028918061+1028666856+1028668461+1028883320+1029043768+1028950429
2850+1028600306+1028209931+1028096851+1028373447+1028804911+1029072997
2842+1029098110+1029057161+1029182589+1029543386+1029966548+1030240075
2833+1030400801+1030680189+1031164041+1031660730+1031950860+1032067149
2825+1032230178+1032527772+1032779604+1032783790+1032558955+1032274754
2816+1032087798+1032075172+1032176951+1032238479+1032251594+1032430806
2808+1032886895+1033389443+1033625021+1033537612+1033290942+1033049783
2799+1032892406+1032816716+1032779465+1032774791+1032835342+1032929588
2791+1032974861+1032998998+1033163352+1033579747+1034167542+1034696529
2782+1034950872+1034893181+1034669462+1034425443+1034192725+1033986097
2774+1033878876+1033928615+1034133499+1034455370+1034798796+1035012540
2765+1035009749+1034868765+1034764893+1034800750+1034936223+1035101483
2757+1035318715+1035605776+1035839959+1035883977+1035807590+1035827262
2748+1036032495+1036267167+1036260051+1035876373+1035296810+1034911877
2740+1034952407+1035265488+1035509298+1035506996+1035344875+1035194682
2731+1035152896+1035231864+1035389242+1035538109+1035589870+1035509159
2723+1035318854+1035096530+1034926875+1034777171+1034520386+1034194678
2714+1034049857+1034176750+1034341452+1034362101+1034357985+1034451114
2706+1034534826+1034500853+1034439255+1034496249+1034712364+1035030189
2697+1035343898+1035577383+1035758828+1035956946+1036154086+1036285095
2689+1036358552+1036446798+1036580806+1036713210+1036765250+1036687189
2680+1036512093+1036358621+1036349832+1036482515+1036605710+1036584294
2672+1036447495+1036298698+1036156388+1036006824+1035915299+1035939645
2663+1035997825+1035954225+1035801451+1035690255+1035793569+1036155551
2655+1036642125+1037049172+1037248615+1037222594+1037023361+1036766436
2646+1036604245+1036612825+1036741113+1036911676+1037087888+1037205643
2638+1037164903+1036965809+1036773273+1036795177+1037106445+1037579345
2629+1037960860+1038049664+1037823643+1037418410+1037046451+1036921582
2621+1037132046+1037551790+1037939444+1038135748+1038117680+1037922213
2612+1037622247+1037392738+1037464869+1037894658+1038440737+1038769723
2604+1038743982+1038490894+1038295288+1038413670+1038847365+1039330311
2595+1039630278+1039761775+1039821977+1039768750+1039505199+1039138751
2587+1039008161+1039320615+1039815141+1039996237+1039728081+1039387793
2578+1039406349+1039863693+1040556406+1041251561+1041795407+1042113860
2570+1042220382+1042180410+1042028683+1041797709+1041616473+1041643470
2561+1041854005+1042037822+1042080445+1042129625+1042365761+1042665798
2553+1042679889+1042281841+1041737716+1041337574+1041067396+1040753756
2544+1040393797+1040228955+1040465231+1040942596+1041244934+1041218844
2536+1041149572+1041325646+1041654004+1041786617+1041509881+1041039073
2527+1040874929+1041215844+1041712114+1042052332+1042427080+1043061195
2519+1043683242+1043891614+1043771139+1043734933+1043914774+1044054363
2510+1043923703+1043527399+1042952091+1042311419+1041843750+1041839076
2502+1042386410+1043192622+1043706193+1043618714+1043222479+1042981181
2493+1042949998+1043017735+1043322026+1043887358+1044295033+1044235319
2485+1044011600+1044126703+1044638460+1045099362+1045041461+1044501801
2476+1043982092+1043838387+1043948049+1044025622+1043937515+1043696984
2468+1043468103+1043504866+1043828132+1044120495+1044137516+1044003299
2459+1043904728+1043733608+1043318399+1042896004+1042944906+1043505913
2451+1044069849+1044285686+1044339889+1044438529+1044409928+1044141772
2442+1043975325+1044264688+1044797372+1045022417+1044725450+1044206439
2434+1043891125+1043969675+1044311008+1044577002+1044511428+1044244876
2425+1044206997+1044632251+1045280667+1045766333+1046006307+1046174148
2417+1046374009+1046594101+1046823122+1046955805+1046730411+1046010841
2408+1045028905+1044215438+1043866849+1043991509+1044361235+1044705569
2400+1044871039+1044793605+1044461898+1044003927+1043653873+1043545118
2391+1043645292+1043842782+1043961931+1043825900+1043449686+1043055405
2383+1042831198+1042779366+1042783343+1042696283+1042412710+1042007825
2374+1041803150+1042146577+1043057428+1044189487+1045184957+1045921200
2366+1046346315+1046380567+1046161940+1046018654+1045958940+1045584679
2357+1044809092+1044268664+1044597720+1045468251+1045830931+1045094060
2349+1043629317+1042372179+1042223382+1043294681+1044569886+1044922940
2340+1044229180+1043240338+1042793458+1043073822+1043557256+1043799531
2332+1044005880+1044449760+1044759912+1044388023+1043376997+1042220382
2323+1041368269+1041069698+1041326971+1041946088+1042822338+1043957397
2315+1045073551+1045640557+1045483388+1044963052+1044448365+1044042992
2306+1043849130+1044017530+1044433436+1044712405+1044639367+1044396185
2298+1044263642+1044290778+1044356980+1044383628+1044353492+1044278012
2289+1044247667+1044343237+1044427786+1044243272+1043810065+1043490286
2281+1043555302+1043903124+1044331727+1044873410+1045618164+1046294484
2272+1046350082+1045596887+1044607626+1044271873+1044938845+1045981193
2264+1046296228+1045389701+1043879057+1042747556+1042354181+1042510722
2255+1043172392+1044425763+1045886878+1046765152+1046758943+1046429887
2247+1046291972+1046033443+1045380842+1045181469+1046428073+1048491563
2238+1049587556+1048956929+1047634287+1047111229+1047793408+1048723792
2230+1048667287+1047436658+1045886599+1044821649+1044507591+1044968842
2221+1046061835+1047427868+1048728466+1049754770+1050395582+1050781841
2213+1051180028+1051524850+1051444627+1050807721+1049881942+1048992088
2204+1048314443+1047960343+1047989642+1048221035+1048261216+1048070494
2196+1048280470+1049398786+1050924987+1051959522+1052453700+1053087745
2187+1054121164+1055076522+1055485731+1055371744+1054993996+1054593227
2179+1054408015+1054392250+1053932324+1052564617+1051051741+1050832486
2170+1052165592+1053592456+1053508814+1051798168+1049644480+1048194038
2162+1047934951+1049143745+1051869951+1055045200+1056789539+1056301500
2153+1054670311+1053695142+1054197062+1055452665+1056099128+1055528843
2145+1054375368+1053530090+1052921926+1051926456+1050891782+1051155682
2136+1053157156+1055468850+1056295989+1055373139+1053933929+1053192733
2128+1053161481+1053018962+1052501834+1052285230+1052765386+1053252238
2119+1052828937+1051407026+1049527493+1047679072+1046238536+1045649835
2111+1046146105+1047422497+1048919887+1050284943+1051349265+1052083695
2102+1052855515+1054094167+1055402718+1055764840+1054942304+1053880842
2094+1053470167+1053593153+1053558134+1052972641+1052064790+1051334267
2085+1051068971+1051258369+1051741524+1052271906+1052687673+1053107208
2077+1053643031+1054025453+1054000689+1053894584+1054142929+1054514747
2068+1054461660+1054006339+1053695421+1053893747+1054537629+1055301287
2060+1055801045+1055972026+1056073596+1055948517+1054948443+1053154784
2051+1051720456+1051507062+1052313552+1053646449+1055109588+1055946564
2043+1055534284+1054432919+1053855240+1054221548+1055124307+1056404884
2034+1058144689+1059757392+1060518539+1060852757+1061530681+1062100478
2026+1061759423+1060809437+1059752090+1058363176+1056696410+1055524588
2017+1055431947+1056552217+1058428262+1059338485+1057646815+1054588483
2009+1053366086+1054698355+1055886012+1055001460+1053150459+1052095833
2000+1052180660+1052805497+1053315719+1053396710+1053560785+1054762952
1992+1056709315+1057606982+1056661600+1055187091+1054611504+1054967557
1983+1055669897+1056507989+1057421073+1058002170+1057631816+1056147401
1975+1054302329+1053350320+1054159043+1056631115+1059742254+1062183562
1966+1063271951+1063230584+1062607560+1061822276+1061160467+1060815715
1958+1060873476+1061085615+1060762907+1059563390+1058341830+1058307438
1949+1059405943+1060361092+1060239082+1059314697+1058489720+1058343295
1941+1058745598+1059188293+1059201059+1058580477+1057699204+1057386332
1932+1058052537+1059182084+1059902422+1059728930+1058778874+1057617027
1924+1056822954+1056511686+1056458599+1056598886+1056939173+1057271089
1915+1057447721+1057608796+1057879184+1058164291+1058280790+1058238934
1907+1058312949+1058630844+1058893419+1058855540+1058821846+1059215708
1898+1059945045+1060521957+1060546303+1060067892+1059664123+1059911212
1890+1060677661+1061281291+1061500266+1061783490+1062452973+1063272509
1881+1063735225+1063621028+1063263580+1063158801+1063304947+1063233723
1873+1062723361+1062121196+1061896780+1062009232+1061983421+1061734031
1864+1061599604+1061705359+1061844948+1061852831+1061822555+1061927265
1856+1062202885+1062514222+1062671530+1062596887+1062366332+1062123987
1847+1062041949+1062208047+1062354054+1062057785+1061504242+1061245713
1839+1061426530+1061745750+1061932566+1062013906+1062101036+1062189631
1830+1062154751+1061852831+1061405253+1061197858+1061400580+1061680316
1822+1061694128+1061539401+1061435111+1061330401+1061015088+1060442082
1813+1059793109+1059327463+1059158226+1059140508+1059071166+1058920555
1805+1058845564+1059095582+1059783900+1060623039+1061118402+1061132354
1796+1060961513+1061049828+1061760958+1062918061+1063689393+1063722807
1788+1063510250+1063603100+1064129087+1064802337+1065357136+1065836384
1779+1066342490+1066745701+1066857037+1066766489+1066872594+1067448250
1771+1068143195+1068508526+1068537477+1068324152+1068010792+1068033882
1762+1068801935+1069914462+1070560017+1070677074+1070624545+1070471841
1754+1070253982+1070351785+1071183808+1072513844+1073496548+1073741823
1745+1073570354+1073393862+1073237252+1072805788+1071897728+1070574946
1737+1068855929+1066341862+1062322662+1056915525+1050896804+1044239854
1728+1036749973+1028587609+1019836963+1010649692+1001743970+993827090+986928562
1718+980879427+976055131+972924528+971222394+970713916+971448764+973274233
1708+976027645+979965576+984831797+989178170+992567162+996514928+1001682232
1698+1006045348+1009112120+1012287508+1015137537+1016787143+1017869044
1690+1019125066+1020306306+1021124796+1022606908+1026083867+1029806101
1681+1031364112+1031570879+1031697214+1032234363+1033215951+1034300922
1673+1035130085+1035986593+1037446244+1039157168+1040060206+1040183123
1664+1040367707+1041199520+1042417732+1043267544+1043456662+1043159835
1656+1042826663+1043534654+1046218097+1048345346+1048183853+1047361596
1647+1047463794+1048652219+1049461291+1049388392+1049073218+1048955883
1639+1049155116+1049877128+1051296736+1052591684+1052810660+1052349409
1630+1051879508+1051684460+1051664788+1051650697+1051805284+1052332248
1622+1052838703+1052827193+1052560292+1052674628+1052996639+1052112296
1613+1049115562+1043877522+1036351994+1027233436+1018498834+1012368010
1605+1009971349+1011150984+1014772555+1019230194+1023340361+1026817808
1596+1029864350+1032614135+1035027468+1037103166+1038952493+1040630491
1588+1042051285+1043156487+1044053665+1044895385+1045674739+1046242861
1579+1046594938+1047069931+1047987131+1048740186+1048486121+1047543041
1571+1046582172+1045765427+1044713870+1043303819+1041847308+1040471369
1562+1038997349+1037407806+1036531835+1037507283+1038893128+1039536870
1554+1039914548+1040382914+1041085882+1042024079+1042949719+1043676893
1545+1044284709+1044755517+1045055971+1046114922+1048801435+1051030464
1537+1051460602+1051098061+1050993561+1051313200+1051328756+1050701826
1528+1049912217+1049596206+1049944307+1050758262+1052027887+1053518650
1520+1054417433+1054668428+1054987160+1055508403+1055793302+1055718171
1511+1055468989+1055181021+1055245131+1056570912+1058543365+1059245426
1503+1059008522+1058755644+1058768828+1058746784+1058102973+1056503803
1494+1054256497+1052005075+1050505034+1050621952+1052437376+1054545302
1486+1055744819+1055905545+1055172999+1053556250+1051009187+1047608755
1477+1043649408+1039741963+1036836405+1035843586+1036588479+1037692425
1469+1038403834+1038991001+1039894457+1041035446+1041759411+1041845913
1460+1041843960+1042645916+1044882619+1047037493+1046695741+1043912890
1452+1039701153+1035296601+1032266662+1031653754+1032945702+1034829491
1443+1036698072+1038547887+1040311062+1042012569+1044036574+1046395007
1435+1048069168+1048485982+1048206664+1047995014+1048245520+1048812806
1426+1049397321+1049885011+1050203603+1050333914+1050578701+1051414351
1418+1052732878+1053803409+1054351161+1054498563+1054247219+1053478608
1409+1052034444+1049672872+1046069509+1041158432+1035732529+1031164390
1401+1028502224+1028263018+1030211544+1033321985+1036539438+1039052319
1392+1040412841+1040921040+1041273117+1041925578+1042727395+1043151185
1384+1043041453+1042711351+1042471726+1042374202+1042314000+1042239985
1375+1042140089+1041781804+1040633909+1038242061+1034549197+1030053189
1367+1025880030+1023351313+1023504854+1026563255+1031158670+1035302461
1358+1038194485+1039944196+1040708622+1040593100+1039743498+1038307356
1350+1036521650+1034861929+1033911663+1033989724+1034989798+1036632219
1341+1038766235+1041292789+1043910867+1046264138+1048283888+1050110614
1333+1051861440+1053584154+1055291870+1056985075+1058646261+1060224711
1324+1061661620+1062956707+1064173315+1065321558+1066254733+1066750514
1316+1066676011+1065944093+1064371293+1061788373+1058334435+1054621410
1307+1051629908+1050272107+1050791467+1052600195+1054747535+1056460204
1299+1057274089+1056923756+1055354793+1052761688+1049366278+1045134032
1290+1039857624+1033551704+1026677312+1019930999+1013781619+1008125928
1282+1002325835+995672651+987916428+979352947+970516775+961946527+954132753
1272+947483685+942320915+938912181+937423860+937838371+939966947+943501318
1262+948004231+952909169+957649963+961878302+965505314+968486840+970698778
1252+972158777+973266560+974630639+976656110+979375828+982574864+985974530
1242+989392053+992814320+996274886+999687177+1002901072+1005884552+1008718676
1232+1011400375+1013725881+1015414134+1016294221+1016275177+1015157139
1224+1012780220+1009536607+1006472974+1004613183+1004267384+1005091734
1215+1006623376+1008590178+1010860714+1013321764+1015818391+1018127016
1207+1020022384+1021465990+1022677993+1023893415+1025093420+1026075566
1198+1026646967+1026587950+1025606642+1023629166+1021160512+1019156040
1190+1018397264+1018972921+1020342860+1021740843+1022420859+1021747261
1181+1019445123+1015905660+1012111923+1009132559+1007570153+1007369594
1173+1008081701+1009271939+1010658621+1011990123+1013030238+1013718138
1164+1014197177+1014566903+1014710329+1014537883+1014334743+1014611201
1156+1015574581+1016973331+1018484673+1020004944+1021483011+1022722360
1147+1023544129+1024083022+1024738623+1025827989+1027380001+1029196192
1139+1030956437+1032345769+1033250831+1033762448+1033918500+1033574585
1130+1032518703+1030564388+1027640134+1023990311+1020196295+1016835277
1122+1014105374+1011748685+1009251081+1006175798+1002351088+997730141+992240408
1112+985979692+979489536+973652679+969233617+966377240+964365024+961937180
1102+958133955+953042131+947856899+944262674+943531523+945866727+950451189
1092+956129831+962023612+967628099+972652815+976966819+980600318+983689623
1082+986430130+989027699+991537440+993716103+995192565+995894068+996189221
1072+996485281+996819848+997052915+997305584+997891914+998865758+999918640
1062+1000720387+1001187009+1001450142+1001708950+1002077979+1002494792
1054+1002817361+1003049591+1003389948+1003985486+1004697941+1005204675
1045+1005277783+1004922636+1004359816+1003962953+1004061245+1004688384
1037+1005615140+1006643467+1007675490+1008449752+1008391224+1006839003
1028+1003365113+997891914+990742669+982855019+975928098+971951940+972089366
1018+975804763+981193694+986340488+990410125+993543866+996087511+998227387
1009+1000093039+1001710485+1002862635+1003345511+1003405644+1003704843
1000+1004783396+1006603634+1008584179+1010001974+1010351818+1009456663
992+1007510997+1005143774+1003183390+1002064585+1001449514+1000538454+998636597
982+995191170+989402726+980467636+968869890+957359902+949901274+949043789
972+954234393+962601919+971110639+978085624+983318293+987314263+990556550
962+993274315+995611890+997744860+999750519+1001469326+1002569993+1002746694
952+1001780594+999227043+994032742+985065283+972770429+960267692+951996295
942+950652864+955416958+963136068+970887269+977334662+982337263+986117118
932+988933942+991070748+992812437+994408467+995991941+997493865+998757002
922+999765168+1000641977+1001448677+1002149482+1002772924+1003415131+1004013041
912+1004327238+1004299195+1004216460+1004306310+1004367420+1004053501
904+1003355905+1002604385+1002141600+1002120323+1002530649+1003362602
895+1004679873+1006427351+1008299769+1010007973+1011541429+1012948829
887+1014005338+1014296445+1013617056+1012220887+1010667620+1009393879
878+1008459379+1007708835+1007020378+1006320340+1005501711+1004473803
870+1003340698+1002555135+1002740556+1004162605+1006455604+1009014875
861+1011503480+1013848798+1015978698+1017746128+1018997964+1019631800
853+1019664727+1019294792+1018875815+1018835564+1019559739+1021233132
844+1023714621+1026590043+1029416284+1031960208+1034221536+1036286281
836+1038254479+1040259300+1042368343+1044400789+1045837488+1045816351
827+1043395344+1038349212+1031769206+1025340160+1020142371+1016828929
819+1016434019+1019632149+1025306954+1030995711+1034602493+1034845884
810+1030716812+1021935542+1009869919+996839869+984170895+971547892+958582161
800+946588669+938356685+936175163+940169598+948305174+957728582+966282785
790+973127599+978275300+982018113+984965666+988129892+992418155+998009877
781+1004343841+1010659109+1016458924+1021416809+1024956901+1026235176
772+1024692163+1020452452+1014039381+1005921106+996638752+987299823+979445029
762+974110791+971265575+970393719+971116359+972669069+973301370+971184514
752+966003119+959156701+952512376+947397462+944481440+943872508+945130623
742+947502799+950218331+952461173+953368187+952511888+950422030+948370260
732+947389021+947234573+946129372+941746445+933034375+921579637+911217195
722+905944066+907610135+914914873+924518331+933572362+941308424+948237158
713+954345450+958690079+960643139+960730478+960067064+959575956+959880248
703+961366964+964038828+967459351+970995884+974244938+977219558+980026127
693+982530637+984579546+986321374+988050227+989952432+992135350+994506898
683+996529717+997641965+998092263+998763699+999994747+1001193985+1001825240
673+1002112998+1002514813+1003168531+1004109239+1005400769+1006858466
664+1008381806+1010108776+1011942965+1013384617+1014101816+1014353230
656+1014618177+1015163976+1016017624+1017018535+1017877206+1018319413
647+1018064650+1016726591+1014203456+1011359565+1009857432+1010681641
639+1012779522+1013839031+1012810705+1010994234+1010130052+1010331518
630+1010769050+1011449765+1013137180+1015914380+1018859980+1021046455
622+1021683082+1019318859+1012880674+1004482523+999217276+1000214909+1005485178
612+1010992142+1014855359+1017520525+1019605571+1021065709+1021807882
603+1021991349+1021796860+1021451689+1021392114+1021929612+1022889505
595+1023984870+1025202664+1026315957+1026413481+1024619055+1021257757
586+1018069255+1017071204+1018676721+1021195183+1022810676+1023480159
578+1024306043+1025827780+1027536890+1028596050+1028787889+1028784680
569+1029230026+1029670697+1029136548+1027579164+1025724326+1023862093
561+1021793162+1019815128+1018916067+1019761832+1021947750+1024463630
552+1026516167+1027793745+1028496015+1029245652+1030405196+1031475309
544+1031705167+1031038125+1030019286+1029176241+1028702713+1028456392
535+1028211814+1027892036+1027394790+1026474451+1025112674+1023669208
527+1022578935+1022156191+1022297036+1022269690+1021482872+1020403342
518+1020063194+1020468497+1020230198+1018016377+1013782875+1008969880
510+1005668088+1004863201+1005553891+1006112247+1006130733+1006293273
501+1006858466+1007064257+1006256719+1004845343+1003747257+1003338186
493+1003268706+1002997759+1002135251+1000772009+999734404+999699525+999788398
483+998379952+995909345+994831350+996270770+998488498+999247831+998473499
473+997659195+997631571+998083055+998762165+999521917+999855856+999678457
463+999880900+1001263675+1003423432+1004889501+1004053641+1000772916+996724486
453+993383001+991033915+989512179+988919641+989426584+990871236+992999602
443+995530271+997444475+997345765+995225561+992693078+991127812+989984033
433+987657899+983800471+979382176+975273404+972219817+971422185+973337575
424+976203579+977941779+978891557+980629897+982823209+984420704+986565533
414+990503603+995145477+997482285+995808543+991245357+985695072+980497702
404+977034625+976428972+978564384+982472736+987107426+991456310+994799679
394+995724412+991344206+980463380+967052303+957903051+956637263+961335224
384+967251676+971577121+974451845+976503127+978026468+979693443+982978912
374+988689923
##END=
