##TITLE=SiO-R7
##JCAMP-DX=5.0
##DATA TYPE=LINK
##BLOCKS=1


$$ === CHEMSPECTRA SPECTRUM ORIG ===
##TITLE=SiO-R7
##JCAMP-DX=5.00
##DATA TYPE=INFRARED SPECTRUM
##DATA CLASS=XYDATA
##ORIGIN=Angelika Moesle
##OWNER=
##XUNITS=1/CM
##YUNITS=TRANSMITTANCE
##XFACTOR=1
##YFACTOR=8.9220031e-010
##FIRSTX=3997.453
##LASTX=373.96442
##MAXX=3997.453
##MAXY=0.9579927873405651
##MINX=373.96442
##MINY=0.4523175340504632
##NPOINTS=2559
##XYDATA= (X++(Y..Y))
2559I80938920I80748589I81136199I81886702I82455558I82613755I82486489I82212316
2551I81916097I81741264I81639852I81392936I81047681I81049819I81695235I82607676
2543I83002368I82509337I81550332I80817734I80623193I80900373I81508979I82210980
2535I82615760I82551826I82355949I82494306I83030560I83663484I84043478I83954826
2527I83455449I82918259I82622307I82308183I81605714I80832231I80743512I81541313
2519I82612687I83329251I83542096I83392851I83203121I83355640I83875527I84289325
2511I84251045I84048756I84175554I84624760I84785296I84258194I83527199I83401669
2503I84013549I84603182I84419531I83567216I82721982I82364568I82394697I82416610
2495I82340183I82531650I83291506I84264674I84756569I84611733I84281709I84086501
2487I83876529I83505620I83275472I83521587I83794491I83521787I83138653I83449503
2479I84220314I84703124I85151662I85963092I86370944I85674087I84341100I83181609
2471I82690382I83264984I84946633I86641443I87273899I87156119I87024711I86973137
2463I86747866I86358652I85833087I85028003I84125984I84214302I86155294I88097287
2455I88283410I87294676I86040654I84942224I84190051I83882475I83959035I84451331
2447I85581494I87021304I87732792I87374710I86676049I86374819I86573635I87082298
2439I87745685I88099893I87568315I86459930I85864018I85945522I85610154I84974958
2431I85344598I86745461I87746554I87734128I87157856I86669702I86788284I87243703
2423I87132336I86615522I86921095I88085797I88499461I87760850I86910339I86577643
2415I86573301I86688675I86885687I87020569I87012419I87018899I87074348I86897980
2407I86503956I86590203I87728182I89320779I90243575I90190464I89543311I88777376
2399I88317281I88312805I88481691I88618711I88755931I88716716I88355293I88101897
2391I88505875I89273146I89581123I89211350I88541483I88199701I88811180I89860841
2383I89958379I89123433I88840107I90115373I91614241I91836773I91080124I90293947
2375I90238631I90941568I91604487I91692872I91331516I90635594I89701040I88899097
2367I88616439I88833694I89360061I90161269I91034562I91486306I91211465I90435376
2359I89810068I90019440I91094754I92188441I92702115I92658691I92074002I91109719
2351I90386808I90479401I91124216I91602683I91598875I91188484I90496236I89694694
2343I89293255I90081837I91987621I93495574I93677421I93049508I92326998I91676972
2335I90829199I89668506I88851598I89514651I91367258I92627292I92955111I93232424
2327I93762800I94120681I94165174I93990676I93606072I93044231I92348309I91665615
2319I91505079I92122370I92550064I91748121I90145770I89247292I90092258I91700755
2311I92540110I92488869I92113284I91859153I91800296I91658934I91231574I90780431
2303I90744489I91065226I91240927I91236250I91798893I93042828I93683500I93103087
2295I91827687I90590033I89955706I90133278I90723178I91190488I91502941I91699886
2287I91426314I90516679I89548922I89104460I88893218I88360705I87590227I87004669
2279I86733970I86559338I86343888I86263653I86494937I86715398I86320906I85391430
2271I84931334I85829145I87395821I87934814I87088645I85802289I84888311I84417260
2263I84039670I83707643I83714924I83962108I83778056I82790325I81522808I80935446
2255I81367082I81989985I81946093I81327733I80541222I79630384I78458067I77227560
2247I76434435I76313583I76517543I76401567I75703841I74793003I74129750I73654222
2239I72960706I72042519I71316535I71003681I70940749I70875145I70654551I70189512
2231I69478759I68663922I67899390I67191176I66535939I66100295I65961405I65788309
2223I65160731I64136122I63206712I62859920I63280533I64198252I65016362I65398428
2215I65602855I65911567I66083928I65874089I65577535I65583281I65810890I65994273
2207I66131026I66358635I66749586I67326392I68039216I68777626I69503143I70238815
2199I70898461I71315800I71467517I71534457I71719778I72040983I72295515I72273936
2191I71991012I71674884I71532052I71613088I71891403I72312083I72706508I72879269
2183I72893098I73063521I73536977I74100622I74521970I74797413I74986742I75122158
2175I75284231I75501418I75682998I75912477I76546737I77688257I78864049I79619361
2167I80043782I80364720I80417697I79937894I79163542I78720348I78937268I79556162
2159I80105645I80384027I80536679I80749324I80927162I80811921I80405672I80008642
2151I79692581I79070547I77845118I76342577I75279487I75085214I75584057I76314117
2143I77072770I78047074I79365564I80670492I81406765I81572044I81825775I82636737
2135I83643909I84147295I83960839I83477628I83163371I83259706I83770040I84549803
2127I85406795I86095634I86354777I86185557I85929154I85839500I85840636I85874039
2119I86057155I86325249I86353107I86036445I85724859I85829412I86418644I87261339
2111I88017520I88299042I87884576I87101071I86633694I86712859I86903591I86932452
2103I87196270I88123943I89433214I90293746I90092592I89004451I87838212I87266149
2095I87285256I87537183I87859390I88223685I88421632I88231501I87742746I87210834
2087I86734571I86309282I86012328I85883392I85756059I85457702I85112380I85063411
2079I85493911I86199720I86729227I86751206I86306543I85689119I85148321I84843417
2071I84976896I85690789I86785945I87744683I88121672I87890587I87437107I87241030
2063I87484072I87971290I88448889I88855740I89192444I89362666I89306683I89132719
2055I89014472I89058363I89255442I89476304I89545248I89376495I89011064I88568205
2047I88229096I88186808I88510952I89091833I89731037I90226406I90415801I90283592
2039I90045427I89984032I90140893I90278849I90244109I90201754I90317930I90356745
2031I89907338I89004317I88214132I88039967I88439135I89008192I89431143I89584998
2023I89413506I88982137I88614702I88715446I89364938I90228609I90890661I91133435
2015I90903421I90264819I89493874I88994363I88938980I89074998I89011064I88668749
2007I88361707I88434058I88886003I89398341I89686811I89742594I89717274I89705316
1999I89691554I89576847I89198122I88492180I87689435I87159927I87016294I87051567
1991I87059451I86995049I86841929I86557468I86214618I86023485I86087819I86254234
1983I86353708I86464874I86708918I86917020I86814739I86453918I86168187I86141999
1975I86217624I86121289I85791533I85434921I85254811I85247262I85330970I85472399
1967I85564659I85433317I85115720I84892654I84913163I85015577I85041632I85115185
1959I85419021I85846715I86092028I85992687I85618104I85138701I84752160I84585946
1951I84563365I84497093I84335422I84179028I84047553I83759284I83120482I82209043
1943I81343767I80719126I80280811I80010178I80021602I80286690I80545564I80548637
1935I80188885I79484212I78578919I77645902I76709277I75656675I74400917I72968455
1927I71544344I70492078I70180493I70662835I71540069I72214546I72330187I71943111
1919I71333036I70839137I70760840I71101953I71488227I71590975I71456895I71248058
1911I70963263I70577590I70160184I69761884I69366057I68913777I68312654I67609918
1903I67092904I66930765I66788066I66121072I64836252I63446546I62557087I62314045
1895I62410514I62610599I63058736I63913991I64918224I65588091I65723307I65562237
1887I65500240I65733194I66146191I66527455I66814655I67041663I67137664I66994632
1879I66719323I66588249I66668483I66632541I66087134I65012621I63763142I62666649
1871I61709915I60696998I59685015I59034655I58906855I59020025I59128652I59379309
1863I59910420I60503126I60905567I61171390I61510231I62058110I62778149I63387556
1855I63527382I63168632I62656027I62266412I61967855I61693949I61597414I61825090
1847I62189451I62342238I62248174I62209093I62383056I62573588I62548602I62310104
1839I61945675I61390848I60439392I58901310I56652007I53611784I49837492I45653611
1831I41621915I38415210I36672299I36691005I38150590I40345245I42712996I44971785
1823I46918389I48443778I49676956I50862235I52108106I53332934I54379054I55124346
1815I55512424I55543756I55339797I55214535I55487906I56132387I56772459I57115509
1807I57222399I57300630I57413733I57471520I57384739I57191134I57084845I57250592
1799I57610077I57867148I57883448I57850379I57991942I58250750I58371669I58215409
1791I57880508I57521024I57171092I56854296I56726763I56885428I57146374I57230817
1783I57057521I56704450I56263461I55824343I55422302I55004562I54616351I54503181
1775I54832336I55433860I55983943I56370886I56756626I57279452I57791055I58020067
1767I57999959I58147534I58829025I59972884I61142262I61857491I61864639I61256568
1759I60402649I59687420I59284244I59163725I59182965I59090237I58595604I57631588
1751I56485258I55543957I54963677I54693846I54725512I55139979I55883801I56659356
1743I57176036I57441190I57657843I57894672I58075316I58275401I58748858I59551603
1735I60349337I60763737I60804422I60818184I61067506I61476160I61789883I61940932
1727I62159389I62632378I63134828I63222278I62757038I62023905I61355307I60890402
1719I60691920I60829475I61241336I61658007I61828630I61800838I61824288I61992172
1711I62178428I62316183I62511992I62856312I63313602I63831886I64412499I65019502
1703I65505986I65765729I65933279I66243261I66676567I66990690I67109205I67204270
1695I67412973I67748274I68232219I68889928I69651386I70396478I71053518I71611485
1687I72080933I72436809I72594941I72502214I72275139I72178871I72395524I72852680
1679I73342370I73769731I74149658I74408533I74409669I74228022I74193016I74509878
1671I74951669I75118818I74956479I74787926I74825338I74935435I74955410I74936637
1663I74954140I74966700I74978458I75088488I75291245I75434144I75428866I75339613
1655I75233057I75094100I74927084I74831551I74930424I75233057I75565819I75691549
1647I75543439I75283763I75086283I74986675I74980128I75075127I75171929I75066575
1639I74663065I74089733I73566840I73196198I72864638I72379156I71744630I71220868
1631I71019246I71057527I71087923I70955380I70673590I70366681I70182831I70211491
1623I70459075I70872607I71342522I71739618I72011054I72172524I72190095I72033634
1615I71844505I71835954I71992081I72067772I71916857I71644621I71412201I71267365
1607I71206772I71273511I71502524I71834685I72155155I72377486I72445428I72328384
1599I72099438I71936431I71954402I72094428I72222028I72280751I72334263I72483708
1591I72704837I72793423I72603492I72323774I72309143I72635693I73039604I73330011
1583I73615542I74017849I74379405I74467590I74346336I74335714I74661662I75319772
1575I76186517I77069163I77742170I78132653I78396805I78702043I79062397I79430500
1567I79767204I79995882I80094622I80232644I80591728I81049017I81297670I81334080
1559I81524545I82005283I82342789I82136691I81649539I81367416I81224718
1552I80844189I80292569I80005235I80110856I80321094I80367526I80200510
1545I79879906I79508329I79199350I79026989I79064334I79396963I79957735
1538I80485506I80824548I81122771I81550599I82009692I82274179I82267231
1531I82130278I82143171I82483082I82931152I83030761I82663927I82221803
1524I82157602I82670207I83744386I85091536I86121089I86347829I85864485
1517I85243120I85023861I85347738I85968169I86550921I86962648I87257999
1510I87455278I87459888I87215777I86814672I86439087I86278752I86492799
1503I87123785I87953186I88515896I88447152I87837678I87174625I86961646
1496I87413057I88330441I89249563I89894578I90416136I90998286I91537413
1489I91968982I92441704I92871469I92827444I92151364I91265979I90744021
1482I90876632I91552645I92283707I92562022I92412911I92384184I92891645
1475I93799142I94732561I95568308I96394903I97116278I97453583I97381232
1468I97206867I97149815I97185756I97303670I97553125I97868851I98143826
1461I98411052I98758578I99185538I99647437A000104659A000468487A000661290
1454A000788890A001070678A001488486A001693916A001479467A001199549A001412126
1447A002160625A002949207A003448451A003864988A004473327A005113666A005421777
1440A005356173A005254093A005454712A005990566A006563497A006793712A006624491
1433A006420866A006529025A006836602A006933738A006628366A006168471A005961706
1426A006139811A006467430A006705193A006854706A006926590A006760910A006323863
1419A005924561A005911267A006371763A007258617A008501750A009840683A010873375
1412A011529347A012248918A013392041A014649804A015403380A015540533A015501585
1405A015568525A015560375A015193140A014418454A013528727A013042844A013250011
1398A013851869A014246227A014090969A013477420A012813097A012629514A013147998
1391A013966910A014631433A015192740A015783842A016142659A015896478A015102685
1384A014294795A014013808A014294395A014595023A014317910A013414488A012430497
1377A011992916A012289736A013049391A013897765A014551332A014871134A014930191
1370A014895986A014791968A014544184A014224515A014026635A013983879A013886541
1363A013555583A013128757A012959671A013205117A013565404A013529930A012921190
1356A012122854A011673114A011768647A012345520A013422772A014966934A016558328
1349A017643998A018114181A018306316A018464580A018453691A018061404A017452531
1342A017151702A017482327A018203768A018925878A019667629A020612204A021531459
1335A022022486A022220500A022603501A023123121A023261209A023003604A022950627
1328A023321469A023637997A023592836A023515007A023767535A024202912A024387364
1321A024084464A023482205A023048832A023097333A023491825A023960071A024597871
1314A025673921A026868418A027261240A026509935A025605511A025769587A026860869
1307A027692742A027798697A027902246A028598769A029578885A030352904A030938795
1300A031625832A032581831A033738315A034726248A035179462A035328039A035852202
1293A036891375A037741218A037790989A037292480A036988845A037289073A037886856
1286A038062690A037512072A036834522A036673519A036527347A035419430A033867452
1279A033809865A035980737A038576698A039420128A038400664A036959651A036196988
1272A036040128A035564266A034034468A032040566A031201946A032387558A034753839
1265A036845545A038189556A039643462A042481463A046807975A050796916A052452711
1258A051452620A048651029A045180372A042105209A039898596A038164036A036485726
1251A035390236A035811784A037737009A039956383A041184484A041095497A040250999
1244A039331276A038532005A037655305A036702914A036127244A036253040A036669912
1237A036542579A035481427A033916822A032669481A032214862A032378539A032788195
1230A033323114A033832045A033927377A033591074A033384709A033542974A033600227
1223A033385444A033493069A034241835A035022801A035207053A034946508A034594639
1216A034126727A033640244A033651668A034371038A035316549A036027502A036591548
1209A037210843A037750504A037929412A037718638A037464907A037566787A037970765
1202A038259903A038323168A038447294A038583179A038212069A037243110A036469760
1195A036664367A037534853A038066431A037861470A037608407A038091751A039113220
1188A039571846A038527128A036349776A034849305A035818732A038957695A041675511
1181A041781399A039722628A037699197A037477199A039176553A041658074A043914993
1174A045910900A047955308A049855213A051207374A051983263A052376017A052542432
1167A052599752A052624336A052720404A053084432A053765923A054522104A055050543
1160A055048605A054183597A052656671A051544211A051769349A052871253A053511591
1153A053053033A051988941A051060467A050694101A050917635A051216192A050868599
1146A049873385A049177530A049770837A051784447A054448951A056743215A057881061
1139A057365984A055164113A052126896A049719396A048680557A048399770A048257539
1132A048728324A050061778A051147515A050912357A049871113A049408479A049934579
1125A050392537A049721801A048262617A047437892A048388814A050818093A053032390
1118A053426213A051781107A048870688A045427422A042242029A040495577A040766944
1111A042157051A043322020A043859945A043993090A043644628A042845290A042325269
1104A042719627A043541479A043731543A043095680A042521947A042797389A043733681
1097A044626815A045306569A046285282A047790095A049206323A049876057A049933243
1090A050129052A051033210A052548110A054064548A055006183A055363397A055493535
1083A055428132A054950400A054275322A053953048A054033683A053966543A053483065
1076A052939863A052633890A052402072A052094562A051856197A051840030A052106988
1069A052762024A053774808A054751250A055249291A055327722A055465744A055933856
1062A056585886A057254284A057948335A058621008A059161605A059639938A060202314
1055A060709374A060877659A060658869A060226030A059816641A059629650A059757517
1048A060150138A060568212A060695412A060483769A060229972A060159959A060224160
1041A060390374A060779387A061346640A061748347A061784422A061596362A061396143
1034A061299007A061316377A061423133A061600437A061753624A061634843A061046011
1027A060134172A059191400A058251167A057113389A055780001A054639283A054174110
1020A054646832A055969664A057731214A059407118A060665883A061509581A062108633
1013A062520695A062651635A062511141A062380001A062585029A063136382A063748128
1006A064171012A064358137A064493286A064889180A065550162A066053548A066301132
999A066679390A067427621A068330442A068999240A069365206A069669041A070013828
992A070239701A070292544A070416938A070951990A071980741A073084582A073719042
985A073741823A073395566A073017776A072809874A072723828A072424068A071657198
978A070604998A069625750A068913194A068525183A068460113A068483696A068159685
971A067282650A065940712A064312575A062527776A060279876A056784034A051689849
964A045429493A037329491A023685897I99958888I68071684I33148598H95752943
957H56770437H18320244G79096567G36680415F93986348F58015272F34983850
950F30165309F44560406F68800555F92432832G12313935G28460962G41040865
943G50357211G57207534G62299380G65729485G68228376G71688544G76693609
936G81231564G85021288G89266363G92872704G94462227G94535113G93888227
929G92837898G91678139G90737105G89479676G85130182G74820359G58210297
922G36277773G10228241F82893288F60817998F49101902F45713417F44172529
915F37410858F23688099F07636003E95476780E93721176F05208194F25116218
908F46747045F66472555F84272972G05346434G34668475G60235064G73336590
901G82023954G93550855H07619671H18875271H26339611H32282370H37578577
894H41954392H45689669H49802802H54023894H56872651H58736080H61279866
887H65625151H71539116H78122948H85357207H93606656I01731310I08193555
880I13652168I20100717I27315001I31527342I30363442I24484550I16184195
873I09765775I09532354I15883500I25592600I35407321I43931811I51122579
866I57319268I62833665I68010823I73198737I78423862I83306003I87361549
859I90157795I91319157I90643077I88196294I84334353I79618693I74424834
852I68206632I58451503I40813291I15117164H88550417H66069279H49664246
845H43390662H49204819H62733772H78896566H94044505I05874372I15697778
838I28154223I43168882I53124298I58226900I62189184I66078717I69872449
831I73558088I76857720I79537123I81861850I84128456I86444164I89502091
824I93769547I97332396I99006229I99912792A001341111A003419256A005128831
817A006043944A006670655A007348672A007821260A007837427A007645560A007627455
810A007810237A008041721A008326049A008545174A008243209A006961463A004486555
803A000324720I91882735I73212232I44043912I15260063H92630615H78610568
796H78476488H96021839I26265006I56016478I76447129I89051282I98427219
789A007099551A014885831A020739937A024787334A027753736A030025219A031672797
782A032757264A033443833A033912546A034318796A034839017A035568275A036180221
775A036034850A034870549A032760137A029603938A025110342A019500546A013521378
768A007453558A000946620I93825464I86747131I79783237I71960682I63228624
761I55434996I51530699I52656186I55825746I55799357I47756675I28318366
754H97256220H56997712H11786984G72960604G54902113G58020834G73960762
747G96779138H21641588H44127469H63376316H81040716H97546427I11966243
740I24778164I37585542I49539335I57546878I59755496I53613120I33285685
733H93576259H38833267G85805394G54723340G56159943G82368540H15917620
726H47483085H76505433I02162344I22462589I37815757I49657448I58497198
719I65018099I70452261I75663891I80624396I84844286I88277464I91332719
712I94256098I96908911I98944233I99939781I99428980I97169857I93716636
705I90457823I88843581I89608580I92398414I96328097A000871864A005709244
698A010184802A013741038A016507021A018984801A021478081A023878634A025897455
691A027369265A028272888A028632440A028449658A027667222A026247921A024224490
684A021576621A018237906A014335347A010228360A006284781A002810985A000067047
677I98194466I97138524I96546086I95746880I94022476I90967622I86600758
670I81226188I75250827I69091616I63105500I57313523I50997718I42578849
663I30277863I13720110H95262986H78898236H66520957H55375721H40413103
656H19066872G92894616G65118006G37798886G11246971F84832275F57749984
649F29539533F00629754E72682521E48182429E29229935E16515485E09438421
642E06968591E08278730E12912585E20679090E31388148E44647504E59904003
635E76549740E93896276F11144472F27494189F42300949F55245815F66553323
628F77038246F87742961F99412894G12266502G26097421G40434531G54683256
621G68284293G80817832G92042769H01943670H10757498H18928449H27031391
614H35678003H45361917H56258300H68120435H80377128H92391983I03762958
607I14523256I25056345I35684166I46300363I56418986I65493961I73119371
600I79001803I82868221I84385326I82925808I77112386I64499949I41957617
593I07074014H60323399H06555913G53802414G09504594F77326315F57201370
586F47540370F46666477F52595339F62488825F72710130F79331440F79146320
579F71377477F59086378F48404711F45263343F52015327F66751805F85496597
572G04865896G23055995G39231080G52545252G61775217G66111818G66750286
565G67383009G72064931G82151955G95714579H09851202H22931218H34711983
558H45314084H54664033H62539833H68782953H73638773H78030889H83229091
551H89963171H97905644I06107460I13784043I20607711I26532899I31651869
544I36148070I40164200I43652427I46377057I48048351I48415586I47262375
537I44538413I40752630I37136269I34912019I33950742I32079430I25860493
530I12209551H89652455H59218689H25672483G97623170G83294544G82855292
523G84990423G73810047G40938518F91094368F37085711E91210527E60662523
516E47505313E50107086E64499412E85795138F09570849F32773696F53945362
509F72795107F89450331G03955859G16290315G26641358G35594745G44082358
502G53065941G63068054G73859083G84610095G94505050H03314135H11356350
495H18971272H26215485H33046367H39520036H45722137H51675651H57362208
488H62772119H67953686H72976655H77736808H81950084H85515138H88670468
481H91611150H94192748H96143627H97365715H98091099H99017435I01068190
474I04616275I09056626I13419548I17260645I20740321I24073290I27255744
467I30256552I33165233I36096161I39112334I42282229I45810606I50065502
460I55131762I59810010I60315199I49377130I18682819H67410551H10346973
453G71980689G66987181G88442708H17891347H43023227H62405619H78338265
446H91554098I01878751I09694626I15732183I20609448I24805488I28675512
439I32419741I36052937I39386708I42154695I44322094I46193139I47819473
432I48314708I46638804I43567316I41976924I44275930I50041719I56724692
425I61990636I64828503I65303830I64374019I63699008I64614522I66946264
418I69106648I69296778I66208521I58634686I44989556I23676059H94312732
411H59302799H24460282G97076360G82049274G79499943G86021913G97631721
404H11416476H25472331H38517473H49827521H59236326H67054406H73917823
397H80523167H87349239H94545819I01981166I09355384I16384481I22974526
390I29185846I35044362I40517873I45656216I50590600I55398787I60095139
383I64691817I69152076I73344575I77112520I80330582I82912113I84800795
376I85889271I85927083I84495156I80805107I73132933I58285622I32011487
369H91368910H38855647G84956218G44621017G28544136G36833268G60869256
362G90486715H19313320H45166776H67831364H87342425I03603424I16476072
355I25719465I31005918I32105016I28783271I20342890I05210651H80884456
348H45117740G99310097G51901840G16654343G04852133G18124083G48641690
341G85435687H20372268H49939622H73852620H93048890I08471335I20664229
334I29801600I36162567I40967680I46495171I54605261I64940470I75020746
327I82255273I85481886I84542722I79240903I69249413I53606706I28696089
320H89075448H35014549G79221561G40892154G30511583G42798874G64848109
313G87696815H09411951H31049392H52902617H74132338H93925389I11979136
306I28165646I42147547I53195246I59867797I59152969I46158801I17053145
299H74622563H29856898G95385491G76914805G71669104G73159420G74647598
292G69419400G53249859G30114754G12937105G14108955G34715907G64965621
285G94046825H17245062H35110817H49606124H62160440H73550455H83987477
278H93202010I00962235I07678879I14210602I21004808I27717777I33725137
271I38744766I42982693I46880710I50677448I54007945I55814589I54562839
264I48306690I34171738I08387961H69560913H24163327G85929654G64062266
257G51681379G31359556F94769051F53788434F30151012F36562284F68906243
250G12888670G54422042G84765019G99457204G95491980G71405219G30329002
243F81829196F39471700F14516523F09328542F17267809F30550380F47027030
236F68699344F96169847G26829217G57546242G86879573H14550963H40504027
229H64822139H87395602I06898514I18923723I14229575H82503173H23993840
222G57112802G08429413F93511088G08886836G37852933G59583234G58521882
215G34634136G04955683F89302221F93422302G09538799G30274688G53829671
208G76373340G92549628H04046600H14536399H24968945H34556926H42767158
201H49780288H56053405H61986476H67666152H72952605H77762461H82121108
194H86120737H89888949H93537244H97152135I00796889I04548934I08374800
187I11580503I12347238I07574126H93239154H67918947H38871079H20894894
180H23667090H42035495H62684469H77675613H87554468H95038783I01015346
173I05301775I08063750I10085978I12158645I14481034I16837160I18989394
166I20751745I22102235I23186703I24008421I24555565I25309742I26958054
159I29477656I31999396I33640627I34257584I34413443I34744936I35423221
152I36117873I36335194I36026015I35931015I36839649I38530250I39981552
145I40546600I40400227I39926570I39110597I37703322I35819917I33922550
138I32042486I29563770I26181097I22592661I19890277I18496964I17835381
131I17025087I15860051I14873655I14404407I13973105I12740061I10254864
124I06580783I01898927H96240696H89479694H81071447H69455560H52273702
117H28598000H01948079G80349253G71572034G77432821G92845981H10128516
110H24105139H33930015H41561237H49026379H56636557H63447865H68896658
103H73602564H78428654H83299705H87805460H92128565H96387469H99952524
96I02364099I04217441I06332463I08725734I11011179I13101082I15046550
89I16665936I17736040I18431427I19308995I20595686I21722976I22121075
82I22203113I22829155I24066943I24909839I23988379I20444503I14428658
75I07060586H99836481H93945898H90295934H89740639H92148206H95660751
68H98258582H99035607H97302249H92074051H83623850H74740677H69224209
61H69396970H74890323H82712879H89387367H92982350H93140214H91022519
54H88984525H89399593H93296808H99455952I05388891I09919897I13993949
47I18323334I21997750I24477068I27205506I31524269I36631748I41312200
40I45703649I49815980I51993801I50756547I47761485I46948184I50548713
33I56564090I59923915I58944600I56562353I55710104I57805418I62018026
26I65827792I67953637I69503009I71608078I73583475I74087662I72941532
19I71636270I72490924I75939267I79444596I80738702I79061662I74432917
12I68235693I63359899I62779819I67584799I74300507I76226868I70870602
5I61388911I50640972I38195684I24998691I16977520
##END=


$$ === CHEMSPECTRA PEAK TABLE EDIT ===
##TITLE=SiO-R7
##JCAMP-DX=5.00
##DATA TYPE=INFRAREDPEAKTABLE
##DATA CLASS=PEAKTABLE
##$CSTHRESHOLD=0.93
##MAXX=3997.453
##MAXY=0.9579927873405651
##MINX=373.96442
##MINY=0.4523175340504632
##$CSSOLVENTNAME=- - -
##$CSSOLVENTVALUE=0
##$CSSOLVENTX=0
##NPOINTS=34
##PEAKTABLE= (XY..XY)
422.12650433150884, 0.8448674633187371
449.0406102814695, 0.7931522687902027
460.3728654182951, 0.7755221087293048
473.1216524472243, 0.7938268739353981
534.0325238076621, 0.6883968079221305
583.6111400312743, 0.8350379426138149
628.9401605785765, 0.7324026789042172
674.2691811258792, 0.6149956552598885
684.1849043706015, 0.6187508077020373
712.5155422126659, 0.543643114064248
730.9304568100074, 0.5622209282532137
781.9256049257228, 0.6360827060915025
790.424796278342, 0.6884834138062222
820.1719660125095, 0.6517626608111907
859.8348589913994, 0.6288692915667612
889.5820287255665, 0.6500073039878822
949.0763681939011, 0.6954700907895823
980.2400698201718, 0.8404321036056465
1012.8203033385453, 0.6843062006542261
1103.4783444331506, 0.48848440998524706
1114.8105995699761, 0.6984637342075405
1188.4702579593431, 0.5757041546562364
1201.219044988272, 0.5769560312460079
1281.9613628381544, 0.4523175340504632
1406.6161693432368, 0.6733643979122355
1434.9468071853007, 0.6735238992382551
1449.1121261063327, 0.8489559846223167
1500.107274222048, 0.7837769949213113
1569.5173369351055, 0.7524734100875052
1607.7636980218917, 0.8114850481938297
1663.0084418139168, 0.5297182172807646
1718.2531856059418, 0.5622336840410458
2963.3847187646597, 0.8356993155362127
3520.0817523612236, 0.8602025469305978
##END=


$$ === CHEMSPECTRA PEAK TABLE AUTO ===
##TITLE=SiO-R7
##JCAMP-DX=5.00
##DATA TYPE=INFRAREDPEAKTABLE
##DATA CLASS=PEAKTABLE
##$CSTHRESHOLD=0.93
##MAXX=3997.453
##MAXY=0.9579927873405651
##MINX=373.96442
##MINY=0.4523175340504632
##NPOINTS=149
##PEAKTABLE= (XY..XY)
3996.036468107897, 0.8750241951378626
3980.4546172947616, 0.8752910451129812
3969.1223621579356, 0.8749123167877898
3960.6231708053165, 0.8764582822281443
3943.624788100078, 0.8750196654368887
3935.125596747459, 0.8772141293491675
3928.042937286943, 0.8779686051583144
3919.543745934324, 0.8773912739363174
3911.0445545817042, 0.8764659721026161
3906.7949589053947, 0.8764442157980568
3892.6296399843627, 0.8772786809337964
3886.96351241595, 0.8771566109795824
3872.798193494918, 0.8767566634544184
3855.799810789679, 0.878037508003855
3843.0510237607505, 0.8778202491985673
3831.718768623925, 0.8800439192879939
3821.8030453792026, 0.8795881824774456
3817.553449702893, 0.878794962869837
3809.054258350274, 0.8803070139920076
3803.3881307818606, 0.8802586745792118
3793.472407537138, 0.8802210049899233
3787.8062799687254, 0.8806127862056499
3782.1401524003127, 0.8801591353594264
3769.391365371384, 0.8817729909979696
3760.8921740187648, 0.8815848188149881
3752.392982666145, 0.8816720795741073
3745.310323205629, 0.8822434500058332
3736.81113185301, 0.8834912135521756
3725.4788767161845, 0.8820438933468961
3714.146621579359, 0.8831088495107211
3702.8143664425334, 0.8836234171175105
3691.4821113057073, 0.8826477487919091
3677.3167923846754, 0.8822537022795954
3657.4853458952307, 0.8846211388503745
3650.4026864347147, 0.8826067405890605
3634.820835621579, 0.8839425402165916
3630.5712399452696, 0.8843812895332375
3620.655516700547, 0.8832387877794688
3596.574474534793, 0.8799447369483324
3589.491815074277, 0.8787560415235136
3576.7430280453477, 0.8776642640339694
3568.2438366927286, 0.8751909090111882
3554.0785177716966, 0.8710672814098107
3517.248688577013, 0.8590639191105752
3504.4999015480844, 0.8614885760560359
3473.336199921814, 0.8668011979693362
3435.0898388350274, 0.8732145978889079
3412.425328561376, 0.8699713302072164
3391.177350179828, 0.877178664386845
3378.428563150899, 0.879566307510245
3368.512839906177, 0.8794640247745064
3357.180584769351, 0.8802748876432451
3341.5987339562157, 0.8808391641903062
3318.934223682564, 0.8788738806638574
3307.6019685457386, 0.8786776019488592
3296.269713408913, 0.8808167530107193
3283.5209263799843, 0.8823990185128864
3270.7721393510556, 0.8816605764355105
3259.43988421423, 0.8832640602454499
3253.7737566458172, 0.8834583118813437
3245.2745652931976, 0.8815295648497898
3235.3588420484753, 0.8820423435949576
3221.1935231274433, 0.8823316645270838
3215.5273955590305, 0.8818166213775291
3195.6959490695854, 0.8806162434818512
3185.780225824863, 0.8797304589842804
3171.614906903831, 0.8798361972118197
3163.115715551212, 0.8790379125830512
3154.6165241985927, 0.8787215312155228
3120.6197587881156, 0.8743653846147552
3099.3717804065673, 0.8655953366105529
3088.0395252697417, 0.8661131223838604
3058.2923555355746, 0.858576889266354
3045.543568506646, 0.8614196134330744
3032.794781477717, 0.8623903354001572
3017.2129306645816, 0.8555369932921251
2991.715356606724, 0.8579375108659983
2984.6326971462076, 0.8584832510594188
2963.3847187646597, 0.8356993155362127
2939.3036765989054, 0.8522427042435059
2923.7218257857703, 0.8539113954053019
2916.6391663252543, 0.8545944050774175
2903.890379296325, 0.8535919145338966
2888.3085284831895, 0.8516080339841862
2875.559741454261, 0.8547278603997873
2859.9778906411257, 0.8557661727857547
2848.6456355043, 0.8517781453562923
2807.5662106333075, 0.8571296288384952
2800.483551172791, 0.8581190058218598
2755.1545306254884, 0.86737829008165
2742.4057435965597, 0.869175310875035
2735.3230841360437, 0.869706089761457
2729.656956567631, 0.8698387697617574
2712.6585738623926, 0.8697450119999808
2699.909786833464, 0.8698775724454397
2682.911404128225, 0.8663436722971662
2674.412212775606, 0.8655974225748776
2658.8303619624703, 0.8670723394279457
2648.914638717748, 0.8665109830524993
2636.165851688819, 0.8671619850384936
2620.584000875684, 0.8674945188004344
2607.8352138467553, 0.8693026260748714
2568.1723208678654, 0.8743609744686228
2556.8400657310394, 0.8734881830841666
2541.2582149179043, 0.8762569384919862
2531.342491673182, 0.8762813169732566
2520.0102365363564, 0.8788385941415969
2504.4283857232213, 0.8799582082808132
2493.0961305863957, 0.8805674865193103
2473.2646840969505, 0.8839421226668466
2464.7654927443314, 0.885405476603897
2450.600173823299, 0.8896573740594427
1718.2531856059418, 0.5622336840410458
1663.0084418139168, 0.5297182172807646
1607.7636980218917, 0.8114850481938297
1569.5173369351055, 0.7524734100875052
1500.107274222048, 0.7837769949213113
1449.1121261063327, 0.8489559846223167
1434.9468071853007, 0.6735238992382551
1406.6161693432368, 0.6733643979122355
1369.7863401485533, 0.8822465495097102
1281.9613628381544, 0.4523175340504632
1201.219044988272, 0.5769560312460079
1188.4702579593431, 0.5757041546562364
1114.8105995699761, 0.6984637342075405
1103.4783444331506, 0.48848440998524706
1012.8203033385453, 0.6843062006542261
980.2400698201718, 0.8404321036056465
968.9078146833463, 0.8598125536842925
949.0763681939011, 0.6954700907895823
889.5820287255665, 0.6500073039878822
859.8348589913994, 0.6288692915667612
820.1719660125095, 0.6517626608111907
790.424796278342, 0.6884834138062222
781.9256049257228, 0.6360827060915025
730.9304568100074, 0.5622209282532137
712.5155422126659, 0.543643114064248
684.1849043706015, 0.6187508077020373
674.2691811258792, 0.6149956552598885
628.9401605785765, 0.7324026789042172
583.6111400312743, 0.8350379417216147
534.0325238076621, 0.6883968079221305
473.1216524472243, 0.7938268739353981
460.3728654182951, 0.7755221087293048
449.0406102814695, 0.7931522687902027
422.12650433150884, 0.8448674633187371
413.6273129788897, 0.8526848510589322
399.4619940578573, 0.8668941813012437
386.71320702892854, 0.8589924529735439
##END=

##END=

