##TITLE=JPK-854 X19181
##JCAMP-DX=4.24
##DATA TYPE=INFRARED SPECTRUM
##DATE=17/9/2021
##SAMPLING PROCEDURE=Diamant-ATR
##ORIGIN=Lara
##XUNITS=1/CM
##YUNITS=TRANSMITTANCE
##RESOLUTION=4
##FIRSTX=3997.453
##LASTX=373.96442
##DELTAX=-1.4165319
##MAXY=0.89026511
##MINY=0.44997594
##XFACTOR=1
##YFACTOR=8.2912399e-010
##NPOINTS=2559
##FIRSTY=0.82674468
##XYDATA=(X++(Y..Y))
3997+997130324+998072066+999235441+999872663+999742185+999229115+998911726
3988+999050112+999401792+999432776+998874272+998149419+997952659+998373064
3978+998834734+998898715+998683192+998472127+998367385+998446535+998849686
3968+999484320+999936787+999825000+999046662+997789328+996574481+996030356
3958+996299507+997005094+997897952+999011220+1000069925+1000435120+999947858
3948+999337523+999326956+999779926+1000078480+999889628+999453480+999198203
3938+999319048+999753687+1000188542+1000162734+999567567+999019056+999171173
3928+999906882+1000696938+1001140564+1001101959+1000748914+1000318444+999814073
3918+999172251+998624100+998493622+998727116+999090801+999568645+1000268698
3908+1001069466+1001517045+1001109580+999887975+998747533+998496425+998949899
3898+999480078+999723134+999572096+999033793+998397722+998330434+999102016
3888+1000032615+1000371786+1000047999+999748008+1000093577+1000822025
3880+1001168600+1000847114+1000352017+1000120751+1000208167+1000498526
3871+1000841219+1000929642+1000508878+999883877+999602505+1000002278+1001072988
3861+1002329818+1003079258+1002929801+1002093592+1001306627+1001236391
3853+1001301235+1000309387+999173905+999029408+999918815+1001194408+1002004450
3843+1001986047+1001593247+1001415610+1001472114+1001424021+1001101241
3835+1000624906+1000291702+1000408233+1000898443+1001288151+1001183409
3826+1000520883+999537949+998656737+998393481+998981674+999896745+1000672784
3816+1001158536+1001084706+1000696004+1000764154+1001612944+1002814564
3808+1003494487+1003118006+1002210124+1001584908+1001474702+1001620924
3799+1001681310+1001559962+1001205767+1000670196+1000327502+1000536914
3791+1001202244+1001842916+1002132196+1002218822+1002377337+1002611478
3782+1002779482+1002818446+1002704359+1002529957+1002546850+1002803421
3774+1003004278+1002838000+1002252179+1001446234+1000711244+1000284657
3765+1000283794+1000608587+1000965083+1001146890+1001251991+1001540193
3757+1001981086+1002297468+1002437148+1002516082+1002399119+1001944279
3748+1001572183+1001462553+1001303176+1001057820+1001227333+1001913295
3740+1002694222+1003167537+1003062077+1002420614+1001810494+1001819984
3731+1002457852+1003238923+1003479750+1002806297+1001755571+1001412734
3723+1001923144+1002318460+1002009123+1001490302+1001482323+1002045283
3714+1002714998+1003086878+1003160564+1003287376+1003685208+1004121860
3706+1004177645+1003698004+1003124189+1003190398+1003897998+1004495250
3697+1004610847+1004494387+1004511425+1004768642+1005063027+1005018312
3689+1004497910+1003930205+1003702677+1003836030+1004255070+1004775472
3680+1005048002+1004875541+1004490505+1004246946+1004043933+1003705624
3672+1003533235+1003717917+1003891241+1003650845+1003138566+1002516010
3663+1001801149+1001195199+1001073635+1001496053+1001928967+1001650398
3655+1000662576+999686615+999283032+999719684+1000484148+999963171+998167247
3645+996620490+996049334+996218273+996559888+996783965+996973535+997142186
3635+997037085+996515389+995913968+995806494+996389224+997050097+997323849
3625+997462882+997483801+997145277+996355796+995298385+994394384+994081165
3615+994401286+994951234+995287386+995375378+995355608+995123551+994692938
3605+994453261+994561669+994648583+994273827+993577226+993163722+993239133
3595+993420652+993406059+993336111+993415332+993653571+993934081+994019557
3585+993757522+993296788+992803847+992355765+992049734+992000563+992254761
3575+992739507+993192909+993261203+992869553+992366476+992214000+992429379
3565+992349151+991635512+990892542+990863355+991524156+992032122+991832343
3555+991266651+990817490+990567533+990584930+991050194+991800784+992361875
3546+992460003+992221908+991855491+991488428+991271683+991309712+991548814
3536+991844492+992067922+992064687+991608050+990605419+989426085+988738685
3526+988774845+989088495+989230260+989212503+989147516+988925452+988456665
3516+987841298+987197175+986645502+986459454+986831046+987435343+987662799
3506+987398392+987144193+987350873+987841011+988155308+988209296+988112678
3496+987776526+987192215+986732415+986666062+986701575+986439540+986029272
3486+985963565+986340118+986683315+986463048+985669756+984786316+984180798
3476+983787782+983469459+983411876+983860533+984573022+984911690+984482730
3466+983460760+982356909+981707467+981857786+982681415+983558529+983934651
3456+983836451+983679086+983685413+983721788+983638757+983450624+983170761
3446+982778608+982368699+982027012+981623357+980998572+980253374+979633981
3437+979272237+979151105+979099489+978756004+977815844+976450821+975266383
3427+974747275+974886595+975320372+975633159+975582406+975238994+974841880
3417+974441460+973918973+973347171+973007712+973000883+973121943+973128413
3407+972898513+972346696+971431624+970315984+969383803+968981514+969147720
3397+969594581+969918799+969908950+969760787+969885370+970387082+970927613
3387+971207835+971232205+971028473+970547969+969919158+969385960+969009407
3377+968761462+968759953+969088484+969509608+969618448+969259867+968712434
3367+968454929+968731988+969377836+970086443+970685276+971091519+971252118
3357+971216318+971032570+970573130+969762728+968915808+968520276+968785042
3347+969612050+970737323+971671373+971890131+971413437+970881963+970827975
3337+971155859+971501069+971810334+972335050+973190094+974127522+974730381
3327+974729447+974196320+973546446+973262558+973477217+973896975+974221122
3318+974493292+974921605+975473782+975855655+975912231+975868811+976005183
3308+976263480+976462396+976707895+977201339+977792049+978128057+978191822
3298+978319928+978717688+979207322+979507313+979609970+979780922+980188243
3288+980676727+981017910+981264920+981671379+982304143+982912681+983201673
3278+983146391+983022455+983138699+983532721+983970307+984272312+984525576
3268+984912409+985435327+985857314+985872051+985429217+984900619+984739660
3258+985022039+985539206+986121936+986561679+986595755+986369593+986436665
3248+986951388+987389550+987343613+987054548+986894308+986833778+986705601
3238+986590722+986683027+986972595+987266836+987449361+987587315+987778611
3228+988017713+988306849+988797993+989563823+990248707+990332601+989865181
3218+989521409+989749152+990338855+990955517+991515961+991889351+991807254
3208+991308921+990853291+990780683+990953288+991071042+991100732+991189371
3199+991296700+991181031+990751496+990247125+990053026+990405928+991210434
3189+992129675+992908014+993531145+994025380+994259737+994046515+993390459
3179+992626138+992212994+992264897+992462663+992544616+992586024+992702987
3169+992831237+992867397+992771138+992578260+992443469+992484158+992580776
3159+992607519+992725201+993104557+993548758+993714677+993593472+993554653
3149+993942564+994680573+995327787+995560275+995474009+995369195+995417073
3139+995588887+995800599+996062777+996403602+996614236+996390230+995897218
3129+995774288+996379447+997366119+998044533+997922897+997025079+995902250
3119+995204714+995192277+995695139+996350763+996810132+996966131+996983240
3109+996987841+996940251+996858729+996805244+996627104+996078377+995205433
3099+994368361+993881602+993708710+993466661+992797880+991801143+990944014
3089+990540144+990470915+990412757+990182497+989799474+989330760+988823370
3080+988327050+987828358+987233623+986557366+985998431+985675364+985393200
3070+984788113+983642136+982045703+980312251+978716681+977293141+975866798
3060+974216593+972259279+970201609+968444865+967257048+966662241+966617166
3050+967041022+967695497+968335234+968981801+969804136+970749329+971511924
3040+971876472+971949654+972031895+972363949+973004118+973806180+974465615
3030+974720892+974579343+974254694+973906249+973575777+973328551+973246239
3020+973257094+973132655+972690324+971913279+970878297+969677684+968455504
3010+967454742+966896885+966754546+966731829+966588123+966421701+966521339
3000+966979126+967493777+967493202+966543912+964834470+963175998+962266390
2990+962077467+962218225+962659190+963684036+965261633+966910975+968200443
2980+969108397+969904780+970837680+971890921+972743162+972972487+972315568
2970+970756158+968466647+965700010+962631513+959253463+955536817+951713848
2961+948203883+945121080+942041655+938539166+934840636+931665456+929466237
2951+928133852+927434016+927424958+928326154+930116758+932402531+934641936
2941+936433906+937581105+937988139+937605763+936431893+934486513+931841440
2931+928776681+925830107+923551379+922188153+921609162+921464450+921458124
2921+921606430+922206773+923437148+925060179+926665022+928115736+929610446
2911+931347133+933247511+935016692+936426070+937499512+938467996+939634822
2901+941205374+943050326+944691113+945752119+946424781+947312822+948828883
2891+950866353+953001375+954857685+956284532+957369907+958329190+959251594
2881+959969475+960274355+960131727+959556115+958532779+957251291+956154270
2871+955528407+955241067+955020369+954786299+954553883+954146274+953235732
2861+951715789+949881549+948119413+946501702+944838845+943100360+941634837
2851+940889136+940986185+941701478+942791167+944125134+945499214+946614064
2842+947363576+947975133+948761739+949833815+951080006+952320589+953402154
2832+954210687+954721456+955048549+955326902+955501736+955353717+954795573
2822+954055479+953501648+953310640+953341337+953292309+952957810+952347332
2812+951625210+950947012+950343290+949742804+949097100+948445429+947837754
2802+947279610+946810967+946534987+946476182+946512198+946549867+946649002
2792+946886019+947222889+947593332+948011365+948535002+949178765+949902685
2782+950674841+951481073+952231159+952730426+952884125+952900084+953112299
2772+953585902+954048937+954296809+954501189+954955741+955697201+956593869
2762+957556890+958378362+958696326+958478647+958210071+958296553+958577422
2752+958628175+958294899+957831145+957616629+957737115+957894120+957840491
2742+957719646+957794338+958063633+958326962+958423868+958307336+958045517
2732+957812598+957760335+957891388+958106048+958326530+958527315+958674184
2723+958709625+958620986+958492090+958461106+958629397+958977267+959385882
2713+959779401+960213393+960733723+961213005+961480359+961602211+961877401
2703+962495500+963317188+964066771+964615282+964959197+965080114+965014336
2693+964952943+965089963+965438264+965895476+966382737+966847713+967266968
2683+967705777+968267300+968973247+969787314+970662272+971437807+971867414
2673+971952889+972050586+972423185+972886436+973094769+972986002+972804842
2663+972845316+973256807+973976628+974769273+975346467+975524823+975391326
2653+975302543+975550200+976061113+976591580+977100623+977674655+978208428
2643+978459176+978406697+978315686+978395483+978594542+978809705+979124075
2633+979689551+980453872+981152055+981591510+981867275+982182435+982508019
2623+982643530+982626780+982777171+983265942+983911934+984441466+984757417
2614+984949791+985120311+985206002+985068048+984791851+984709467+985009818
2604+985485793+985790673+985878162+986056805+986554562+987177837+987528151
2594+987427794+987047503+986778927+986954407+987504500+988000316+988130435
2584+987956967+987773220+987961784+988755075+989849365+990563004+990571559
2574+990191843+989884016+989783156+989740669+989656991+989691210+990042602
2564+990564155+990889810+990980103+991173986+991648524+992209831+992699896
2554+993216919+993800512+994245790+994392443+994356643+994377634+994620402
2544+995088326+995540937+995661279+995504562+995526560+995935462+996269314
2534+995898440+994806810+993633155+993000606+993024401+993430501+993876930
2524+994090942+993997056+993853781+994041986+994636721+995352876+995861345
2514+995963355+995631948+995187029+995211831+995895996+996657656+996864624
2504+996713801+996892948+997588112+998336257+998669102+998458828+997832318
2495+997091936+996547882+996263059+996137398+996202673+996587996+997250522
2485+997917650+998271845+998163653+997725922+997243765+996886837+996665852
2475+996613876+996823719+997309040+997933393+998465154+998720574+998755440
2465+998866077+999235944+999649304+999732839+999434573+999112296+999148672
2455+999571593+1000103569+1000546763+1000991754+1001554643+1002050675
2446+1002136438+1001722934+1001103757+1000690397+1000654452+1000819940
2438+1000947614+1001040782+1001223955+1001467801+1001656581+1001725953
2429+1001579444+1001187866+1000839134+1000882339+1001234738+1001512803
2421+1001533579+1001421289+1001403461+1001609278+1001879939+1001861895
2412+1001488289+1001143942+1001174351+1001493034+1001828251+1002078711
2404+1002247218+1002243768+1002010633+1001748958+1001759166+1002091364
2395+1002574959+1003086878+1003550992+1003798792+1003687005+1003301250
2387+1002931095+1002829948+1002977751+1003133462+1003233172+1003571696
2378+1004393240+1005476459+1006337613+1006705540+1006735589+1006916821
2370+1007685814+1008978013+1010358851+1011434235+1011786130+1011056819
2361+1009701501+1008991960+1009625731+1010833604+1011275936+1010409102
2353+1008741500+1007083027+1005863435+1005155979+1004991857+1005406870
2344+1006227911+1007032489+1007474389+1007493512+1007323567+1007397540
2336+1007948567+1008701242+1009192601+1009282318+1009104681+1008671696
2327+1007888109+1006936878+1006376146+1006722721+1007884658+1009097708
2319+1009615666+1009334797+1008692112+1008223901+1008211105+1008447259
2310+1008411243+1007890912+1007230974+1006819196+1006708415+1006936302
2302+1007715576+1008970681+1010043260+1010234484+1009519695+1008531872
2293+1007933902+1007881279+1008015280+1007939150+1007710472+1007728372
2285+1008111755+1008506136+1008644090+1008706777+1008898864+1009101734
2276+1009248243+1009640899+1010519738+1011568882+1012225370+1012365049
2268+1012364546+1012511990+1012711769+1012800695+1012751164+1012526871
2259+1012143992+1011862835+1012001293+1012656127+1013755521+1015075613
2251+1016116417+1016373419+1015884936+1015239303+1014934351+1014928241
2242+1014937658+1014950886+1015163892+1015605001+1016194057+1016935445
2234+1017670220+1017982792+1017659652+1016829553+1015689542+1014703014
2225+1014754773+1016242438+1018186021+1018997141+1018150077+1016652635
2217+1015863585+1016228204+1017217249+1018040590+1018257982+1018082501
2208+1018191916+1018927122+1019903442+1020748853+1021662127+1022798975
2200+1023805704+1024473910+1025257209+1026607279+1028026146+1028147135
2191+1025993421+1022268724+1019101524+1018138790+1019228407+1021182270
2183+1023156406+1024721423+1025370218+1025021342+1024600578+1025144631
2174+1026441719+1027275556+1026913453+1025823620+1025009624+1025094956
2166+1026125193+1027786254+1029364282+1029901579+1029331573+1029164576
2157+1030654900+1032843480+1033836838+1033007170+1031302186+1030103945
2149+1029900644+1029985760+1029494904+1028359782+1027039833+1025898816
2140+1025154696+1024973393+1025416586+1026410448+1027655344+1028590472
2132+1028781409+1028295226+1027419621+1026183854+1024474629+1022507826
2123+1020765891+1019470385+1018531159+1018010828+1018160860+1018910156
2115+1019680659+1019827456+1019190666+1018260570+1017776759+1018080920
2106+1018943872+1019985323+1020964160+1021654651+1021891021+1021949610
2098+1022567637+1024128485+1025829875+1026210813+1024732565+1022354631
2089+1020454469+1019623795+1019565278+1019762828+1020087118+1020824911
2081+1022090512+1023331598+1023831656+1023734535+1024000523+1025031982
2072+1025922108+1025590557+1024194407+1022788767+1022055718+1021911293
2064+1021943140+1021782469+1021238703+1020395592+1019756142+1020152680
2055+1021936239+1024166658+1025453825+1025720100+1026131807+1027249533
2047+1028331242+1028771201+1029093118+1030031338+1031434246+1032490722
2038+1032776911+1032696611+1032807895+1033167554+1033714555+1034879296
2030+1036950265+1038895430+1038860851+1036285942+1032861452+1031065600
2021+1031967588+1034287077+1035538299+1034557810+1032566924+1031063084
2013+1030041114+1029245522+1029229204+1030179500+1031318649+1032139617
2004+1032661529+1032441981+1031046981+1029311300+1028682849+1029459607
1996+1030791417+1032123443+1033394363+1033944024+1032765624+1030271230
1987+1028365245+1028409888+1029743998+1030478773+1029694395+1028507225
1979+1028720519+1030688544+1033011627+1034135320+1033537349+1031718062
1970+1029710642+1028356834+1027948363+1028456184+1029476069+1030176050
1962+1030211059+1030341106+1031377813+1033040167+1034493972+1035239674
1953+1035131338+1034289305+1033138870+1032104104+1031308368+1030645123
1945+1029909630+1028976587+1028039086+1027410923+1027098926+1026895984
1936+1026593764+1026046619+1025411626+1025111778+1025221552+1025350305
1928+1025350233+1025492932+1025829946+1026016713+1025918226+1025876602
1919+1026130154+1026443948+1026526979+1026506131+1026656523+1026976427
1911+1027238677+1027281092+1027240762+1027467571+1028107668+1028920370
1902+1029664705+1030396964+1031196366+1031954145+1032601430+1033181788
1894+1033698883+1034211594+1034897412+1035737647+1036373934+1036561923
1885+1036474075+1036396651+1036425262+1036547689+1036837975+1037266504
1877+1037502658+1037361037+1037229409+1037644135+1038762867+1040374827
1868+1041911089+1042682455+1042622140+1042198859+1041829423+1041699520
1860+1041717780+1041662354+1041578604+1041722381+1042065434+1042345656
1851+1042521568+1042713367+1042893592+1042948874+1042839388+1042629041
1843+1042464057+1042375993+1042330344+1042499713+1043025148+1043569130
1834+1043669271+1043342608+1042811854+1042149975+1041578675+1041516707
1826+1041969462+1042336239+1042054147+1041389968+1041088179+1041458549
1817+1042154504+1042657150+1042734718+1042498491+1042297203+1042414813
1809+1042780223+1043195596+1043563091+1043804062+1043984143+1044392759
1800+1045139395+1045910473+1046429294+1046733742+1046997070+1047319348
1792+1047559815+1047640834+1047906175+1048556840+1049342224+1049948461
1783+1050402366+1050978051+1051826338+1052764845+1053511481+1054189535
1775+1055265133+1056914548+1058584307+1059606780+1060186778+1060912494
1766+1061983851+1063195391+1064406141+1065697118+1066918076+1067750331
1758+1068387193+1069249642+1070297635+1071285818+1072230866+1073142703
1749+1073741823+1073716590+1072988358+1071701550+1069967235+1067173281
1741+1061928641+1053788324+1044007507+1031753216+1010554533+973711646+930092603
1731+891982463+857060659+822893686+791199828+761970027+734488127+710895982
1721+693146662+679436481+666194295+653571718+647068882+647905379+653142470
1711+661460209+672494333+685977777+702463006+721470306+739657069+755957040
1701+774119792+795880285+815902438+832013414+846694956+858990295+868085294
1691+875856175+883569041+890665319+896518568+901855513+907771306+913511475
1681+917792375+921107379+924137991+927293186+931059938+935406257+939415921
1672+942866147+946634768+950820344+954270714+956799327+959090060+961608825
1662+964354470+966951808+969064258+970638117+971752320+972443242+973012313
1652+974072600+975373569+976614081+977814406+978840114+979592286+980247120
1642+980830353+981278004+981712787+982392566+983440703+984586465+985452509
1632+986025965+986454350+986877343+987374381+987941008+988478448+988768662
1622+988651915+988031588+986156515+980916188+970035977+954488393+936043262
1612+914142802+889313164+865889166+850072287+845226988+850626620+863612954
1602+880824762+898671419+914682326+928217674+939503122+948467570+954437639
1592+956710257+955492103+952476659+950380529+951435352+956081590+962971403
1582+969975016+975353440+978412448+979229751+978254653+976618610+975319940
1572+973993953+971772808+968506042+965668164+964787455+965957588+968563122
1562+971873956+975823664+981453556+987989820+991699780+993423599+994833337
1553+996193543+997543469+999031924+1000707650+1002571940+1004716379+1007114514
1543+1009527602+1011958231+1014343570+1015910169+1016726896+1017466775
1534+1018527205+1019770089+1020710105+1021315049+1021883760+1022570585
1526+1023333611+1023982479+1024080894+1023193572+1021665003+1020063754
1517+1018412399+1016932354+1016074938+1015880191+1016140644+1016763200
1509+1018111976+1021255525+1025434127+1028112772+1029485055+1030315226
1500+1030764387+1030891989+1030878618+1030615577+1029674410+1027473681
1492+1022756345+1013932223+1002080005+991727601+985189971+981756423+980269765
1482+979657992+978914375+977210469+974062823+969697022+965068181+961150462
1472+958536517+957380044+957332957+958133222+959847120+962331378+964887524
1462+967077542+969017889+970999070+973473767+976380802+978842702+980669394
1452+981844990+981728674+978845290+970952414+956194527+933748863+903098181
1442+865937044+827462213+791314778+756882751+727587531+714057647+718534156
1432+735310246+760266983+788934830+815732996+839000133+860481195+880416866
1422+897178147+911179837+924893828+938114088+947900225+954032618+957843151
1412+959789609+959986081+958597335+955121085+947823304+935028194+918391352
1402+902260750+888769110+877500413+868183206+861283904+857519381+857968326
1392+862871135+871028130+881339198+893182070+905216526+915509837+923370076
1383+929206935+933314080+935886545+937502890+939026787+941255049+944594495
1373+948682877+952859610+956992779+961245787+965634879+970308148+975758390
1363+982147929+988630780+994269011+999076999+1003446394+1007437942+1010749207
1353+1013089687+1014418622+1014822133+1014385337+1013180914+1011307063
1344+1008999077+1006534301+1003855153+1000512400+996246669+991384764+986342491
1334+981309922+976551538+972533391+969660143+967975503+967129733+966565119
1324+965712663+964117309+961425221+957221529+951076052+942951838+933378636
1315+923246715+913885153+907115250+904624019+907186276+914107360+922849386
1305+929590030+930845278+924868883+911907926+893427786+871147106+846640104
1295+821334132+796438573+772799987+750755030+729995084+709679841+688882225
1285+667047614+644247394+621254082+599355095+579912041+563996351+552283633
1275+545120966+542712479+545249575+552748393+564762900+580358794+598298726
1265+617219832+635917148+653683505+670326026+685880081+700428844+714085468
1255+726928384+738938685+750068493+760327154+769783322+778584727+787029708
1245+795514731+804284793+813247660+822128502+830766577+839147145+847216220
1235+854877040+862171873+869251113+876093767+882456348+888213842+893600534
1225+899004264+904650905+910592219+916849771+923367200+929849763+935842477
1215+941035501+945389512+948932043+951595232+953327893+954161730+954042036
1205+952713317+949811026+944975649+937966357+928814494+917828320+905453687
1196+892287056+879194758+867159511+856858652+848348036+841033145+833879429
1186+825897052+816830593+807586713+800005978+796163814+797663916+805074778
1176+817397292+831798251+844343620+851822920+853303108+850127066+844776749
1166+839854602+837593774+839485741+845921146+856236455+869210208+883528352
1156+897960009+911455674+923345849+933491645+942182198+949813614+956600123
1146+962560631+967688092+972040090+975716910+978842702+981493095+983562483
1136+984787826+984928440+983774123+980884701+975406782+966201146+952102910
1126+932166089+906027286+874325017+838758515+801658555+765393438+731795608
1116+701691425+674908715+650970353+629864335+612080724+597994889+587370278
1106+579450552+573487097+569342641+567808680+570375071+578509205+592822856
1096+612604218+636040149+660993291+685738244+709184887+730673138+749776122
1086+766400168+780904863+793851011+805581665+816117673+825332222+833137897
1077+839662803+845324829+850625326+855907420+861355002+867029680+872824197
1067+878577881+884278439+889988055+895601844+900836060+905436865+909381110
1057+912940032+916487739+920151403+923740877+927064508+930126104+932965851
1047+935544139+937837820+939834744+941404146+942362638+942676504+942456597
1037+941830374+940957789+940059468+939241087+938376985+937241575+935414811
1027+931752154+924330580+911556606+893338284+871003759+846756277+824007098
1017+807534593+801540514+806783069+820128415+837041525+854146579+869820903
1007+883433172+894492313+902130128+904984397+901742289+892451393+879886902
997+869391152+866267804+872344340+884898479+899036542+911024198+919669964
987+925584535+929874134+933306172+936105374+938185330+939443238+939866016
977+939548124+938670938+937341213+935483177+933038962+930203024+927320216
967+924675862+922471682+920827157+919658534+918580132+916963858+914340783
958+911185301+909271911+910633986+915841028+923526362+931661862+938996738
948+945280385+950631205+955110733+958811491+961937140+964575671+966573602
938+967858828+968744928+969673730+970767660+971854330+972797222+973596553
928+974285031+974940296+975709433+976689204+977881478+979267421+980750700
918+982080425+983050204+983666793+983918332+983556013+982274741+979915425
908+976419981+971851095+966525436+960962114+955693175+951212568+948035519
898+946674882+947448692+950240633+954517723+959670418+965257392+970905327
888+976157084+980550131+983838751+986178944+988108508+990207299+992633471
878+994960795+996462407+996494685+994573819+990228650+983046681+972889024
868+959831233+943844264+924731863+902423506+877355054+850834810+825237617
858+803673020+789045108+782921772+784849108+792551048+802933860+813319908
849+822280691+829760135+836592437+843817682+852165470+861810561+872385460
839+883195364+893374875+901800590+907112950+908264463+905293518+899643211
829+893803116+890437719+891268680+896260560+903810023+911940779+919502895
819+926394433+932915097+939144613+944909799+950136682+955024898+959811535
809+964486601+968914801+973189663+977652225+982470709+987377329+992012927
799+996437749+1000954012+1005330740+1008470767+1008957525+1005649207+997487539
789+982842949+959634689+927000095+887408257+847071652+814244038+796777312
779+799344817+820471755+851688057+880841872+897797971+899103758+889732275
769+880377183+880303569+890816500+905398045+915796242+917582604+910969994
759+898386812+882314512+864700055+846989484+829964011+813635284+797605758
749+781636115+765878112+750762147+737073748+726390728+721277716+724576689
739+738011392+761183636+791545325+824807794+855524110+878294999+889591948
730+889562546+882498619+874503948+869096768+864361388+854485031+834128308
720+801900460+760657555+715344742+671751076+637406034+621250415+629598347
710+661317078+706990844+753544312+790676478+813925786+823647007+822619790
700+814108815+800537307+782735293+760186827+732310115+699961567+666129523
690+635409254+612807088+602420716+605938841+621712731+645399626+671944960
680+697900662+722308385+745537924+767824642+788556696+806453315+821190355
670+834774156+849902126+864884881+875686446+883313118+890282511+897230123
660+903534114+908778107+913146065+916912458+920146011+922854562+925198205
650+927328699+929137131+930509630+931524770+931942012+930995597+928553107
640+926311186+926752439+930402300+934792902+936744249+935425379+932763269
630+931136571+931029888+930846285+929262289+927654283+928972146+933821758
620+939042315+940866059+938997528+937115914+939130091+945475060+953433857
611+959861210+962608293+960071341+951038095+935933776+918102072+903408812
601+897661958+902848584+915389567+929041591+939591185+946396601+950231000
591+950756866+946452315+936118242+920038034+901208946+885948773+881355373
581+890259723+908442890+928012504+943463973+954051453+961692791+967807140
571+972366465+975199886+977134483+979368999+982155980+984690345+986180597
561+986719259+986904013+986803297+985886788+983777502+980275588+974833470
551+966757421+955723944+941723620+924960469+905954391+885074534+862150307
541+837755812+815080822+799428927+794875065+800597765+809780324+812814962
531+803275979+781959326+755739361+733781174+723938461+728328847+742317238
521+759329123+774310944+783380638+783292933+772914290+754247599+730982906
511+707174807+687022464+674161648+670157303+673516662+680643708+687358975
501+689733459+686053548+678191009+669819139+664113117+662727534+665952102
492+673187268+682851985+692951844+702480619+711569938+720336478+728413317
482+735820656+743435826+752164192+761826681+771103558+778733393+784299303
472+787927598+790137600+792199081+795780000+801726274+809382421+817189461
462+823568289+827659475+829668692+830453286+830743069+830451776+828878132
452+826059089+823712067+823549383+825039635+826289636+826917871+828516388
442+831565044+833859588+833395618+830764276+827902531+825700868+823762461
432+822342515+822569324+824558987+827110102+829757331+833715163+840065092
422+848119430+856736441+865897146+874737443+880345768+881627399+879341986
412+874321782+867020766+858487650+851175850+846762890+844044563+841389066
402+839709531+841028616+845262501+849026234+849996013+850758464+852878390
392+855262291+857845036+861698774+866626600+871741913+877827866+885152102
382+890079785+890511980+890620963+896586000+908738641+914361775+902000082
##END=
