##TITLE=SG-X4216
##JCAMP-DX=4.24
##DATA TYPE=INFRARED SPECTRUM
##DATE=17/2/2021
##SAMPLING PROCEDURE=SG-X4216
##ORIGIN=Operator
##XUNITS=1/CM
##YUNITS=TRANSMITTANCE
##RESOLUTION=4
##FIRSTX=3996.7798
##LASTX=399.67798
##DELTAX=-2.0601958
##MAXY=1.1237361
##MINY=0.92994529
##XFACTOR=1
##YFACTOR=1.0465608e-09
##NPOINTS=1747
##FIRSTY=0.93794978
##XYDATA=(X++(Y..Y))
3997+896220976+896290971+896547259+896898658+896977823+896831454+896781620
3982+896716181+896438821+896226956+896361821+896671018+896738564+896521232
3968+896409661+896477207+896508417+896417634+896331749+896332262+896188114
3954+896000739+896086055+896256059+896273885+896267621+896187716+895974883
3939+895887745+896025514+896300938+896339210+896121536+896138508+896237663
3925+896158841+896038955+895984223+896061166+896470714+896911985+896961306
3910+896834415+896869043+897076864+897094633+896891084+896657235+896365466
3896+896413932+896819209+897042180+896796884+896477321+896151551+895983540
3881+896164365+896383690+896808274+897227561+897190656+896859987+896449699
3867+896395992+896494521+896142210+895815927+896366092+897400185+897258373
3853+895556222+895324082+896027222+896450439+896518498+896433296+896507278
3838+896244042+895929719+896500672+896869954+896647895+896492129+896372869
3824+896669936+896863006+896413078+896490135+896471626+896253781+896623006
3809+897041268+896864316+896728654+896933229+896483187+896229405+896689641
3795+896899342+896834757+896750353+896733951+896835270+896940690+896970590
3780+896764648+896470031+896643908+896904354+896771198+896460805+896071987
3766+895774352+896031779+896621583+896709461+896286358+896230032+896757130
3752+897271757+897017633+896913865+896890286+896040379+896061508+896883680
3737+896914776+896090725+895311382+894912712+895325107+896220919+896657178
3723+896467240+896173136+896134749+896348494+896596352+896622893+896454141
3708+896598744+896955497+897073561+896595726+895999999+895967593+896236069
3694+896806850+897600716+897538979+896442466+896127630+896580064+896999180
3680+897519046+897951888+897370057+896844496+897085122+896921610+896644364
3665+896757017+896903442+897053741+897476103+897744010+897727607+898232438
3651+898806352+898240126+897309744+897211216+897446431+897682956+897883032
3636+897855751+897679938+897814176+898289277+898135561+897721912+897860820
3622+898397202+898946285+898636006+897859339+897555724+897640128+897838381
3607+897989704+898186135+898655028+898831354+898572731+898445384+898393557
3593+898434165+898790348+899175520+899069702+898912512+899223873+899690431
3579+900049462+900249594+900297321+900322437+900344706+900180511+899930317
3564+899937379+900035964+900045475+900277672+900790988+901088738+901089137
3550+901138458+901161979+900859389+900470287+900461630+900819009+901213009
3535+901370883+901433303+901646136+901986657+902283951+902336234+902150453
3521+902155124+902604254+902901092+902866807+902961576+903115007+903276127
3506+903484461+903520056+903356430+903269463+903274418+903338433+903611750
3492+903884042+903984792+903998631+904020216+904165731+904484496+905002312
3478+905461921+905626002+905735238+905745888+905642519+905704142+905678684
3463+905657668+906001493+906356822+906508032+906771894+907223246+907629206
3449+907916875+907980434+907823073+907833154+908153856+908338725+908187002
3434+908074179+908019219+907887772+907855821+907890335+908080500+908548938
3420+908849934+908812345+908813142+908860356+908836493+908953531+909157707
3406+909260849+909294736+909301399+909417811+909518788+909324636+909033891
3391+908897375+908939065+909248262+909741132+910139461+910259346+910193566
3377+910186447+910276204+910444443+910508059+910543313+910830527+910825686
3362+910417561+910445468+910708306+910616555+910721291+911256249+911556790
3348+911503710+911410421+911122866+910765714+910791400+911013687+911125599
3333+911163758+911064603+910885201+910884461+910968751+911013801+910993241
3319+910882582+910916355+911165353+911542608+911863766+911910581+911924876
3305+911977387+911893096+911842181+911927325+912014292+912013950+912010647
3290+911892128+911754644+911970552+912415183+912889829+913196862+913207341
3276+913013530+912680698+912495829+912535696+912457101+912400831+912578524
3261+912806108+912941143+912658144+912011957+911567952+911617160+911936779
3247+912184126+912428055+912701258+912578182+911923623+911547392+911953694
3232+912598742+912883792+912619758+912186176+912060253+912035536+911745987
3218+911591816+911877662+912109005+912220461+912403850+912430219+912336418
3204+912216418+911936779+911752252+911847192+911847477+911753562+911790980
3189+911879826+912026822+912198762+912160889+911887230+911773780+911982114
3175+912112080+912014292+912016570+912153656+912196940+912048919+911715176
3160+911473980+911518176+911821165+912162028+912061791+911748778+911746784
3146+911783918+911583671+911321460+911219970+911226976+911110906+910971827
3131+911009074+911125713+911310127+911579571+911708740+911613401+911304431
3117+911050194+911228570+911442542+911262970+911073431+911233468+911480644
3103+911391911+911034361+910908040+911189216+911604288+911886034+911880681
3088+911633391+911497445+911523928+911329035+911203511+911505076+911661811
3074+911456894+911234038+911006739+910713545+910559545+910734618+910992273
3059+911093250+911110849+911040854+910998367+911155386+911350506+911364061
3045+911254826+911254769+911491977+911720244+911691996+911687098+911835289
3031+911635157+910439545+907963462+904840053+902856612+903241898+904860214
3016+905751071+904365294+899609444+893238240+889668434+890961549+894948193
3002+898654117+901063337+902662232+903851066+904592194+905040755+905439767
2987+905836215+906284548+906808287+907256335+907498841+907513421+907367963
2973+906966958+906152133+904970418+903263483+901281182+900182504+900556855
2958+901640611+902542289+903112615+903468172+903659932+903668418+903239221
2944+902437439+902156889+902948078+904163965+905110123+905884511+906674846
2930+907178993+907056659+906487187+905977516+905830235+906078094+906601149
2915+907001813+907032454+906996402+907120047+907235206+907023626+906301179
2901+905260707+904283054+903632538+903498642+903770933+904040719+904284307
2886+904698411+905065643+905047076+904865909+904948035+905409695+906049789
2872+906575350+907110080+907732518+908143376+908278696+908371871+908478829
2857+908513171+908455991+908285246+907992166+907667706+907417740+907119193
2843+906691192+906185963+905538010+904901163+904720793+905029820+905437318
2829+905828527+906270481+906826056+907421840+907692082+907541441+907363578
2814+907442457+907626415+907646633+907540758+907501916+907549415+907634616
2800+907711503+907788503+907909015+908048891+908095422+907918071+907691284
2785+907741232+908059485+908233760+908065636+907939314+908037843+908126404
2771+908060396+908009651+908137795+908241848+908244069+908173277+907870401
2757+907383967+907054153+907124319+907338575+907355718+907401907+907629434
2742+907750857+907788617+907943586+908030894+907773695+907401053+907291589
2728+907376107+907533867+907717711+907836002+907887658+907876039+907859580
2713+907941706+908031749+908004183+907924506+907871996+907851265+907747041
2699+907517350+907415576+907581707+907822675+907913799+907915850+908005550
2684+908099807+908093429+908026737+907907876+907734170+907573791+907461878
2670+907398262+907416999+907431351+907339486+907179734+907049938+907036953
2656+907035871+906969236+907034390+907169368+907160711+907269719+907624422
2641+907751370+907549529+907453620+907496506+907552490+907577777+907356231
2627+907077617+907159060+907409368+907625162+907871426+907861573+907432320
2612+906877770+906633043+906797979+907085420+907344897+907490355+907538480
2598+907539106+907379866+907266017+907487678+907744023+907721299+907675224
2583+907678413+907491152+907511883+907892100+907850639+907536316+907696239
2569+907943813+907793686+907559894+907575385+907796021+907847734+907563368
2555+907270403+907124148+907164812+907494000+907833040+907936922+908052536
2540+908136371+907586149+906646598+906437866+906961149+907379638+907467972
2526+907454133+907510516+907509092+907365742+907257702+907369501+907510915
2511+907343018+907118452+907276554+907467801+907222107+906983189+907138158
2497+907418252+907483122+907314256+907233212+907491209+907751028+907681033
2483+907698973+907919438+907901953+907544631+907228998+907215329+907267783
2468+907151371+906999136+906934381+906911657+907064461+907276269+907284698
2454+907202230+907084053+906747974+906427500+906550177+906826170+906910176
2439+906928515+906887053+906584121+906285972+906362061+906621823+906823095
2425+906793593+906685440+906740171+906679118+906369807+906192000+906425450
2410+906745354+906805382+906724851+906615388+906528535+906417363+906210339
2396+906047966+906054801+906118132+905869305+905478893+905608461+906155038
2382+906512417+906545165+906347652+906204985+906603143+907216924+907244660
2367+906450281+905541940+905306554+905626686+906258464+906614192+906308981
2353+905676178+905382472+905827331+906415483+906383931+906103154+906065679
2338+905814972+905152496+904804571+905156483+905449562+905493188+905770891
2324+906041018+905919196+905865603+906018465+905679310+905054765+904921780
2309+905501617+906160163+906121265+905853871+905836102+905860990+905789002
2295+905595134+905525310+905566885+905570701+905788318+906083790+906199233
2281+906549664+906821443+906349076+905798854+905821977+906210794+906286884
2266+905746287+905348642+905613188+906053320+906317695+906495331+906249864
2252+905422795+904809184+905290607+906456774+907162021+906967869+906224634
2237+905971820+906270367+905955703+905492448+905873520+906459166+906558549
2223+906103040+905548205+905582377+906015332+906319176+906529047+906932558
2209+907394674+907472358+906857893+905970112+906140458+907101765+907435623
2194+907040712+906276290+905832912+905477925+904786859+904761572+905441988
2180+906173206+905996481+904620272+904130135+904995249+905543421+905651859
2165+904968652+903857103+904579721+905948299+905292486+904409147+905201248
2151+906051440+906077639+906407624+907112301+907341309+906828505+906144843
2136+905856548+906136186+906337629+906135617+906606161+907461423+907225410
2122+906729692+907094361+907410108+907177456+907015652+907334646+907986756
2108+908445226+908479341+908350286+908114729+908051853+908484125+908863659
2093+909066184+909876452+910825401+910410499+908658344+907417740+907921887
2079+909145120+909877022+909914497+909386544+908906032+908615971+907884469
2064+906870764+906533888+906853166+907063493+907467630+908450466+908706014
2050+907672205+906416451+905643259+905140650+904603641+905084438+906686237
2035+907196421+906951865+908368739+909590378+908007999+906137382+906818482
2021+908714101+910226769+911430810+912244040+912264771+910748685+908430533
2007+907051305+906814609+907865503+909528014+909704853+908464590+906994010
1992+906496983+908206081+909991440+909981245+909560022+909214774+908457927
1978+908062560+908305692+908221402+907431978+906510367+906370889+907307422
1963+907330716+906229703+906703608+908166100+909001371+909265860+909041865
1949+908992544+909772912+910297733+909424417+908600480+908753171+909086744
1935+909352657+909433302+909054793+908784039+908970845+908667514+907837653
1920+907205078+906489066+906065109+906458483+906913707+906972539+907028695
1906+907401907+907885095+908266281+908717803+909220013+909346563+908973294
1891+908699407+908842188+909063678+909202415+909207996+909100811+909114821
1877+909260735+909433530+909620278+909709979+909485812+909037878+908580262
1862+908113476+907903719+907956628+908060795+908323347+908705786+909164598
1848+909542139+909374014+908708178+908568359+909061969+909340753+909390075
1834+909716585+910158027+910261852+909938759+909604160+909485755+909264778
1819+908909848+908610219+908376769+908313893+908382749+908491871+908749753
1805+909140678+909348556+909233625+909071480+909001200+908820546+908379617
1790+908247828+908636987+908974262+909173027+909523003+909991155+910378093
1776+910622876+910587338+910311060+910318293+910552711+910865780+911149861
1761+911065799+910940674+911051390+911215015+911451028+911621374+911596486
1747+911533496+911559637+911695356+911707487+911572452+911586006+911417369
1733+911103331+911341565+911787961+912262094+912637698+912715325+912813569
1718+913067977+913254498+913717069+914681452+915650505+916324998+917072561
1704+918108306+918955423+919323737+919959787+920914545+921757163+922543625
1689+923366936+924231082+925128659+926351494+927654860+928792722+929881433
1675+930913305+931811964+932181133+931771471+931636550+932029126+932144911
1661+931990796+932240421+932872598+933102573+932714667+933356583+934227393
1646+934444782+934612337+935088235+935609981+936012637+936027046+936042879
1632+936380952+936536661+936609560+936886124+936867215+936645669+936780305
1617+936699318+936129448+935924190+936042993+936138275+936081436+935887626
1603+935760621+935846848+936067027+936264141+936211688+936100516+936223021
1588+936432209+936759631+937006807+936912834+936970528+937204433+936841188
1574+936438075+936562631+936387615+935967018+936068508+936629836+937408894
1560+937856714+937327508+937099754+937391409+937823625+938243880+938771207
1545+939391310+939918579+940072751+939970349+940358028+940916678+941223711
1531+941376117+941619477+941739932+941670905+941590545+941410574+941286530
1516+941253839+941210384+940971353+940378075+939175230+937182734+935426820
1502+933447309+930954881+929244700+929327395+930192566+930805949+931103926
1487+931365682+931284923+929892824+924754877+914190233+901459444+894125395
1473+897850227+907329918+914213641+918753924+922364053+924969988+926718840
1459+927723944+926693496+922942922+917955445+914694266+916675771+922210565
1444+926687630+929136262+929974893+928536149+924778797+922064594+920931517
1430+919285921+916540052+913382300+911358594+912907427+918387148+924514536
1415+928369163+930806860+932456671+933626198+934576229+935419986+936242955
1401+936991372+937620417+938305788+939204675+940243495+941118234+941654844
1387+941932774+942221127+942876654+943893377+944663209+944782468+944822734
1372+945401489+946173428+946691016+946976065+947173464+947348879+947593890
1358+947861284+948138644+948481899+948564310+947467170+944086846+936817723
1343+923668558+906250718+894204389+895500067+904058545+912749098+920538087
1329+926971540+931347058+934298527+936838226+939050504+940085109+938609745
1314+933550736+926775850+923192660+924747587+928737591+932390093+934990106
1300+936599081+937509302+938010772+938176106+938184991+938073648+937819239
1286+937685799+937729766+937804489+937992718+938382788+938811301+939157062
1271+939499121+939906619+940377562+940822193+941153147+941468381+941804574
1257+941932433+941990354+942209053+941977995+940529854+937896524+934901316
1242+932717743+932043478+932219804+932396415+932906713+933558652+932733006
1228+930090165+928159064+928882024+931005455+932810348+934175452+935555420
1213+937251419+939319777+941676828+944283903+946841770+948815073+949871378
1199+949971387+949304754+948365260+947648735+947167598+946463774+944771306
1185+940827775+933448619+924510151+919725540+922200940+928412334+933437115
1170+935639653+936435683+938070231+941222743+945097418+948809492+951956423
1156+954577850+956642391+958069516+959142964+959995321+960537512+960907592
1141+961366860+962032069+962640554+963272731+964346406+965628301+966757221
1127+967787499+968784402+969789392+970864662+971922049+972849470+973898200
1113+975200029+976579085+978303049+980382057+982247946+983429719+983513667
1098+982959174+982948695+983399875+982702658+980303120+979180920+982267766
1084+987860994+992836397+995897841+996706002+996359957+997339888+1000634953
1069+1004845251+1008251944+1010284592+1011525481+1012461445+1012958415
1057+1013020836+1012954884+1012916840+1012912511+1013044528+1013571684
1045+1014671672+1016052893+1017442998+1018957945+1020378919+1019907691
1032+1015680193+1010541336+1010164649+1014888776+1019857458+1021554996
1020+1018411539+1007835049+988966905+967153841+949334882+938246614+935644494
1005+943037091+956534409+969210751+977857791+983189036+986571922+988621656
991+989617420+989993879+990023722+989549419+988397148+986724670+985004579
977+983732366+983014418+982496261+981753596+980948624+980312574+979613534
962+979035121+978988648+979127043+979013479+978920988+979050840+979121462
948+979038652+979111780+979209397+978763000+977951991+977354670+976974908
933+976434311+975901802+976041223+976564392+976893238+977099863+976942900
919+975860340+972790580+966026971+956961669+951978521+954481713+960710535
904+966587615+970955787+973998209+976216296+977933311+979352235+980306765
890+980689602+980741885+980234321+978804234+976081545+970773993+960667478
876+944192209+925873830+915660358+917720856+926804782+935874584+941693345
861+944375711+945302277+945813828+946682587+947878711+948817351+948897883
847+948363950+948580883+950345853+951811819+947080801+930550743+906294572
832+888572604+888631152+902911230+919546480+931980659+940066030+945326653
818+948569208+948674172+944421729+938729973+937686710+942808425+950143442
803+956566872+961335536+964396069+965790161+966237469+966959290+968405209
789+969468520+967746265+959778558+944534723+930694720+929327111+938719380
775+949466728+957060311+961736712+964345723+965984712+967539412+968838962
760+969718998+970598464+971535795+972408996+973225359+974011081+975080997
746+976354008+977331205+977808242+978084122+978584054+979193792+979848636
731+981021637+982673157+984476171+986771144+989374004+991135898+991595393
717+991606784+991705199+991628084+991600405+991957955+992080974+991139315
703+988112839+980878344+968776200+957055299+953386452+958159616+965669307
688+972485883+978194497+982386342+985327502+987690818+989777913+992211396
674+994735319+997189077+1000443250+1004218314+1006160065+1006618650+1006709774
659+1007084866+1008138152+1009851522+1011387997+1012038513+1012596993
647+1013355377+1013977644+1014888434+1015687597+1015889894+1016473547
635+1017692224+1018626479+1019407417+1020518226+1021441546+1021733258
622+1022176921+1023260051+1024440456+1025563111+1026690322+1027969712
610+1029703813+1031450899+1032670715+1033542892+1034155021+1034335220
597+1034320071+1034661218+1035182907+1034793349+1031802184+1023762831
585+1010007345+997862032+997265394+1005971096+1015243820+1022314975+1026829287
571+1029376789+1032227394+1035515170+1038045130+1039838234+1040411408
558+1039924917+1039863408+1040445466+1040932869+1040708246+1039985856
546+1039893593+1040494559+1040838668+1041132545+1042694876+1045504362
534+1047452719+1048020312+1048526964+1049404039+1050198417+1050464729
521+1050651534+1050223021+1048148683+1044711919+1041117965+1039541852
509+1041179247+1044864667+1048325807+1051203522+1053579937+1054950679
497+1055963643+1055762143+1054816156+1054845658+1053918123+1049944294
484+1042028756+1028135672+1005280029+973112136+943202937+934033297+949155651
470+972489869+993021949+1008377354+1015775532+1013644356+1004729295+997572711
455+1000777221+1011050153+1019753349+1025960414+1033860803+1041823384
443+1045984246+1046809038+1047072958+1048747714+1051763938+1054348687
431+1055959542+1056772715+1058052560+1060122683+1060335003+1060657129
418+1064508737+1065609409+1063346443+1062638177+1064616151+1068435296
406+1072406620+1073741823+1072414707+1072316065
##END=
