##TITLE=B. Stanek BS 1591
##JCAMP-DX=4.24
##DATA TYPE=INFRARED SPECTRUM
##DATE=16/9/2013
##SAMPLING PROCEDURE=ATR platinum Diamond 1 Refl
##ORIGIN=Angelika Kernert
##XUNITS=1/CM
##YUNITS=TRANSMITTANCE
##RESOLUTION=4
##FIRSTX=3997.4121
##LASTX=373.82813
##DELTAX=-1.4160156
##MAXY=1.0578328
##MINY=0.30229828
##XFACTOR=1
##YFACTOR=9.851836e-010
##NPOINTS=2560
##FIRSTY=1.0000625
##XYDATA=(X++(Y..Y))
3997+1015102630+1015076736+1015059432+1014997056+1014915077+1014844835
3989+1014647118+1014102669+1013407935+1013199872+1013772998+1014638768
3980+1015159501+1015242024+1015120780+1014889545+1014628362+1014600108
3972+1014906667+1015215767+1015198101+1014995906+1014919191+1014908845
3963+1014688561+1014311034+1014162928+1014397672+1014716875+1014800669
3955+1014634957+1014312002+1013838339+1013351124+1013319059+1014046100
3946+1014941637+1015039225+1014349513+1013846265+1014053723+1014363186
3938+1014121484+1013484106+1012880305+1012462243+1012281163+1012454499
3929+1012796511+1012707877+1011925901+1010999449+1010691256+1011051782
3921+1011561624+1012101354+1012920175+1013819282+1014097647+1013408661
3912+1012188657+1011222516+1010995758+1011271824+1011452480+1011401539
3904+1011468029+1011666110+1011492774+1010963995+1010772933+1011091350
3895+1011303285+1011005680+1010571706+1010768758+1011632169+1012000499
3887+1011312179+1010590159+1010925516+1011591088+1011330692+1010707107
3878+1010744981+1010839121+1010234050+1009639566+1009821312+1010221526
3870+1010141060+1009986177+1010037784+1009893308+1009803524+1010607765
3861+1012243169+1013483440+1013445990+1012142616+1010096833+1008343089
3853+1008710936+1011916524+1014700419+1014926814+1013537165+1011797457
3844+1010589251+1010260126+1010342952+1010028770+1009377718+1009446750
3836+1010649874+1011807138+1011965590+1011506326+1011092076+1010750124
3827+1010287170+1009850413+1009420432+1008737617+1008524653+1010276037
3819+1012924955+1013201566+1011447519+1010503763+1010877418+1010644973
3810+1009117563+1007137848+1005859642+1006261914+1007864647+1008890321
3802+1009251634+1010503642+1012473133+1013293043+1013172646+1013319240
3794+1013368609+1012415113+1010895931+1009872919+1009742176+1010337567
3785+1011474261+1012636123+1012927012+1012226470+1011549706+1011674398
3777+1012021190+1011709670+1010738568+1009501927+1008421196+1008025459
3768+1008458465+1009208133+1010010559+1010827142+1011019172+1010096107
3760+1008776156+1008264075+1008538689+1008435414+1007515737+1006412622
3751+1006136374+1007210510+1008409822+1008366503+1007970947+1009191738
3743+1012048537+1013621927+1012743694+1010705837+1008923355+1008365596
3734+1009097537+1009970386+1010120731+1009799350+1009289084+1008684013
3726+1008432570+1009098506+1010440721+1011456171+1011407589+1010407627
3717+1009179879+1008246832+1007534614+1006995973+1007221339+1008714687
3709+1010741654+1012326842+1013059025+1012619062+1011258635+1010092417
3700+1009793058+1009633032+1009136077+1008983493+1009522255+1009851078
3692+1008929163+1007251469+1006963665+1008889535+1010408898+1009797535
3683+1008320099+1007604493+1007816125+1007802512+1006706052+1005326930
3675+1005334675+1006242674+1006001517+1005152687+1005783532+1007882676
3666+1009122403+1008765508+1007838208+1007162835+1006634600+1005738822
3658+1004657063+1004407314+1005205807+1005404614+1003821362+1001433506
3649+1000534461+1002581393+1005550179+1006817313+1006386909+1005209619
3641+1003930385+1002734581+1001482815+1000162924+999236955+999137189+999417672
3631+999273498+999060171+1000098429+1001877402+1002380469+1001657542+1000753595
3621+1000104359+999811473+999894178+999783703+998922713+997801204+997211077
3611+997123956+997052020+997108770+997671490+998367373+998454132+997812760
3601+996906212+996187944+995708292+995359382+995374386+996114677+997252762
3591+997820081+997433479+996867613+997301889+998704727+999608613+999259643
3581+998190347+997205088+996668020+996367511+996025620+995805698+995983269
3571+996322438+996300415+995839942+995428898+995363799+995140913+994356093
3561+993450090+993155208+993749812+994729203+995221863+994827033+993971367
3551+993347420+993031967+992555703+991792784+991185293+991153893+991630279
3541+992265721+992760136+992896384+992568710+991946034+991463780+991392449
3532+991525188+991524281+991351006+991122070+990821077+990427336+990016232
3522+989599258+989268197+989387807+990113094+990890593+990988725+990417838
3512+989852274+989782395+990090043+990325815+990195315+989810286+989571186
3502+989722801+989946413+989677002+988876634+988136343+988025747+988515745
3492+989101274+989370685+989333780+989268136+989314843+989303892+989045976
3482+988640317+988352453+988313248+988455667+988667542+988898354+989144290
3472+989333235+989282475+988938466+988569046+988457724+988517621+988500196
3462+988409868+988410292+988479142+988390024+987938988+987159614+986424587
3452+986172479+986411458+986741249+986896918+986978655+987162155+987491341
3442+987897848+988141788+987898392+987201239+986574387+986460524+986750022
3432+987110427+987490918+987934148+988139065+987744357+986947739+986347085
3423+986197526+986232617+986172418+986050872+986041070+986159894+986140655
3413+985663241+984862086+984344863+984441846+984771637+984830686+984628250
3403+984473488+984516202+984723358+984991438+985127626+984956347+984546694
3393+984195244+984130992+984316064+984530057+984565147+984356298+984015314
3383+983734347+983599974+983548246+983534754+983597130+983666465+983511521
3373+983028602+982452572+982118364+982100818+982230291+982341734+982314448
3363+981984596+981253259+980210463+978978480+977607950+976293201+975391252
3353+974947113+974445983+973341174+971666262+969887955+968305973+966861329
3343+965473375+964222576+963142269+962132507+961103263+959962818+958581700
3333+957059977+955785704+954952847+954302460+953502092+952494749+951457035
3323+950662354+950311690+950305519+950281318+949944509+949245117+948323444
3313+947447328+946925143+946937667+947443456+948218898+949000814+949705288
3304+950513340+951635150+952978516+954146791+954789070+954893979+954752467
3294+954716106+955027202+955744866+956709797+957647201+958412720+959051551
3284+959584807+959902922+959953743+959887373+959915990+960143413+960575693
3274+961143677+961666769+961983855+962171772+962393387+962506706+962156162
3264+961362268+960677940+960542841+960724587+960636679+960101063+959514323
3254+959231602+959119857+958952995+958885415+959105699+959342864+959223434
3244+958902295+958829270+959011681+958998734+958575892+958080449+957954788
3234+958269575+958841915+959545482+960221823+960518762+960255098+959798860
3224+959653476+959805092+959870009+959701998+959454064+959205526+958901085
3214+958605598+958527309+958736219+959018699+959114049+959029347+959000307
3204+959180721+959485222+959719362+959810537+959888764+960057623+960141114
3195+959931478+959623649+959576337+959762801+959947935+960221278+960820481
3185+961614557+962238625+962561338+962697284+962811933+963108994+963716001
3175+964410129+964749238+964592358+964227779+963956613+963869492+964012637
3165+964344546+964520846+964193656+963520159+962984724+962810239+962841700
3155+962845027+962746108+962750646+963171854+963954496+964650379+965063964
3145+965443366+965834747+965877764+965481058+965091068+965049625+965177706
3135+965148363+964902668+964583223+964277450+963908515+963334783+962502047
3125+961451749+960243785+959008051+957991815+957396121+957213287+957250072
3115+957219821+956933167+956505848+956217198+956144536+956186705+956350360
3105+956682632+957012665+957038136+956611785+955849835+955066105+954609261
3095+954647861+955068767+955539102+955683155+955362197+954862156+954617610
3085+954643626+954405373+953343398+951401556+948949751+946371438+943935423
3076+941947298+940663829+940017194+939704948+939580739+939721767+940187988
3066+940972324+942112466+943600913+945184407+946403201+946934763+946949102
3056+947005973+947438918+948005450+948348854+948503495+948641800+948639380
3046+948276253+947670335+947235877+947354338+948157792+949418755+950642449
3036+951500173+952153463+952986804+954118719+955326320+956337111+957028093
3026+957377547+957339613+956868068+956073992+955269751+954738189+954489409
3016+954302400+953951433+953391617+952851040+952748067+953341583+954394422
3006+955243796+955274047+954389158+953027038+951642895+950277265+948787668
2996+947295894+946086962+945204010+944444298+943628925+942628601+941274043
2986+939470930+937291440+934813377+932055013+929165665+926436220+923912116
2976+921227200+918125614+914988332+912512629+910970578+910049631+909301536
2967+908508004+907699528+906986584+906313994+905443081+904333068+903314412
2957+902510353+901332276+899112856+896100085+893207046+890816044+888409070
2947+885412755+881962501+878693509+875964064+873386235+870141080+865726137
2937+860227922+853964792+847273860+840651173+834604335+829293976+824681376
2927+820978469+818533561+817272719+816605937+815935404+815052391+814085161
2917+813291024+812893229+812993964+813647073+814925520+816710604+818561150
2907+820132059+821621172+823483576+825879357+828712561+832009808+835924710
2897+840467855+845442009+850600510+855748000+860712838+865344254+869602439
2887+873581533+877372045+880935254+884132795+886808696+888832033+890130325
2877+890728680+890794506+890642164+890635267+890998999+891699843+892514853
2867+893247763+893857432+894330853+894548051+894426323+894054302+893510277
2858+892703737+891568496+890286660+889211314+888604488+888455111+888606788
2848+889131755+890362952+892340186+894470610+896005885+896728328+897030289
2838+897443208+898187734+899133971+900102895+901092995+902233016+903679415
2828+905522942+907614040+909578388+911205443+912697702+914365897+916179053
2818+917762789+918808489+919361832+919677164+919937923+920257550+920789778
2808+921586516+922458820+923184531+923762921+924318199+924876321+925381505
2798+925841676+926360594+927048430+927919827+928839201+929588143+930097683
2788+930604803+931402509+932414813+933224438+933560582+933560219+933513936
2778+933556468+933662284+933817288+934071695+934431011+934802366+935127317
2768+935482882+935964410+936560285+937174128+937665155+937886347+937822760
2758+937662674+937635025+937836554+938270226+938911598+939613773+940076182
2748+940117807+939939450+939925111+940233909+940765168+941380646+941927394
2739+942234799+942308611+942335231+942381817+942343096+942183918+941950021
2729+941617386+941192669+940862817+940845090+941198053+941839546+942598774
2719+943246316+943629349+943768017+943750835+943644171+943577378+943721673
2709+944043115+944270357+944249182+944157644+944241619+944516718+944836042
2699+945093535+945279696+945456480+945727465+946142865+946582103+946795248
2689+946652828+946356615+946260842+946442829+946637763+946631169+946471386
2679+946256788+946015994+945830861+945808778+945923428+946079581+946279113
2669+946578472+946979413+947417864+947764414+947891466+947862063+947940291
2659+948277342+948700063+948911333+948836432+948708473+948796078+949064763
2649+949242515+949242697+949293457+949577994+949978995+950250765+950281076
2639+950195286+950252580+950554723+950936666+951312619+951889739+952762648
2630+953538756+953731512+953396457+953110953+953325187+953888996+954277110
2620+954179159+953716387+953166372+952729917+952526512+952581750+952814074
2610+953162257+953685168+954465813+955474487+956502218+957206329+957371618
2600+957205422+957158715+957349414+957419777+957129009+956791958+956855665
2590+957271610+957611565+957677935+957668981+957770441+957895255+957880130
2580+957679811+957303736+956809079+956422780+956451942+956987316+957783570
2570+958453740+958740092+958671120+958487076+958376117+958325962+958262920
2560+958236783+958363654+958621449+958817170+958860126+958977498+959429864
2550+960065428+960472479+960549920+960528745+960416818+959927364+959136192
2540+958736582+959273953+960443922+961487444+962025904+962219326+962348556
2530+962520500+962647068+962584207+962367916+962241953+962337968+962475608
2521+962419584+962219144+962184174+962565694+963292251+964006890+964377822
2511+964411521+964446188+964764484+965231975+965452139+965241051+964762064
2501+964267831+963950140+963925334+964133095+964348539+964439654+964482367
2491+964570396+964669618+964715115+964762124+964906903+965038070+964903878
2481+964624968+964797215+965665223+966499835+966329525+965115390+963728524
2471+962917992+962738364+962934750+963437635+964283137+965241656+965794817
2461+965563582+964703317+963821091+963446347+963536615+963576062+963236409
2451+962786886+962696255+963041474+963517255+963782068+963600928+962963307
2441+962242074+961907624+961964132+961993415+961791704+961592474+961604695
2431+961666467+961523684+961256572+961196374+961456770+961816691+962123794
2421+962478210+962869409+963024776+962871527+962801225+963188129+963880563
2411+964454900+964821052+965252727+965800262+966027867+965562856+964639852
2402+963812318+963361827+963225579+963210151+963069002+962663282+962150899
2392+961749958+961386831+960889028+960342341+959959430+959764435+959672292
2382+959732127+960077951+960636739+961041794+961004888+960749815+960809651
2372+961374852+962210492+963232174+964637553+966316759+967571249+967784212
2362+967250956+966968356+967452969+968097850+968032509+967297965+966653387
2352+966438911+966272049+965838196+965367377+965319460+965912854+966946999
2342+968074315+969044994+969536867+969230672+968254064+967205217+966605591
2332+966499593+966594399+966570380+966164478+965260169+964144530+963433945
2322+963461231+963888005+964227416+964514554+965076488+965944496+966827570
2312+967449460+967726615+967718750+967505786+967145503+966749886+966465108
2302+966279793+966074634+966009111+966521918+967654075+968729118+969049471
2293+968627174+967997902+967635743+967693037+967991791+968181644+968139172
2283+968128826+968374884+968761002+969149661+969653937+970375412+971176809
2273+971866521+972442914+973083016+973891491+974649388+974985592+974859266
2263+974635110+974654833+974965627+975405348+975767931+975941932+975926988
2253+975676938+975045065+973940618+972517149+971310456+971007527+971727126
2243+972821409+973762442+974651263+975530525+976010117+975803990+974953890
2233+973655416+972357608+971544232+971166705+970943396+971096766+972023642
2223+973564967+975217432+976597038+977396801+977568564+977722962+978569977
2213+979863792+980679770+980725327+980529425+980475458+980522890+980638750
2203+980713469+980508975+980203021+980243255+980435587+980138648+979345116
2193+978706588+978720141+979363388+980133385+980479269+980671965+981610034
2183+983279681+984459028+984481898+984075331+984012047+984187500+984371725
2174+984770730+985391894+985696093+985402240+985007894+985206035+986242418
2164+987870017+989501428+990655849+991473097+992216776+992458538+991886319
2154+991101802+990542228+989839811+988907187+988557067+989333477+990436714
2144+990480517+989115068+987443545+986681051+986743125+986688553+986260205
2134+985996602+985945358+985513562+984670964+984171285+984435554+985048430
2124+985502551+985735540+985725981+985253468+984394292+983651763+983255299
2114+982881826+982335139+981910180+981825962+981890033+981876601+981664787
2104+981091116+980354274+980268363+981262637+982488146+982816727+982378821
2094+982234828+982839839+983635730+983923110+983558531+982952371+982656158
2084+982848369+983145974+983047176+982528742+982024224+981903524+982217646
2074+982796883+983305757+983405282+983228921+983425489+984339902+985453182
2065+986047302+986254579+987051862+989054204+991480115+992706713+992004599
2055+990207354+988558761+987743207+988168348+990014598+992577483+994527069
2045+995257861+995309832+995477359+995907038+996043044+995575250+995169772
2035+995640833+996809834+997971999+998934087+999835129+1000680268+1001468839
2025+1002099865+1002150746+1001123075+998806490+995745923+993538300+993638672
2015+995468284+996863015+996352325+994066112+991311862+989954642+990956055
2005+993263202+995309711+996806507+997972725+998510156+998329923+998219146
1995+999061562+1000720441+1001814844+1000996749+998857250+997353557+997193471
1985+997459253+997472684+997424767+997509468+997784869+998556500+1000275274
1975+1003293067+1007232835+1010312278+1010635716+1008513823+1006336874
1967+1006106184+1007632081+1009285151+1010013765+1009843999+1008922810
1958+1007310881+1005482176+1003785061+1001860341+999594940+997885059+997665380
1948+998816775+1000293182+1000953914+1000499612+999680609+999201683+998890102
1939+998522438+998366768+998395809+998016407+996938217+995693650+995114111
1929+995572346+996691434+997680021+997960746+997489987+996669230+995991316
1919+995679312+995665275+995795413+995975888+996218981+996619195+997183368
1909+997705915+997912042+997583522+996526447+994757034+992657284+990498848
1899+987939956+984516444+980563789+977235082+975511588+975530283+976927676
1889+979083026+981041203+982169185+982617679+982653556+982270705+981725530
1879+981713128+982606305+983953361+984975465+985375256+985605644+986425192
1869+988151892+990157804+991453858+991931332+992270864+993013877+994107978
1859+995148052+995942370+996634200+997352408+998016044+998426967+998494244
1849+998404763+998492611+998968572+999900228+1001155927+1002225949+1002741539
1839+1002912696+1003043984+1003185496+1003315391+1003539366+1003994092
1831+1004712905+1005531787+1006163115+1006563511+1006890943+1007117822
1822+1007125264+1007041772+1007112558+1007395582+1007704198+1007783152
1814+1007598684+1007410042+1007497527+1007881829+1008368560+1008755525
1805+1008930736+1008975325+1009148056+1009583966+1010068458+1010318086
1797+1010365821+1010490574+1010980451+1011921545+1012875949+1013154133
1788+1012812665+1012536054+1012782899+1013366310+1013751339+1013745107
1780+1013557010+1013361894+1013152318+1012886779+1012676175+1012895189
1771+1013766767+1014704836+1015039225+1015110253+1014831343+1014294336
1763+1013697130+1013348402+1013318151+1013442965+1013699187+1014073265
1754+1014370325+1014571431+1015036744+1016056006+1017188948+1017660372
1746+1017408567+1016847117+1016225287+1015651980+1015281350+1015103598
1737+1014880168+1014626426+1014713911+1015143045+1015039225+1014045919
1729+1012519598+1010823209+1009073277+1007382454+1006056452+1005385737
1720+1005389912+1006115138+1007822054+1010210394+1012102504+1012951092
1712+1012876433+1011907206+1010106998+1007549195+1003988224+999236773+993685318
1702+987191316+978403902+967183981+956067881+945679669+935250195+926313645
1692+919926125+915189316+911482719+908953836+907734316+908290563+911355486
1682+915458244+918448871+920444740+922071795+923813318+926044173+928295357
1672+929586570+929758030+929116054+927640010+925236787+921927561+917559808
1662+912098439+906209266+900752132+895953430+891759921+888382147+886836345
1652+888519666+891450458+893442697+896049445+901464411+909339228+916500495
1643+922331466+928406739+935429581+943272634+952765431+965340212+978283686
1633+987076969+992402817+996586404+1000467849+1003563022+1005238659+1005678018
1623+1005592409+1005247190+1004191265+1001737887+996935555+989545775+981763525
1613+975701078+971565468+969038218+967468639+965221025+959909577+949742072
1603+935401266+920800910+909874359+901493814+889104651+865214721+826177809
1593+774897238+720059931+672872982+643583091+637511387+652302200+679706939
1583+710486607+738036064+759386643+775195871+789090966+804908059+821126515
1573+833236890+842172895+851919554+864368977+877074682+887658131+896791551
1563+904862755+911280162+917237217+926822096+939852086+948620080+953682627
1553+958126369+961904660+964041315+963782249+960464856+953509715+942078646
1543+925600156+904594675+879651482+855651199+841875956+837371955+837010462
1534+838481000+839711894+838209350+833365031+825342410+814061807+800585561
1524+785974799+768567133+747037471+724477294+702345101+677932201+651131324
1514+624898430+600303542+577166911+555669072+533356889+506001702+482318625
1504+474944212+481533957+498556533+523982917+550578514+561635263+542468348
1494+498959682+447519539+402236346+379954505+394030165+434128176+479652313
1484+522411765+562950495+601650961+635929103+663516131+685235888+703041953
1474+718373403+732860562+746916045+758806680+768395976+777562430+787670583
1464+797716298+805064151+808979961+811224005+814799134+822890121+833817397
1454+841950856+846553716+848923603+849128036+846875521+843243703+840707862
1444+840515892+841383417+841086780+838158166+831948822+821830082+808073897
1434+792839490+776811793+757756684+733821016+707508140+684997877+670022293
1425+661875766+657823587+655998936+657912826+667459287+683753733+699284051
1415+711155204+722833359+737561554+755018104+772507930+788706361+805362542
1405+824557348+845083117+864311924+882019614+898773929+913230534+923516681
1395+928751535+927531894+917666532+896616098+860995559+811293642+761590576
1385+733561708+734738938+756629973+787258510+817676564+843103341+862258519
1375+875722120+883982813+886913424+884779793+878066899+866930470+851703687
1365+832168260+806259773+772899311+737434986+709519316+695745949+698182811
1355+715163580+740830305+766790097+786649083+799610949+809903388+822098767
1345+836809659+851308373+863216432+872292679+879324716+884638524+887984655
1335+889242835+888683200+887030493+885555719+885518995+887278003+890437186
1325+894839787+900809245+908535229+917711424+927552162+936860975+944442301
1315+949647933+952320083+952330852+949262662+942196442+929536718+909175512
1306+879973892+844874570+812674760+794448274+796101828+814351910+840191909
1296+865503614+886612431+903458041+916730460+925060184+924040136+909622554
1286+884396459+858731368+843164024+840403905+845668767+852885514+858662215
1276+861734822+861497597+857704181+850536137+840379644+827301374+810428235
1266+788080840+759094968+724152948+685912653+648361162+615927455+592105710
1256+578226466+573412277+575512813+582189346+591470994+601632146+610985245
1246+617854111+620261146+615933566+604170407+588308725+574756731+568029680
1236+566972847+566464699+562355588+554432491+545571810+538953055+535795505
1226+535024722+534728025+533827709+532428440+530814091+528191007+522206364
1216+509841885+489626426+463831954+438413344+419707205+410197710+407316983
1206+406274913+403836388+399991697+397374391+399850790+411142101+433554293
1197+466887348+507988375+551351596+590350635+618289416+629017342+617658935
1187+582676561+529479074+472028848+427516318+405901712+404254329+412288566
1177+422557863+434315154+449698787+469324693+491644953+514412497+535697615
1167+554136399+569016089+580309578+588411214+593642679+596051891+595719257
1157+593147538+589496360+586778956+587632505+594015789+605502156+619074417
1147+631053626+639269790+643470317+644276010+642231861+637770634+632080934
1137+628020829+629353970+638124505+652940063+670276035+687116866+702159484
1127+715255300+726525739+735971284+743326760+748042877+749938012+750268167
1117+751577228+755804194+762712386+770428025+777170383+782256525+785843511
1107+788188169+789243913+788707087+786195325+781377021+774028805+764074144
1097+751411939+734699975+710194629+674947260+634112317+602321918+592995983
1088+606652039+632252999+658100137+678699354+693689337+704533909+712705241
1078+719096754+724103155+727938378+730764442+732748090+734120012+735066612
1068+735630421+735811864+735556549+734442241+731665484+727015011+722030147
1058+719397444+720629609+724816039+729920634+734600330+738520919+741750828
1048+744342875+746091779+746315693+743856507+737271936+725067724+705999728
1038+679540803+646488291+609409919+572434882+540111287+515725854+500121695
1028+491902204+488741114+488580423+490098274+492833163+497101694+503404785
1018+511737201+521593004+532571949+544680448+557332549+567211403+568027138
1008+555305340+532700997+511508568+502220446+507411467+522947562+543644428
998+566398148+589780776+612934831+635127343+655739265+674478680+691509060
988+707191236+721742586+735251140+747891625+759912881+771419637+782324286
978+792465110+801480190+808519608+812424951+812395850+808457716+801588124
969+793766850+787488172+784413448+784232792+784780689+783101543+777159190
959+768016211+760453095+759883478+767895693+781480902+796416252+809942049
949+820067384+824608472+822923820+817801377+813599277+812319377+812690551
939+812878770+812602764+812511407+812702470+812066301+808534734+800448284
929+788497693+776016204+766625715+761543808+759218511+756928183+752184416
919+743306976+730304513+716007389+705308020+701809546+704937693+710830072
909+715975868+719575559+722777335+726739186+731972104+739032819+749051430
899+763158521+781276408+801533552+820962013+836572797+845712025+846623534
889+840418486+832342200+829143873+834069929+844586343+854779500+859667622
879+858158786+853214277+849239358+848469905+849255754+847771300+842067986
869+835259864+834279202+844353353+864630583+889520172+913456385+933712319
860+949799790+961767746+969320274+971802269+968426915+958514786+941824058
850+918711204+889617518+853753946+807718332+746042592+665420946+570404769
840+474634084+394664882+341036961+314104131+306844609+310688060+319676338
830+331372946+345851271+364415868+388361882+417849369+451558952+487140438
820+521842511+553314130+580464884+603562976+623475143+640969204+656441682
810+669780834+680501499+688167587+692174633+690622781+680093540+657662533
800+623298722+580599741+536740290+501926078+485896930+491924982+514418487
790+543693615+572730853+599344298+624009851+647359688+669202806+688649357
780+704791341+717523242+727800677+736929984+745646431+754090805+762380054
770+770588837+778318935+785022633+790803690+796420850+802466115+808802027
760+814725927+819515070+822851582+824796872+825401399+824383166+821207284
750+815566105+807881746+799323146+791368770+785330826+781852015+780439436
741+779731272+778518589+776487629+774190101+772639036+772724221+774678526
731+778164113+782932503+789155763+796894392+805387650+813145277+818529387
721+819921455+815854090+805475195+788476215+765448970+740632648+723384463
711+722680655+739083337+764420996+789273316+808780005+822269743+830899613
701+836711102+842205142+849409124+858911721+869789266+880592153+890307049
691+898493991+905187524+910765661+915308201+918003946+917348417+911964671
681+901962818+890133048+881249678+879014104+882616760+886200056+883150984
671+871425578+854181991+839357963+836356687+843788818+853698225+861322386
661+862583530+853931335+837100427+820575714+814388997+822625731+840874180
651+860628499+875145727+881762545+881607663+878401349+875624714+874099966
641+873468880+875096419+880816491+888986008+894220801+891657251+881239453
632+868641319+861968295+865976066+878746084+894257828+907686702+917853843
622+925852990+932944197+939578319+945361433+949742738+952899804+955732221
612+958932424+962393750+965743996+969165028+973143517+977548840+981669688
602+985252863+988829564+992860931+997210472+1001683497+1006361377+1011037262
592+1014681059+1015039225+1008497488+989109139+956448433+920709614+898332332
582+898734664+917204849+941274406+961946042+977754120+990901785+1002838583
572+1013202110+1020799772+1024529541+1023193799+1013967570+991203867+947896367
562+879894757+791057855+696081609+616639129+570666920+562888300+584990242
552+623754839+668249431+711413544+748990021+779173028+802540834+821134743
542+837097825+851707196+865122881+876933412+887176240+896694750+906170364
532+915129178+922364802+926852528+927255162+920223125+899939724+860726027
523+800936285+725813399+649026915+589245281+559104625+556272934+568681034
513+586506096+606652099+629866111+657066719+687521255+719007454+749685420
503+779008466+806258140+829761588+847973978+859608028+863372041+859326698
493+850294920+841625482+839057333+845084690+856698835+866553609+866055928
483+848126259+809034835+750308339+680964635+617146854+575427143+564919381
473+584479553+622146298+661952542+696190571+724998087+748723272+766971721
463+781136832+794013453+808031909+824140436+840932926+855888847+868458788
453+879423454+888795127+896681258+904341538+912752697+921070079+927214748
443+929829119+929574168+928547465+928905692+932656938+940917994+951640596
433+960364605+964220640+962983030+957241420+947824673+936949064+928687706
423+926473247+929869352+935604671+939792856+939464819+936148757+933383858
413+931524117+926687965+913890298+893146726+870725459+853719279+845128916
404+844257822+850243857+864286877+888077585+917815244+942997657+959334635
394+970934623+981091177+991185959+1001648769+1010734393+1015039225+1023512639
384+1028642765+1036679846+1050289195+1065602979+1073741823+1063835260
375+1035725503+1015039225
##END=
