##TITLE=X8768
##JCAMP-DX=4.24
##DATA TYPE=INFRARED SPECTRUM
##DATE=2/11/2018
##SAMPLING PROCEDURE=ATR platinum Diamond 1 Refl
##ORIGIN=ComPlat
##XUNITS=1/CM
##YUNITS=TRANSMITTANCE
##RESOLUTION=4
##FIRSTX=3997.453
##LASTX=373.96442
##DELTAX=-1.4165319
##MAXY=0.99308777
##MINY=0.4770335
##XFACTOR=1
##YFACTOR=9.2488506e-010
##NPOINTS=2559
##FIRSTY=0.90653723
##XYDATA=(X++(Y..Y))
3997+980162050+980113329+980072535+980116100+980279663+980419123+980375945
3988+980254336+980347395+980763455+981256270+981458048+981215798+980698236
3978+980283981+980307246+980730008+981143232+981261038+981210191+981213027
3968+981317106+981527134+981864248+982222500+982390059+982219794+981720277
3958+981090645+980658345+980552203+980456115+979980185+979277729+978987725
3948+979389156+979994814+980329286+980502709+980675680+980612330+980199106
3938+979780082+979667947+979833507+980149934+980495491+980588035+980248729
3928+979788202+979677291+979949316+980170492+980066091+979799802+979530807
3918+979267676+979190406+979509733+980023363+980372980+980486920+980471195
3908+980335731+980055006+979744508+979612975+979646809+979500517+979036897
3898+978660020+978669751+978792584+978715958+978626895+978915288+979434783
3888+979777117+979960271+980171395+980365891+980502515+980757397+981132728
3878+981254723+980822745+979813980+978419960+977207290+976920508+977778277
3869+979057713+979954729+980401594+980507800+980244862+979816816+979505029
3859+979252982+978905170+978563029+978481184+978700040+979001001+979341530
3849+979769319+980297257+980896793+981320264+981193306+980617422+980272187
3839+980530807+980922442+980943902+980815463+980921089+981241769+981414676
3829+981143748+980472999+979642555+978825064+978167785+978056746+978797224
3819+979834280+980471453+980684381+980703972+980674971+980676905+980788202
3809+981085167+981580495+982098121+982385290+982349522+981980250+981435363
3799+981144908+981310984+981704423+981930562+981856966+981734068+981886804
3789+982405397+983059518+983501807+983546855+983276313+982934365+982740449
3779+982772156+982950605+983154897+983260395+983113523+982737742+982509025
3769+982742575+983132148+983237903+983147873+983123706+983168044+983229203
3759+983372207+983529712+983446513+983004159+982352294+981943129+982306924
3750+983002999+982932303+982229783+982064609+983077498+984143748+984135693
3740+983164113+981605435+979925793+979015887+979551429+980977865+982299835
3730+983099990+983366665+983196529+982834410+982691728+983015760+983597831
3720+983999133+984021044+983774412+983397083+982984181+982708999+982716346
3710+982904720+983172426+983524685+983790781+983751662+983507221+983449735
3700+983752951+984231781+984728075+985064674+984833959+983697593+981952087
3690+980709128+980983859+982221856+983249568+983828030+984242866+984619678
3680+984695917+984089743+982914838+982137819+982565028+983337665+983459789
3670+983138335+983246023+984117068+985264906+986214961+986757721+986863089
3660+986614330+986157605+985673168+985255884+984784916+984099732+983248730
3650+982529454+982447995+983147357+984015438+984570055+984840984+985083621
3640+985502517+985981411+986061645+985431433+984417126+983691470+983474740
3631+983531710+983952217+985015438+986159409+986765583+986870307+986619421
3621+986015374+985233715+984762167+984779245+984984053+985087423+984991786
3611+984796001+984814303+985313369+986030776+986365570+986111720+985654543
3601+985568895+986017242+986653770+987152192+987370017+987156896+986552591
3591+985923861+985566962+985438329+985381746+985407588+985534353+985643330
3581+985575018+985273542+984919350+984884162+985432980+986445483+987442325
3571+987916579+987653384+986825517+985952733+985582300+985769063+986181965
3561+986521786+986695338+986745605+986650999+986405397+986255691+986445483
3551+986730654+986658281+986281662+986095286+986364346+986770997+986847751
3541+986524235+986140913+986137433+986640172+987237582+987344948+986847364
3531+986175263+985836666+985999198+986435558+986778279+986787237+986459854
3521+986050045+985876494+985979542+986105855+986142847+986316334+986746958
3512+987118873+987055717+986627025+986231588+986076275+985991335+985760878
3502+985528230+985620194+985989080+986259880+986290813+986280953+986313498
3492+986204972+985882809+985560324+985471325+985588487+985670655+985559035
3482+985404559+985505546+985851231+986045856+985807988+985313434+984959692
3472+984992366+985436718+986098379+986596092+986724338+986726851+986878234
3462+987014858+986892863+986743607+987004998+987659700+988203297+988214897
3452+987723629+987020465+986348363+985823004+985470616+985289073+985346236
3442+985706422+986233457+986707324+987104309+987452830+987590678+987454505
3432+987365764+987603632+987938362+988010605+987944097+988149292+988624190
3422+988853036+988447545+987591967+986739032+986127315+985723887+985448834
3412+985366923+985670655+986442776+987499810+988464752+988900146+988533387
3403+987636886+986933528+986840082+987120162+987405075+987588810+987625028
3393+987439812+987153287+987016985+987079819+987153738+987098960+986967040
3383+986875849+986878749+987003580+987276249+987613105+987838213+987917804
3373+988050046+988392896+988803413+988997781+988910006+988749086+988738194
3363+988921735+989176101+989334830+989393411+989570056+989974774+990326646
3353+990257754+989778795+989244865+989022270+989249053+989723308+990035675
3343+989944420+989532162+989009703+988564063+988360995+988452185+988678324
3333+988811791+988806055+988804058+988889061+988959500+988926117+988864701
3323+988858385+988890092+989006610+989353068+989932369+990496009+990736390
3313+990526556+990032581+989619679+989514633+989534611+989279923+988657444
3303+988063901+987935526+988257173+988696627+989055524+989340759+989553623
3293+989672009+989778666+990020788+990410038+990733232+990746186+990440586
3284+990021175+989714414+989716928+990109207+990651000+990933400+990870115
3274+990783693+990956407+991304348+991485827+991279794+990911360+990870695
3264+991377945+992239967+993116941+993630314+993477707+992775251+992032260
3254+991630056+991569670+991674716+991777120+991827516+991956085+992265037
3244+992644620+993016084+993482025+993973357+994094901+993624578+992879331
3234+992359256+992251696+992407074+992575277+992595384+992502454+992473518
3224+992588940+992684834+992516052+992018082+991374271+990853101+990609368
3214+990643847+990885002+991222116+991510058+991692117+991888160+992208776
3204+992541572+992717250+992800450+992979608+993227787+993326067+993207680
3194+993055460+993035611+993128026+993223598+993272964+993333542+993498652
3184+993753598+993955763+994009898+993959308+993872435+993783758+993756562
3174+993831641+993953572+994080143+994252019+994438267+994475709+994287077
3165+994002680+993770289+993607049+993541572+993703975+994091872+994399406
3155+994324714+993972906+993727046+993753727+993858257+993829128+993673814
3145+993413970+992916451+992171269+991545568+991455795+991907880+992548468
3135+993009188+993097350+992867860+992573988+992406946+992360287+992418804
3125+992631409+992880942+992853230+992377236+991614266+990832736+990135372
3115+989438394+988660344+987934817+987612139+987941520+988742061+989576952
3105+990291072+991115459+992107210+992845304+992956085+992633600+992312275
3095+992087296+991782469+991401339+991140012+990994946+990648164+989806378
3085+988469779+986833509+985147358+983757785+983030002+983038315+983467136
3075+983958854+984464171+985137111+985944484+986564191+986722856+986471647
3065+985980766+985211288+983988564+982250599+980007832+977232875+974025360
3055+970760488+967954211+966147031+965873331+967295965+969711574+971812303
3046+972657118+972215473+971105207+970169523+970109331+971009183+972178804
3036+972663241+971832732+969551878+966275342+963067891+960966583+960191239
3026+960343137+961235578+963012146+965529257+968186794+970468486+972321228
3016+973969808+975601438+977268900+978943902+980588163+982125768+983377879
3006+984158249+984465976+984456631+984278311+984130215+984311564+984882616
2996+985434075+985550528+985366279+985341145+985640945+985987662+985980251
2986+985451025+984621740+983910327+983501356+983216314+982812821+982163855
2976+981127765+979537767+977402818+974972837+972641522+970824612+969727556
2966+969084777+968338499+967199039+965832988+964466422+963126988+961910644
2956+961186599+961265545+962013112+963021362+964081618+965241250+966430204
2946+967370206+967956273+968403009+968896146+969386833+969745794+969813591
2936+969331410+968051394+965774858+962234547+957361503+951758486+946490456
2927+942355055+939578680+938070721+937738956+938657368+940984429+944597629
2917+948885121+953059962+956625601+959467066+961631273+963179769+964256717
2907+965146773+966080265+967012469+967757072+968268640+968620190+968847554
2897+969034832+969406425+970092253+970913031+971602339+972148708+972751209
2887+973532868+974459142+975420862+976240673+976722145+976813851+976578560
2877+975980764+974957241+973729426+972726655+972094703+971553941+970833505
2867+969987787+969175130+968417058+967769897+967472030+967673680+968143874
2857+968466681+968510633+968579589+969078075+970097731+971443095+972962525
2847+974598538+976176356+977491559+978573083+979564318+980476544+981302348
2837+982148517+983052107+983906460+984664274+985383679+986064288+986639463
2827+987101731+987483957+987764230+987882423+987839889+987721116+987608143
2817+987521915+987486341+987594803+987922444+988396118+988826485+989098187
2808+989287205+989540283+989866892+990143557+990319106+990499424+990806507
2798+991243641+991707906+992076276+992269677+992271997+992127961+991921800
2788+991729559+991592290+991542410+991632118+991915807+992404626+992993593
2778+993467267+993689152+993782405+994004420+994467396+995066159+995607243
2768+995937784+996022916+995984055+996024398+996255500+996572829+996753985
2758+996728272+996676071+996797357+997055139+997196210+996990436+996496783
2748+996069059+995956859+995948159+995625932+994925474+994202461+993806959
2738+993795874+994013700+994272384+994430984+994434915+994374079+994441360
2728+994727304+995085106+995300547+995366797+995490145+995831191+996325939
2718+996792008+997126416+997316981+997329870+997122549+996761139+996439040
2708+996385551+996718218+997288754+997730850+997782599+997508899+997158381
2698+996910459+996816497+996873145+997064806+997331674+997528426+997487052
2689+997195115+996849816+996643010+996552142+996489694+996567351+996971038
2679+997587201+998021434+998041283+997808184+997670464+997868634+998400760
2669+999079693+999715512+1000238294+1000651582+1000969879+1001204911+1001341987
2659+1001409139+1001554721+1001836670+1001984250+1001687157+1001049598
2650+1000419643+999900019+999390256+998944615+998728465+998739486+998878881
2640+999190024+999749475+1000416808+1000976065+1001447999+1001987859+1002531070
2630+1002834801+1002873984+1002936496+1003243192+1003670530+1003975873
2622+1004151358+1004365639+1004654354+1004906981+1005106891+1005362610
2614+1005700755+1005958731+1005905628+1005519406+1005159285+1005260013
2605+1005798326+1006369893+1006795297+1007214386+1007587074+1007629801
2597+1007295845+1006857487+1006480417+1006078921+1005596160+1005180809
2588+1005058492+1005283020+1005587525+1005573540+1005135440+1004572895
2580+1004251957+1004347530+1004912845+1005907496+1007036065+1007768488
2571+1007717898+1006988118+1006067966+1005412942+1005199821+1005409978
2563+1005938688+1006574894+1007058170+1007253698+1007188608+1006906014
2554+1006460954+1006072864+1006001651+1006149683+1006126482+1005886938
2546+1005873663+1006323363+1006923157+1007358873+1007699145+1008068933
2537+1008392062+1008553240+1008536549+1008394189+1008209231+1008031103
2529+1007847176+1007644302+1007405338+1007058041+1006581983+1006125387
2520+1005908077+1006033358+1006393609+1006729949+1006878045+1006940622
2512+1007059395+1007095806+1006816049+1006365833+1006276898+1006902857
2503+1007976776+1008814825+1008995079+1008798520+1008827069+1009238360
2495+1009674012+1009950547+1010336962+1011018086+1011786276+1012386134
2486+1012723506+1012722797+1012425768+1012165860+1012269746+1012650361
2478+1012927090+1012846468+1012482674+1012117139+1011979741+1012088074
2469+1012321238+1012590298+1012876951+1013104379+1013070352+1012685677
2461+1012240810+1012171209+1012534101+1012942685+1012976004+1012512190
2452+1011811216+1011344116+1011312408+1011376661+1011123970+1010652874
2444+1010390645+1010512898+1010854975+1011256276+1011646429+1011841764
2435+1011627418+1011125323+1010748962+1010719188+1010931922+1011246287
2427+1011525659+1011522630+1011176686+1010916327+1011258468+1012138213
2418+1012911816+1013046958+1012634507+1012166246+1011965434+1011970654
2410+1011929603+1011648943+1011169468+1010803805+1010869346+1011331742
2401+1011853106+1012201627+1012447229+1012728533+1013004553+1013151746
2393+1013169404+1013128868+1013012351+1012766878+1012447100+1012180618
2384+1012054240+1012114690+1012411913+1012955832+1013598289+1014020149
2376+1014036518+1013939141+1014226117+1014967175+1015849369+1016737750
2367+1017639599+1018353140+1018752057+1019110825+1019730855+1020540290
2359+1021170115+1021186227+1020433117+1019213293+1017925544+1016784988
2350+1016020987+1015906274+1016491697+1017458057+1018315246+1018839252
2342+1019183584+1019560719+1019942945+1020026531+1019600546+1018885910
2333+1018235011+1017702305+1017226762+1016941655+1016981354+1017307641
2325+1017887521+1018737041+1019677623+1020287148+1020316664+1020068420
2316+1020084983+1020397221+1020380787+1019602415+1018501686+1017877790
2308+1018018152+1018624584+1019287277+1019769844+1019993534+1019889326
2299+1019323688+1018326137+1017407983+1017325170+1018269876+1019531589
2291+1020268072+1020422483+1020466500+1020461989+1020075187+1019494920
2282+1019478937+1020252799+1021122426+1021422806+1021167215+1020635798
2274+1020039935+1019662607+1019685227+1019877919+1019956478+1020081438
2265+1020554017+1021222896+1021638827+1021676463+1021706044+1022157420
2257+1023041740+1023947135+1024505877+1024766365+1024966146+1025061139
2248+1024767912+1024045672+1023289726+1023001269+1023390970+1024299716
2240+1025469530+1026851627+1028484482+1030105543+1031268204+1031865742
2231+1032043611+1031709397+1030837063+1030093169+1030347665+1031576124
2223+1032797945+1033090721+1032447749+1031705466+1031727571+1032665575
2214+1033988769+1034966213+1035101033+1034545449+1034090464+1034262791
2206+1034726605+1035046061+1035338966+1035634384+1035508715+1035005718
2197+1034944559+1035674340+1036414689+1036327688+1035519928+1034630581
2189+1034071323+1033911370+1033915236+1033587596+1032835324+1032540679
2180+1033665124+1035975171+1038431123+1040398901+1041674599+1041833457
2172+1040600164+1038698765+1037542485+1037949458+1039425323+1040622785
2163+1040364616+1038521540+1036373122+1035725316+1036911628+1038549058
2155+1039559886+1039878439+1039443046+1038007072+1035979425+1034354626
2146+1033652621+1033657326+1034097488+1034903959+1035890297+1036685038
2138+1037017383+1036869932+1036398449+1035831844+1035353272+1034931928
2129+1034329750+1033400962+1032371445+1031732662+1031860651+1032715004
2121+1033854464+1034753736+1035097488+1034768559+1033792146+1032491830
2112+1031473656+1031167991+1031482162+1032025889+1032532044+1032912465
2104+1033074223+1032951648+1032731631+1032796785+1033370028+1034328267
2095+1035334712+1036130291+1036856978+1037956225+1039392843+1040225156
2087+1039540616+1037639282+1035787635+1034999918+1035356624+1036203566
2078+1036787893+1036853241+1036696638+1036762437+1037407214+1038756122
2070+1040335036+1041163675+1040694577+1039513163+1038795047+1039109798
2061+1039922456+1040231794+1039593268+1038498727+1037841190+1038138090
2053+1039127328+1039974850+1040142537+1040287281+1041691290+1044286316
2044+1046253062+1046295274+1045404702+1045579478+1047443499+1049881922
2036+1051504336+1051956163+1052047032+1052722871+1054039492+1055490610
2027+1056887788+1057947078+1057575808+1055078031+1051848991+1050320151
2019+1051201829+1052637932+1052233408+1049658876+1046861814+1045820762
2010+1046644955+1048001403+1048666287+1048041746+1046110831+1043833586
2002+1042729958+1043392393+1045094849+1047083700+1049405734+1052182432
1993+1054744976+1055820636+1054744332+1052511683+1051194354+1052013907
1985+1053978140+1054852278+1053722034+1052023767+1051737049+1053081446
1976+1054613894+1055276780+1055219682+1054843836+1054152465+1053014294
1968+1051615505+1050512198+1050132679+1050341096+1050678210+1050868260
1959+1050970986+1051181851+1051613378+1052152658+1052452329+1052175923
1951+1051267499+1049947270+1048578384+1047537976+1047002821+1046745426
1942+1046286316+1045455034+1044618145+1044208401+1044285091+1044497632
1934+1044291987+1043176372+1040975817+1037958867+1034687229+1031674339
1925+1029313444+1028197957+1028993665+1031526179+1034473270+1036347537
1917+1036832038+1036844863+1037166317+1037886881+1038876119+1039951392
1908+1040898933+1041809548+1042903187+1043711398+1043084730+1040451166
1900+1036747872+1033845635+1033185714+1034767721+1037285347+1039531723
1891+1041354821+1043047738+1044589081+1045861363+1046938762+1047788540
1883+1048172635+1047998117+1047505238+1047073453+1046893908+1046773717
1874+1046300881+1045277809+1043994893+1043238884+1043867227+1045764630
1866+1047793631+1049138286+1049815543+1050178629+1050372932+1050327111
1857+1050197189+1050448913+1051304620+1052372868+1053061661+1053201894
1849+1053092401+1053107675+1053419011+1053919946+1054264858+1054221486
1840+1053905381+1053594238+1053526313+1053738918+1054045228+1054196739
1832+1054041812+1053641928+1053273493+1053070812+1052863298+1052481523
1823+1051928903+1051249003+1050457291+1049576257+1048566977+1047344446
1815+1045976785+1044727252+1043929997+1043856465+1044529533+1045686265
1806+1046996247+1048207178+1049118243+1049611895+1049799432+1049953650
1798+1050188102+1050398839+1050446529+1050192549+1049508783+1048483262
1789+1047353533+1046191195+1045004174+1044019834+1043650175+1044150980
1781+1045407087+1046928386+1048114441+1048693999+1048849506+1049019384
1772+1049524121+1050192098+1050677243+1050909118+1050930707+1050691035
1764+1050066558+1049082283+1048157168+1047744653+1047792471+1047899837
1755+1047722999+1047176824+1046383307+1045622979+1045178434+1044970018
1747+1044693804+1044199765+1043494732+1042648177+1041772492+1041018222
1738+1040513292+1040315509+1040544483+1041406119+1042728991+1044008169
1730+1045032465+1045771848+1046240882+1046548996+1046878634+1047370353
1721+1047960223+1048374994+1048392845+1048361267+1048996828+1050217360
1713+1051457420+1052447689+1053220455+1053852665+1054332268+1054678855
1704+1055059792+1055623884+1056348766+1056962609+1057125205+1056922460
1696+1056707663+1056651273+1056606548+1056364684+1055895328+1055379700
1687+1054882052+1054004176+1052448333+1051260861+1051314609+1051967764
1679+1052546226+1052787381+1052589340+1051976528+1051056698+1049781774
1670+1048364102+1047842287+1048759991+1050283288+1051568008+1052300044
1662+1052577998+1052750647+1053041747+1053477979+1054095688+1054991674
1653+1056007012+1056668545+1057026668+1057265890+1057504724+1058033951
1645+1058806265+1059342387+1059334782+1058652691+1057199511+1054752903
1636+1050946883+1046195448+1041553570+1036660935+1029861488+1019157226
1628+1003162829+980341724+945890920+895532076+838116261+790729964+761789118
1618+754849437+770618855+795957651+816922468+832172778+842583169+845040281
1608+835559258+814553002+788715721+768919557+764764952+778211884+803141966
1598+831724624+859226016+883505909+903017610+916972115+926603553+934836719
1588+944327280+955677286+967348294+976828029+981445675+979231973+970599761
1578+959487495+953388892+957232935+965335598+970976058+972523265+970204002
1568+965886349+962289906+960737672+961240605+963154506+966578687+974002868
1558+985726529+994605567+999568899+1003358098+1006714998+1009778478+1012892225
1548+1016013125+1018785440+1020866835+1021642372+1020345729+1016732723
1540+1012377241+1010172175+1009943136+1009703528+1007440332+1000918258
1531+988767646+969626699+939826989+897273070+849559068+809671065+784211821
1521+773891396+775900354+786754065+805721525+830125861+854193148+875064777
1511+892723607+906786961+917264826+926025349+934872551+943454366+951755006
1502+960207608+969050235+978655766+989136983+999009963+1006288691+1010678845
1492+1012887133+1013057527+1008523531+994086459+969042308+941003376+922377413
1482+922589310+939597821+961998097+980788331+993592678+1000157221+997990372
1472+981696561+948761321+902743974+850881682+807058253+790103876+802715789
1462+827031190+850430113+872948002+898393068+923413503+941009241+952765962
1452+962242474+970476413+977233842+982000035+983734520+981147228+974462880
1442+966977604+963858959+968842205+982696883+1001357260+1016387875+1024292498
1432+1027108313+1025801875+1019592426+1008234042+992078080+972138654+952410674
1422+938627723+933740437+937709311+948418793+961967421+976068088+990202524
1412+1003102572+1012376661+1016080342+1014258533+1009222893+1004841826
1404+1004359968+1007648426+1011914587+1013921612+1010904855+1001495367
1395+986676906+970326577+956821322+946797410+937001700+921697385+894688485
1385+855232395+810663912+772014744+749323239+746421260+758517866+777991545
1375+800945343+826249982+851554686+874094938+892751641+906752611+915700155
1366+921579772+928074070+937420917+948353188+958220948+966398046+973932558
1356+981674392+989436332+996365379+1001766618+1005370601+1007080211+1006822364
1346+1004688962+1000895508+995115782+985935590+971555165+951095149+924268759
1336+890098035+847926536+799549712+749470690+703231845+665584675+639440053
1326+625512358+622533624+628007621+639294213+654294023+671180410+688018269
1316+703176679+715872886+726331547+735652874+744862711+753971497+762829074
1306+772443564+783923556+796335817+807170710+814882061+819913640+823640328
1296+827473222+832754269+840380230+850172138+860949223+871389517+880825493
1286+889374248+897474785+905301493+912581510+918956390+924365040+928890272
1276+931951367+931319350+923713497+908591111+891999691+883939240+890015029
1266+907133484+927705377+946048296+960351322+970817136+977880616+981857868
1256+983079432+981627927+976602018+965523392+944845679+912287510+870313085
1247+827623380+795524642+781055669+783264601+795972795+813158789+831507250
1237+849591420+866555850+881870927+895527436+907847346+919080190+929304914
1227+938593503+947059316+954742891+961536860+967262775+971925662+975894794
1217+979565414+982832928+985371435+987483312+989989339+993001713+995414744
1207+995933530+994014344+989541571+982620967+974640492+968758877+967989527
1197+972955436+982156186+993595771+1005114044+1013858971+1016835578+1012592618
1187+1002111014+986407460+962195300+923494382+872497077+826381838+805330083
1177+811946957+827759295+831512985+817469610+795471345+777256996+765268657
1167+753158066+734485638+709825711+686581522+673781686+676320258+691268318
1157+709169656+721403274+727366412+733296104+744510774+760781127+778733634
1147+795870649+811410513+825199844+837153639+847267645+855675651+862749314
1137+868977646+874563714+879272873+882674369+884238267+883137409+878256439
1128+868656321+853902177+833787524+808228711+778134292+746079699+715250730
1118+687703131+663769246+642224935+620735144+597775353+575274671+558566992
1108+552988786+560591546+579546245+605700405+634767499+663871908+691651124
1098+717394766+740534940+760831265+778451879+793641996+806642322+818118512
1088+829304697+841332863+854475806+868138501+881400540+893456094+903649627
1078+911073293+913717554+907106030+883581632+835866019+765973820+691052941
1068+635648533+614888652+625884337+654867330+689160822+721817207+749809351
1058+772383501+790846868+807410834+822953275+835375073+839573566+830109105
1048+806758646+778266791+757814573+752805421+760412885+773389430+787510269
1038+802587735+819279497+837165819+855144105+872419807+888873507+904760086
1028+920440183+936248526+951615675+962857477+960672131+932052804+871701562
1018+795059217+732737297+704620709+703946029+712088649+721518696+736782410
1009+760134094+786265698+809045880+826659340+840286333+851370952+860608114
999+868082047+873742550+877774194+880694926+883268169+886260050+890133931
989+894881950+900085599+905231763+910052863+914465637+918282420+921198512
979+922903417+922953105+920909023+917267919+913982232+912474853+910373093
969+902475366+887676819+873507904+870190896+880375664+897478329+913362911
959+924569655+931690298+936314647+939551484+941496577+941238796+938291833
949+934295119+932509851+935152953+941517071+948933455+954750431+956153667
939+949419696+933465964+915210756+906836519+914556634+932754099+951005376
929+963705644+971368338+976323356+980030839+983028069+985435880+987348170
919+988964462+990445548+991903175+993495429+995338956+997395927+999518825
909+1001616202+1003865993+1006652099+1010139566+1014049923+1017964856
901+1021711522+1025410047+1029215229+1033013838+1036445236+1039266401
892+1041518061+1043148402+1043450200+1040677563+1031294304+1008660220+964292097
882+895632224+815405229+749225540+718475968+725236039+754966212+790777138
873+823003349+849186444+870258950+887645112+902172150+914215782+923987777
863+931590408+937252328+941480337+944448760+944585642+937562246+918768854
853+890082246+863407753+852533806+859256499+869923061+866978999+843062514
843+805348837+769701023+751008359+755523795+778075646+804063085+815306241
833+799787387+761759989+721890417+702144907+708669817+731032135+755864582
823+777141380+795179150+811661012+827443706+842699042+857454604+871853525
813+886009421+899880276+913260765+925703250+936816999+946815068+956350741
803+965887058+975386835+984302671+991599637+994751278+988011765+965444060
793+930510173+899810546+890464021+904007686+926472729+941304079+937312778
783+909030887+860228723+808799247+779140865+783635421+813350450+846595092
773+862564936+849990788+812852931+770489449+745728407+749572901+777503242
764+816256811+850126833+865488311+858076954+838822776+828019848+838467037
754+864475937+889035071+898265402+885687323+847617197+782513167+696842979
744+608824914+542730486+515775978+528231417+566077144+612828846+658223714
734+698633016+733754504+763953132+788881088+806369717+812111550+803284391
724+784962611+770415916+771482424+788865363+813677317+837130245+855925249
714+870279766+880442236+884623006+878848951+860650003+834834569+813638199
704+808026997+818950567+838788234+859729400+878393837+894305035+907440502
694+917909345+926338554+933533632+939938157+945550132+950239829+954158371
684+957806693+961673485+965849937+969807727+972580364+973540730+972584102
674+969153154+961860119+947916828+920612317+874870926+830394857+815918924
664+828651736+853781728+880772776+903574612+920819638+933729481+943577328
654+951401136+958086708+964065507+969232551+973542148+977803088+983008606
645+988847945+993328709+992327613+980072664+955543755+929629977+919005627
635+929628043+951365240+970888155+983537574+991212836+995376528+994012024
625+981774024+954071305+915264245+881274420+868954252+881642726+906771042
615+927728256+936081676+934008015+930173123+932739341+942324122+951233900
605+949857409+933615800+906327464+879480516+865519245+867803836+878420904
595+887013482+889554373+889415171+892603610+901554376+911966829+914961738
585+903412596+878847726+852394024+837489400+840507639+857274285+876488893
575+886411690+883585434+876510160+877337640+890062912+908365810+924399196
565+936113190+945402037+953667296+960921342+966874169+971562190+975452505
555+979231006+983226238+987143427+990540734+993216316+994867344+994980897
545+993702299+992169915+991162439+990187573+988901950+988709774+991607564
535+997491241+1003702173+1007441041+1008079502+1007301259+1007478097+1009784471
526+1013417584+1016772808+1019283474+1021380594+1023390584+1025231855
517+1026711007+1027904086+1029289083+1031100001+1032710171+1033452067
509+1033747227+1034239526+1034217228+1032058885+1026303067+1015146656+995793490
499+965390119+923478400+875215644+832250628+808314295+811051745+835959529
489+870607472+904888333+934318642+957201936+973558195+985584427+995592807
479+1003836477+1009859228+1014598611+1019350949+1023629225+1026116884
470+1027535974+1029951132+1033591849+1036710687+1038526696+1040454260
462+1043555118+1046567685+1047780098+1047757671+1048412436+1049872642
453+1050832299+1050293406+1046751419+1037044193+1019299199+998616330+986644683
443+991788527+1010726470+1032242426+1048710368+1058925940+1062967186+1059883858
433+1048184686+1024167860+981808503+920876221+856268743+814247080+815025452
424+853857065+905564108+948955431+971898660+970396436+958648802+952228873
414+954265737+961046882+967962911+973508572+979192081+986143233+992982508
404+997126158+997937526+998550403+1004579662+1018251831+1032440080+1040980715
394+1047836681+1057459677+1067999668+1073741823+1071393430+1062363074
385+1047889397+1026060624+999590875+979480024+975502643+990140012+1018154197
375+1041502723+1037878697
##END=
