##TITLE=X8626
##JCAMP-DX=4.24
##DATA TYPE=INFRARED SPECTRUM
##DATE=2/11/2018
##SAMPLING PROCEDURE=ATR platinum Diamond 1 Refl
##ORIGIN=ComPlat
##XUNITS=1/CM
##YUNITS=TRANSMITTANCE
##RESOLUTION=4
##FIRSTX=3997.453
##LASTX=373.96442
##DELTAX=-1.4165319
##MAXY=1.0194466
##MINY=0.45592585
##XFACTOR=1
##YFACTOR=9.4943364e-010
##NPOINTS=2559
##FIRSTY=0.86852837
##XYDATA=(X++(Y..Y))
3997+914785748+914946965+915039564+915010749+914950983+914989467+915085581
3988+915108370+915098388+915230915+915510220+915706530+915672315+915535331
3978+915468283+915429109+915255839+914931333+914643742+914588936+914779094
3968+915091545+915434571+915736350+915893486+915940069+916037188+916088416
3958+915800887+915334501+915241462+915563268+915686755+915263623+914701624
3948+914616182+915145849+915917091+916391451+916202737+915478265+914809667
3938+914816071+915714440+917067582+917911774+917416760+915829201+914495960
3928+914378374+915115904+915745014+915987027+916416123+917186486+917562596
3918+917003422+916070147+915687257+915922930+916251579+916413298+916606281
3908+917118998+917923513+918501458+918094210+916568551+914797300+913644925
3898+913242260+913383952+913952794+914764089+915369280+915528426+915818968
3888+916659894+917227104+916420392+914804080+913884930+913707579+913774753
3878+914557295+916135061+917337847+917299928+916622792+916111267+915555860
3869+915090667+915409899+916000776+915558622+914157015+913489170+914396894
3859+916288681+918426814+920141313+919925541+916558067+913030192+912203955
3849+913221668+914872572+916613689+918002866+918581188+918377281+917808376
3839+916960355+915777282+914727866+914207992+913987072+913867666+914129015
3829+914872572+915583546+915980122+916577591+917479288+917441307+915770690
3819+914265497+914036604+914109742+913986318+914347801+915403118+916651482
3809+917385245+916892617+915610415+915279946+916144352+916375944+915213086
3799+914556667+915169454+915644693+915219489+914734583+914989843+915889343
3789+916988669+917868770+918175572+917894195+917553618+917540372+917412114
3779+916605904+915672943+915677087+916676217+917988678+919007772+919276906
3769+918646855+917673087+917018301+916802340+917015978+917667688+918369936
3759+918528830+918253794+918427693+919479871+920915505+921559054+920267185
3750+918109716+917588398+918661168+919144756+917682316+916269282+916877550
3740+918710513+920157258+920154433+918716100+916835676+915615186+915581286
3730+916447261+917297103+917328555+916711624+916429620+916928840+917745409
3720+918405657+918854214+919311560+920066103+921042759+921415039+920234289
3710+918162074+916914841+917035000+917991691+918794637+918439746+917066578
3700+916213221+916704154+917905433+919172065+920467953+921729751+922322261
3690+921329031+918872985+916812636+916503637+917628514+919251920+920565825
3680+921219105+921178550+920069242+917653563+915893863+916755256+918696136
3670+919324556+918677679+918784529+919945818+921005405+921444922+921656236
3660+922133798+922763472+922805283+921850663+920898178+921049225+921734585
3650+921056382+917965199+915033035+914905531+916733220+918830107+920276664
3640+920858062+920748387+920219912+919583143+919321040+919991459+921590193
3631+922913891+922071269+919376349+917788915+918176639+919652263+921492195
3621+922765984+922329355+920671734+919739589+920043565+920708899+921216217
3611+921508957+921197823+920149913+919307417+919490858+920368259+921269831
3601+921899945+922232989+922309767+922196765+921868932+921357470+921080238
3591+921359919+921677016+921029638+919455136+918285749+918085735+918349093
3581+918603160+918724073+918806628+919041359+919535180+920211876+920930509
3571+921536830+921699177+920895102+919138353+917759974+917899594+918984104
3561+919756225+919729356+919539574+919914617+920723275+921294566+921219482
3551+920732002+920381631+920400653+920538328+920478813+920259086+920079726
3541+919945881+919837210+919959316+920449684+920927747+920846071+920341390
3531+920141940+920634380+921429415+921896743+921794037+921252441+920561619
3521+920101824+920144075+920596524+921059269+921204478+921069000+920899371
3512+920818951+920781786+920778898+920909729+921174783+921294315+920959513
3502+920383640+920187079+920495638+920739975+920516606+920171509+920255759
3492+920772431+921239885+921230657+920778772+920350932+920308117+920490992
3482+920596524+920745060+921201150+921756495+921966679+921780414+921493764
3472+921294315+921218226+921281696+921386663+921424832+921557485+922005477
3462+922581790+922867749+922788145+922611924+922483917+922306189+922051745
3452+921919909+922077861+922400797+922581350+922428483+921983316+921421003
3442+920973199+920865031+921167626+921697231+922078866+922021234+921647510
3432+921420815+921561565+921764468+921720585+921593646+921674191+921897999
3422+922012634+921936922+921718576+921411398+921146658+921070193+921192487
3412+921507010+922088471+922844018+923450716+923743016+923869202+923962052
3403+923974985+923834171+923478841+922868628+922172469+921775956+921910931
3393+922376313+922699312+922556615+922059153+921634640+921643618+922079619
3383+922630192+923005612+923173044+923251832+923263760+923153394+923024634
3373+923144981+923646399+924308468+924663860+924384870+923642381+922985648
3363+922771194+922885766+923123197+923539046+924215240+924918304+925273948
3353+925164085+924751688+924245688+923835050+923691851+923818916+923969083
3343+923893058+923639304+923509728+923691223+924009074+924126220+923970276
3333+923793804+923783320+923825131+923742765+923595987+923585628+923731339
3323+923821490+923720855+923592408+923739751+924300934+925114489+925803804
3313+926030123+925787858+925434788+925340745+925516590+925634238+925423488
3303+925000231+924717976+924731160+924876556+924996653+925118758+925254801
3293+925314378+925333212+925488967+925741653+925742281+925298997+924704541
3284+924403139+924533154+924926968+925374520+925748810+926006958+926179789
3274+926355821+926612839+926877014+926894467+926528150+926058248+925920887
3264+926196111+926622884+927000752+927273967+927351248+927181681+926978088
3254+927089521+927567710+928038931+928130023+927904646+927726165+927775509
3244+927870369+927746756+927365248+926923094+926678820+926797975+927235860
3234+927706954+927905964+927815123+927642104+927479568+927257142+926981918
3224+926781401+926751644+926903256+927154561+927369328+927545800+927832638
3214+928232290+928539908+928683735+928824361+929059029+929280200+929309769
3204+929033666+928542922+928174848+928194874+928494645+928825491+929129530
3194+929374620+929363571+929039630+928690892+928580213+928630750+928663332
3184+928662642+928688883+928745447+928803016+928849912+928927758+929099271
3174+929319249+929476259+929635530+929982134+930431005+930608858+930331688
3165+929838935+929487560+929402745+929452655+929441291+929284469+929044402
3155+928877974+928963730+929356916+929869696+930269097+930630203+931228677
3145+931987614+932331769+931820559+930749797+929867374+929583298+929700821
3135+929838181+929833975+929756317+929764981+930004923+930472125+930931229
3125+931044483+930646337+929920736+929246174+928807599+928478636+928183197
3115+928135171+928514357+929099647+929455542+929371356+928992672+928629118
3105+928527729+928759133+929212399+929671691+929917220+929786389+929171404
3095+928052554+926616229+925217447+924037638+922850422+921339829+919617734
3085+918186872+917382922+917074802+916939764+916820421+916727319+916615572
3075+916324151+915759767+915005601+914137114+913086881+911873674+910800716
3065+910162565+909869763+909591966+909171094+908709479+908343916+908045903
3055+907622897+906928811+906047517+905177147+904406344+903790983+903583624
3046+904110592+905367117+906961456+908515931+909930848+911203256+912241999
3036+912962202+913336931+913296878+912832312+912186691+911663741+911299810
3026+910971852+910694682+910596872+910722556+911017994+911411620+911844545
3016+912311182+912876257+913576308+914346294+915151060+916101474+917276574
3006+918475405+919347345+919786861+920058444+920521566+921278557+922066059
2996+922524221+922640237+922820915+923418699+924301625+924962312+924992195
2986+924469684+923893560+923687582+923869013+924256361+924736810+925153663
2976+925197420+924663546+923695680+922661142+921871883+921421882+921191671
2966+920951917+920483647+919700854+918739956+917864313+917218252+916729893
2956+916265767+915782493+915327909+915002399+914914508+915071268+915314160
2946+915456041+915449952+915293757+914873765+914107545+913098056+911901548
2936+910380535+908520325+906553894+904595812+902586188+900696598+899289717
2927+898426630+897844290+897420531+897313869+897669325+898446719+899523381
2917+900775637+902045346+903199478+904266786+905364794+906488478+907572297
2907+908702950+909996828+911359387+912601473+913616989+914273972+914425459
2897+914233543+914234422+914878159+916077869+917320457+918220333+918872609
2887+919586533+920413900+921123806+921555727+921802826+922018221+922124067
2877+921852045+921167250+920490427+920270073+920445352+920578130+920414716
2867+920062085+919653267+919135967+918476284+917822062+917274691+916647778
2857+915661957+914313649+912943619+912013546+911829603+912388463+913462803
2847+914799560+916197338+917517144+918734997+919869981+920859129+921669169
2837+922444994+923330870+924236397+924925524+925279096+925425685+925648991
2827+926102131+926587414+926747187+926494563+926117888+925931811+925939910
2817+925904314+925695950+925451990+925354808+925416017+925577799+925875121
2808+926344396+926853346+927173457+927247348+927300962+927623082+928254389
2798+928948224+929420009+929564966+929459686+929238264+929021111+928907418
2788+928927758+928972645+928890342+928731761+928767357+929167009+929766739
2778+930267465+930563783+930763169+930970529+931203377+931467363+931758596
2768+932009524+932161764+932267923+932401140+932487148+932362029+932031497
2758+931762174+931828846+932195915+932542896+932599334+932374522+932076509
2748+931904997+931933875+932107208+932314191+932486143+932640141+932852209
2738+933197369+933658105+934093980+934350684+934395007+934309564+934173584
2728+934014376+933885554+933890576+934031955+934120159+933997363+933784605
2718+933712283+933792892+933885051+933959947+934056564+934099066+934005085
2708+933886495+933943122+934208741+934530296+934755171+934858756+934901320
2698+934908979+934855492+934784802+934843124+935076160+935280695+935209566
2689+934880666+934519121+934224749+933888065+933453131+933056367+932832747
2679+932741341+932681261+932664248+932770721+932998107+933253933+933500780
2669+933809340+934216337+934615801+934882487+935019910+935108806+935198140
2659+935307627+935423894+935456728+935313591+935045712+934826550+934778211
2649+934876397+935026628+935185836+935385348+935650527+935967876+936339089
2639+936766175+937165890+937426800+937573013+937744463+937990243+938199361
2629+938298866+938430576+938786597+939289081+939653577+939820632+940043624
2619+940469267+940938101+941269575+941423384+941377367+941144582+940852785
2609+940586915+940314391+940073946+939997607+940129443+940467383+941054368
2599+941781916+942311898+942381771+942014764+941436631+940971312+940853852
2589+940997553+941154815+941299082+941567965+941961025+942356408+942636529
2580+942679281+942498415+942381269+942575507+942908676+942973276+942587498
2570+941934030+941352758+941084000+941136798+941372219+941687873+942060656
2560+942425591+942581974+942285844+941512154+940640654+940205720+940380748
2550+940850525+941247603+941511275+941735836+941913878+941993419+942013822
2540+942063104+942202788+942442227+942681416+942769181+942717451+942718770
2530+942884758+943144224+943416999+943676403+943830023+943741003+943398982
2520+942974469+942736662+942938748+943613247+944413995+944857028+944799020
2510+944497805+944201613+943922937+943638547+943448577+943440039+943526800
2500+943559822+943598368+943858839+944288123+944503581+944372310+944257173
2490+944435528+944722743+944887538+945012343+945271747+945672341+946108781
2480+946492801+946761433+946824778+946608943+946183300+945689228+945156924
2470+944643390+944470057+944928533+945817612+946580378+946831369+946619364
2461+946324490+946346714+946796966+947494820+948196314+948727426+949041133
2451+949245228+949432687+949526416+949459431+949350571+949352266+949506515
2441+949798689+950165445+950461951+950549591+950409405+950150378+949923306
2431+949770062+949594092+949349065+949133544+949015205+948961027+949055258
2421+949542676+950443745+951287497+951519968+951126029+950545384+950033483
2411+949508900+948993170+948723345+948782797+949022739+949374365+949884383
2401+950457117+950852061+950961171+950900526+950813451+950721292+950608540
2391+950557312+950691974+951012587+951358500+951533654+951431512+951102110
2381+950784322+950802214+951257928+951831541+952112227+952174001+952533914
2371+953441199+954517736+955152307+954964158+954040488+953060255+952826277
2361+953330205+953745552+953570586+953129500+952792815+952443324+951994265
2351+951801721+952203759+953074506+953970301+954479880+954536883+954418858
2342+954300520+954034587+953462355+952751570+952341496+952480740+952867272
2332+952902302+952335407+951531771+951046362+951111904+951588146+952226359
2322+952866707+953424311+953833757+954083869+954171948+953970741+953357137
2312+952562416+952142235+952430329+953219463+954051726+954615859+954874321
2302+955061278+955504122+956191993+956681545+956707724+956594784+956733087
2292+956984831+956963109+956606273+956208881+956083322+956354465+956939567
2282+957611179+958108829+958325731+958461522+958805740+959292593+959572211
2272+959534795+959315319+958889174+958229616+957699258+957757329+958414375
2262+959216504+959608623+959429200+959194092+959509809+960161707+960423497
2252+960216828+960107090+960178030+959796019+958612255+957124515+955960275
2242+955078040+954052165+952870976+952051959+952061627+952854465+953936840
2232+954875451+955703069+956665850+957751867+958834996+959976948+961195304
2223+962301849+963136686+963539980+963298405+962629368+962202281+962279751
2213+962513352+962732765+963105611+963557872+963811751+963936555+964331750
2203+965142606+965866198+965734676+964711188+963805598+963948923+964964753
2193+966064141+966789617+967014994+966716479+966294101+966474717+967410629
2183+968489112+969255959+969687064+969594339+968979040+968751466+969814505
2173+971729835+973314694+974013678+974117200+974440576+975893097+978355798
2163+980170492+979630466+976764598+973270372+970993812+970690840+972001229
2153+973810148+974477867+972863375+969763277+967354064+966702919+966974376
2143+967301581+967772362+968314146+968266183+967436556+966493048+966136212
2133+966532850+967455390+968425391+968734892+967805321+965897149+964272110
2123+964118866+965266092+966482188+967049272+967336675+967738461+967915310
2113+967444655+966563424+965822441+965437605+965320522+965408287+965673780
2104+966001111+966214560+966178085+965842468+965316316+964942466+965199358
2094+966330513+968046079+969708911+970819411+971224023+970954763+970134805
2084+969121361+968524833+968871813+970186346+971928217+973360209+974003445
2074+973891070+973547417+973535049+973735943+973306408+971768758+970033040
2064+969722659+971296345+973380613+974302273+973908774+973373456+973466369
2054+973839403+973933822+973669899+973213557+972916298+973420603+974969176
2044+976808606+977959410+978279772+978357681+978717343+979362085+979796454
2034+979517777+978709810+978147371+978328615+979126224+980267172+981547993
2024+982434937+982225380+981220725+980869224+981738779+982198510+980672537
2014+978433707+978104179+980246832+983124377+985043787+985639122+985195148
2004+983958775+982327459+981074198+980903000+981757110+982977349+984302365
1994+986074433+988189149+989451889+988756547+986751757+985508918+986370876
1985+988415468+989552021+989105159+988294555+988182996+988512147+988866473
1975+989415100+989920661+989549636+988025358+985916732+983904157+982450004
1965+981895413+982200394+982749335+982816320+982203533+981410192+981239935
1955+982028190+983101840+983376122+982552648+981194609+979800346+978465285
1945+977267772+976316040+975455464+974396379+973145881+972042286+971451597
1935+971467543+971816847+972074241+972030484+971886029+972016296+972487579
1925+973031749+973598770+974589927+976175290+977718150+978319574+977920048
1915+977334695+977048045+976793476+976217854+975361860+974514655+973942360
1905+973739082+973674105+973319717+972553246+971753063+971339411+971348137
1895+971552672+971814398+972143235+972506852+972863250+973407545+974429903
1885+975809350+976951868+977314417+976995374+976733961+977177496+978110018
1875+978675532+978476146+978001347+977849107+978061050+978328175+978508603
1866+978633407+978653057+978532145+978376013+978286867+978233630+978237334
1856+978489643+979072045+979719550+980076638+980110727+980149022+980514146
1846+981126933+981523948+981471590+981307109+981301836+981370704+981421869
1836+981581140+982018146+982649579+983113830+983077481+982688564+982378875
1826+982220546+982047589+981915565+982008478+982271711+982426524+982324320
1816+982177165+982261917+982528980+982739039+982829818+982900444+982975214
1806+983082943+983349064+983803836+984264259+984534523+984632019+984723865
1796+984897072+985022945+984827701+984284097+983865423+983858893+983968945
1786+983835351+983463259+983124628+982906659+982627292+982181874+981699479
1776+981359467+981202142+981059257+980727030+980385699+980413762+980840032
1766+981435555+981973259+982294876+982428219+982725918+983429358+984259111
1756+984842831+985186735+985450220+985548406+985298482+984864490+984675023
1747+984823056+985060549+985201300+985273371+985358562+985491968+985762985
1737+986216565+986641956+986764250+986829038+987209857+987772672+988361415
1727+989008228+989666593+990212395+990721032+991349891+991902159+991803596
1717+990905038+990140262+990087088+990401926+990784565+991206817+991561520
1707+991528309+991099088+990899325+991297847+991868447+992070282+992046489
1697+991967512+991669500+991517511+991926957+992645151+993302511+993943235
1687+994714352+995230271+994848825+994141052+994217580+994919765+995704442
1677+996232728+996451451+996754863+997515809+998429748+998984967+999393471
1667+1000303957+1001576490+1002585163+1003044706+1003312146+1003826370
1659+1004549021+1005295025+1005887284+1005949435+1005457749+1005741260
1650+1007033255+1008322111+1008917194+1008889069+1009137738+1010032152
1642+1011231611+1012353035+1013111470+1013013283+1010938558+1006272497
1633+1000175197+993157240+984672825+975150796+967042366+962893982+962954376
1623+965760981+969495964+973087371+976516620+979971985+983033661+984874974
1613+985215865+984017536+981082799+976500674+970960790+965058482+958340735
1604+949561258+938141855+925396995+914044075+906526648+903972101+906161022
1594+911662171+917874294+921531934+919879021+911960058+899153361+884660918
1584+872519554+866329090+867454093+874328913+884073745+893414907+898836201
1574+899687926+897469750+892331213+884529019+877016865+872452444+870784778
1564+871479429+874428166+880429728+892532546+910449717+924754513+933913365
1554+941105847+946938282+950967637+953244700+954525709+955772691+957649411
1544+960553575+964788531+970643504+977501939+983147794+986896965+989452203
1534+990990857+991248314+990372168+988695086+986033501+982312141+978544387
1524+976194249+976155891+978889860+983645130+988847577+993828475+998279141
1514+1001687484+1003943578+1005366656+1006115800+1005194955+999352350+988047268
1504+977286795+969221933+962937865+957868008+952503152+943577902+930231807
1494+915880617+902053758+887024177+871149462+861420262+864361215+876108074
1485+886930573+887432618+873285774+850796271+833815073+832221173+846287095
1475+869447582+892755977+907801378+911748744+907363180+895750417+874344984
1465+842796825+809246011+782057424+760809504+738575701+706397490+667513084
1455+637049183+616193131+599198625+584224854+572817881+567247360+568255531
1445+574308446+583193016+593554088+605173945+618969477+636468100+657077053
1435+676374550+691897639+705282344+718225272+730739104+742078150+752124824
1425+761163893+769157940+775953344+781723565+786859151+791842561+797128377
1415+802923270+809328879+816457264+824236857+832269137+840148172+847864484
1405+855537039+862875922+869493787+875505143+881311776+887133789+892904700
1395+898439499+903527750+908038244+912033008+915661204+919003252+921999011
1385+924513316+926446977+927744308+928404619+928509335+928185269+927608015
1375+927101449+927179861+928260541+930217556+932438620+934318855+935772821
1366+937232876+939047507+941114762+943118987+944888292+946188134+946322105
1356+944342992+939907833+933761565+927048903+920434617+914003394+907557670
1346+900929572+894156580+886982680+877764314+863415572+842087232+816097351
1336+790396317+769760557+758514738+759900776+773940017+796759738+822861554
1326+847833659+869049060+885037028+895008367+898545847+895195449+884234773
1316+864671155+835922884+800017851+763606442+736136040+724803648+730643554
1306+748129307+768562731+784938548+794609427+798870562+800914965+803747372
1296+808995459+816606930+825131084+832551894+837459655+839939871+841596425
1286+844599152+850390780+859024923+869422972+880104407+889914843+898384819
1276+905570521+911640010+916573008+920121035+921954877+921871192+920106156
1266+917673527+916151885+916682307+919273767+923367094+928696982+935202912
1256+942458299+949637912+955961342+961035719+964895319+967852092+970350325
1247+972853017+975646187+978566485+980936021+981851907+980507993+976153066
1237+967861885+954493691+934624967+906375978+868271477+821692732+772526732
1227+729227193+698463711+682198196+678074170+681928183+690278188+701415838
1217+714889250+730256772+746477525+762404911+777489550+791764777+805327901
1207+818081047+829876686+840632011+850220837+858431597+865193603+870734052
1197+875382221+879357209+882894815+886398017+890229304+894400916+898584582
1187+902395905+905613525+908120485+909685004+909947107+908796930+906845880
1177+905429142+905909089+908758070+913288716+918315192+922996509+927032957
1167+930298353+932498888+933072877+931279340+926693448+919941047+912373271
1157+904199550+893547245+878857738+862303188+849600014+845927621+852269886
1147+865391483+880623967+894657808+906389350+915978992+923683062+929489569
1137+933405795+935900514+937994136+940599659+943578342+945729595+945988622
1128+944104180+939318462+929226273+912292411+891969605+876045295+870634359
1118+875805478+886997056+899084241+909229667+917469871+925055288+932191333
1108+937963123+942130905+945685148+949531062+953592747+957283158+960174640
1098+962093297+962929452+962478133+960375471+956326780+950628441+944225407
1088+937863869+931620105+925922959+922382905+922408519+925240487+928408574
1078+930100347+930390952+930291007+930407212+930880629+932120769+934765780
1068+938626887+942131973+943228285+940802436+935325896+928557989+922783625
1058+919966535+921148102+926225178+934051981+942874399+951008443+957394904
1048+961651143+963668740+963332808+960884986+957527745+955271462+955850349
1038+959630282+965363400+970801833+973250032+969432996+956353963+934907347
1028+912707193+900127882+901686312+912610325+924204819+930807178+931733296
1018+929380270+926722389+925201376+924139905+922508589+920647250+919368187
1009+918334215+916900339+916147365+918469566+924848933+933415714+940981670
999+945590853+947498775+948119095+948567025+949403745+951257363+954828492
989+960084866+965945740+971025955+974496387+976159846+976044646+974282498
979+971305761+967807016+964454232+961862834+960695079+961380125+963735851
969+967099307+970793421+974454513+978076054+981776634+985480291+988947207
959+992062937+994838278+997187976+998965191+1000173439+1001015684+1001805571
949+1002793966+1003926440+1004728820+1004444179+1002325822+997976231+991615196
939+984248313+977650286+973628151+972622491+973272632+973755906+973018251
929+970518950+965886916+959424052+952342877+946511133+944273056+947396821
919+955010740+963300289+968402979+969556734+969244847+970662840+975131021
909+981570970+988059886+993493925+997816081+1001325625+1004211269+1006520663
899+1008299259+1009684230+1010820658+1011801269+1012747790+1013702536
891+1014423303+1014688357+1014823395+1015456209+1016751217+1018316113
882+1019799899+1021160700+1022440076+1023706708+1025149436+1026813272
874+1028278601+1028972185+1028809901+1028210736+1027435665+1026125087
866+1023422947+1018233056+1009512592+997108309+982685739+969168508+958713392
856+951773094+948443538+949504820+955021287+962696667+968955749+971747789
846+971834739+971537291+972702221+975875833+980905071+987675239+996039243
836+1005392396+1014671093+1022756169+1028924535+1033170541+1036134282
827+1038591270+1041012097+1043492062+1045820792+1047640384+1048726086
819+1049064152+1048648052+1047294282+1044635271+1040674283+1036838476
810+1035744486+1038792352+1044526726+1050271395+1054632098+1057764151
802+1060233883+1062379172+1064316537+1066195643+1068274512+1070536319
793+1072383533+1072589700+1069329829+1061542326+1051641739+1045457489
785+1047356559+1055977079+1065907361+1072442420+1073741823+1070157133
776+1063432104+1055766643+1048204894+1040616149+1034033880+1031538346
768+1035558283+1044945839+1054814032+1058835289+1053474953+1041459210
759+1029111994+1018652798+1004442045+977751486+934740606+879804636+821101917
749+762891512+703734272+642220177+581746081+529461652+493442707+480208233
739+491069498+520745865+561396720+606542531+650329235+686390337+710665343
730+725184027+735604049+741405534+731106739+694259956+638984665+591301069
720+573124369+583375326+604339359+622169456+635486171+647901817+659743724
710+668941372+675521758+681990020+690920921+703720963+720540127+740300621
700+761057482+780899777+798940561+815348521+830361969+843814977+855458125
690+864546601+869106440+867311835+860487489+853831706+853246918+861122187
680+875033044+890220138+902965814+912218081+919003126+924748047+930197215
670+935545874+940624017+944770141+947758994+949770878+950303622+948989717
660+947274653+947657669+950608289+953791255+954929755+954322932+953940293
650+955202342+958526938+963902592+970600186+976595847+978918299+975303413
640+966937148+959514643+959153349+966532976+976849914+985374445+991066757
630+995285202+999406591+1004040321+1008831501+1010517812+1001064212+973458082
620+933529533+900784678+891684462+904621237+925073306+940456083+945900229
611+943381341+940269943+943899959+955111564+968815877+979261262+982799746
601+978438918+968747825+958593672+951101922+946468883+945182663+949514111
591+960137538+973707755+985801908+994230010+998868072+999520159+993516525
581+976732015+950073097+923087538+906928874+904413376+910032299+918886043
571+930974484+947180422+965287626+981113624+991251202+992613761+981697344
561+958833928+933101442+918108837+919936025+930412171+934592070+926129063
551+914334931+914364939+931205072+955947405+976921797+990176360+998851938
541+1006751313+1014652259+1021177901+1024967753+1024387988+1015911420+996068498
531+966675987+936345241+915532130+911047375+923303248+946108342+971128912
521+992858851+1009158266+1020071167+1026851944+1030842627+1032981387+1034065709
511+1034862502+1036016822+1037826934+1039724183+1040059361+1037001011
503+1030302601+1022553832+1017377377+1015670725+1015431662+1014736822
494+1013253602+1011155774+1007626894+1000899731+990204987+978370112+972032807
484+976893923+991599313+1008992404+1023414660+1033661851+1040750183+1046018798
475+1050358344+1053219881+1052802023+1048177271+1039764989+1027992579
466+1013949132+1000669143+991815336+988814429+990178495+994239427+1000804432
456+1008626339+1014937590+1019120691+1022315397+1022353943+1012441114+988223049
446+954916383+923778298+902610986+894502744+901369654+922233051+950265013
436+974472593+986493170+986087491+978107193+966946188+953694073+935445867
426+909148180+878268430+852723214+839132908+837971054+851390475+879961459
416+913445915+943528432+969264120+991265767+1009946459+1024907737+1034844359
407+1039808935+1041860306+1042690938+1043297510+1045581102+1051119856
398+1056006334+1050081300+1030504498+1006874675+990798125+987386078+991949306
388+995421998+994373021+993843102+1000122274+1012721172+1027893011+1044364693
378+1061104881+1072255087+1067264269+1050017768
##END=
