##TITLE=JMB-216
##JCAMP-DX=5.0
##DATA TYPE=LINK
##BLOCKS=1


$$ === CHEMSPECTRA SPECTRUM ORIG ===
##TITLE=JMB-216
##JCAMP-DX=5.00
##DATA TYPE=INFRARED SPECTRUM
##DATA CLASS=XYDATA
##$CSCATEGORY=SPECTRUM
##ORIGIN=Angelika Moesle
##OWNER=
##XUNITS=1/CM
##YUNITS=TRANSMITTANCE
##XFACTOR=1.0
##YFACTOR=8.7334801e-10
##FIRSTX=3997.453
##LASTX=373.96442
##MAXX=3997.453
##MAXY=0.9377502843708222
##MINX=373.96442
##MINY=0.44172209710682964
##NPOINTS=2559
##XYDATA= (X++(Y..Y))
2559A070616249A070446583A070105682A069792968A069491719A069139353A068957948
2552A069159486A069490696A069520657A069271754A069186444A069498203A069932058
2545A070088347A069923322A069696669A069512672A069179551A068643391A068239974
2538A068228850A068395786A068490924A068743853A069451111A070298757A070663204
2531A070458800A070163762A070054905A069850092A069257013A068549345A068241612
2524A068326309A068386640A068453046A068966343A069825522A070273710A069991230
2517A069434800A068970028A068508396A068103273A068222708A069034659A069920183
2510A070166014A069662408A068831893A068255603A068264612A068746651A069398833
2503A070060024A070704494A071177115A071207690A070731248A070019348A069452749
2496A069185693A069106593A069120721A069332427A069872409A070650646A071379335
2489A071678604A071317160A070556736A070119468A070601917A071568042A071751494
2482A070851024A069905305A069866267A070435186A070820994A071073377A071477067
2475A071682836A071325691A070523226A069481004A068468948A068028746A068394829
2468A068833599A068698877A068523820A069091852A070135916A070639044A070274938
2461A069548092A068975897A068913587A069944616A072148154A073741823A073525475
2454A072204254A070757796A069694076A069091783A068837763A068859124A069322054
2447A070441533A071727606A072041003A071032291A069514719A068438987A068065122
2440A068074677A068186263A068233354A068029019A067740259A068007589A068894955
2433A069482369A069682542A070352537A071383703A071629875A070820789A069642617
2426A068818448A068860148A069617842A070063232A069647462A069109460A069341368
2419A070003173A070462280A070744146A070829457A070483028A069864833A069442307
2412A069365596A069442307A069674625A070238425A070855801A070879074A070211126
2405A069648486A069996007A071033042A071833255A071690206A070629080A069461895
2398A069130752A069666571A070292547A070379700A069811463A068948871A068434551
2391A068646530A069132186A069129047A068615887A068258197A068847181A070574959
2384A072156753A072169720A070891768A069690049A069852071A070913130A071338249
2377A070744351A069742601A069073220A069015959A069356587A069798291A070024398
2370A069870157A069628830A069739802A070186147A070561787A070702856A070676854
2363A070438393A070051766A069778704A069664388A069515197A069432411A069964135
2356A071166536A072048510A071704266A070210307A068539517A067916272A068738529
2349A070086231A070963429A071258057A071183803A070764143A069999419A069222070
2342A069138875A070078519A071167082A071436459A071021713A070608537A070509850
2335A070316024A069515128A068515084A068563540A069709705A070242589A069566178
2328A068675468A068483963A068828890A069291478A069766965A070030063A069708272
2321A068789852A067864472A067709343A068365347A068781935A068157394A066914453
2314A066248348A067114080A068735253A069473019A069071855A068378178A068121289
2307A068318187A068565247A068711025A068878166A069007292A068856052A068499796
2300A068556989A069595866A070936948A071334496A070822223A070103567A069756045
2293A070141581A071065460A071607694A071194586A070250778A069386207A068801454
2286A068500957A068593365A069047012A069417670A069226369A068403157A067258630
2279A066354133A066202758A066810306A067755138A068732660A069588359A069923049
2272A069387982A068345760A067642118A067528826A067475524A067394240A067729954
2265A068530985A069278716A069577917A069574982A069566042A069522909A069217360
2258A068682020A068292526A068319962A068459734A068129753A067350765A066686572
2251A066565499A066948850A067401611A067512310A067305107A067137626A067198435
2244A067290229A067202598A067004132A066852825A066835285A066970553A067101112
2237A066933017A066463058A066134305A066284247A066624329A066655792A066419925
2230A066341098A066493770A066493906A066119086A065656771A065532217A065890249
2223A066549051A067132302A067243411A066709981A065804256A065128050A065106142
2216A065633020A066300695A066791401A066885994A066391192A065391353A064395062
2209A063925990A064046107A064395130A064487880A063999357A063079232A062355525
2202A062415106A063282271A064422088A065187426A065271986A064818680A064210450
2195A063763968A063519775A063348608A063233268A063270396A063472343A063767040
2188A064058324A064136332A063788470A063148709A062682230A062708984A063073089
2181A063318238A063179625A062909566A062975016A063457396A063959022A064065217
2174A063675927A063005592A062470114A062403436A062717788A063047701A063266437
2167A063501417A063664189A063417880A062697313A061905836A061485972A061542550
2160A061903174A062284615A062423774A062294443A062152281A062231858A062505808
2153A062786173A062899465A062772660A062495230A062263458A062184290A062205447
2146A062234452A062248989A062317443A062528398A062787811A062743995A062180946
2139A061464883A061244167A061643967A062129213A062249808A062137198A062093178
2132A062068813A061839567A061430690A061080508A060884635A060704254A060430032
2125A060197032A060226651A060500259A060753052A060849896A060979909A061296992
2118A061558315A061430008A060996903A060644127A060601131A060891186A061461948
2111A062076799A062381118A062320445A062213500A062265505A062298674A062091881
2104A061736102A061454100A061190797A060708485A060145504A060068997A060708417
2097A061509654A061758419A061380118A060882724A060690263A060711420A060582362
2090A060240233A060041493A060245693A060635733A060790588A060579974A060281318
2083A060225628A060377276A060408329A060234909A060164614A060357006A060536704
2076A060475553A060368881A060464497A060646994A060617647A060274494A059787677
2069A059433673A059388492A059572422A059755055A059884590A060138406A060516912
2062A060620445A060123323A059351638A059007529A059256022A059493595A059240461
2055A058845985A058911845A059368427A059621902A059429646A059180676A059332187
2048A059807742A060047090A059648587A058869804A058384967A058586027A059211797
2041A059685851A059760856A059706325A059832926A060086947A060257568A060305751
2034A060305205A060285823A060228288A060057395A059713150A059332938A059168118
2027A059317787A059747479A060400275A061052799A061328386A061052048A060372703
2020A059558909A058959346A058962008A059570374A060188159A060257022A059944035
2013A059804603A059966147A060085514A060006072A060009690A060345404A060837407
2006A061122480A061120365A061079074A061188681A061358484A061451643A061545348
1999A061797116A062134537A062240049A061900445A061290986A060768749A060462586
1992A060273470A060156765A060115679A060075481A060028321A060111653A060370246
1985A060634436A060674702A060360350A059794843A059362967A059403166A059786858
1978A060046271A059896534A059444046A058990126A058779989A058852469A059022954
1971A059047796A058853356A058548832A058183975A057650477A056953388A056410881
1964A056393682A056927521A057654709A058191483A058495461A058773915A059002411
1957A058849671A058191892A057343223A056680940A056351573A056305027A056372047
1950A056397709A056406240A056477491A056540962A056484999A056337309A056196990
1943A056082742A055873629A055412542A054725827A054055559A053623409A053529295
1936A053806998A054326300A054759746A054876792A054769233A054728147A055019773
1929A055680486A056401394A056791298A056816891A056767752A056829039A056945061
1922A057044977A057113635A057017405A056495372A055462159A054207821A053170240
1915A052528977A052068710A051418097A050387205A049058407A047545339A045789238
1908A043685890A041240275A038489521A035477854A032438341A029783067A027747898
1901A026149929A024623075A022988387A021248394A019390262A017472207A015782853
1894A014580794A013763314A013029643A012196944A011133633A009558117A007104176
1887A003610675I99350334I94929609I90824123I87038587I83318637I79558421
1880I75865088I72420179I69453419I67192894I65609257I64273225I62671298I60682675
1872I58674601I57211559I56739143I57408865I59087026I61563626I64675072I68170144
1864I71673882I74877396I77561539I79473520I80447425I80540584I79850456I78411574
1856I76397289I74131099I71757009I69128079I66064406I62533436I58543768I53984021
1848I48605703I42158340I34610608I26336576I18085202I10676355I04651041I00120368
1840H96815642H94279257H92121445H90069146H87748495H84700178H80832333H76657917
1832H72870674H69817239H67516243H66054088H65750860H66872182H69273572H72432656
1824H75795598H78972290H81632956H83373087H83767631H82575126H79887707H76046684
1816H71363817H65919502H59592393H52193374H43516130H33352913H21628785H08528428
1808G94357798G79370575G63972224G48980907G35372508G23859336G14947523G09192404
1800G07059026G08579874G13324097G20632686G29738872G39704988G49440014G58049078
1792G65302864G71665667G77771787G83971408G90413174G97327970H05024416H13646106
1784H23016822H32783721H42696125H52651390H62473024H71862304H80652021H88879916
1776H96503815I03260889I08931993I13583535I17437524I20634691I23194963I25062445
1768I26098593I26216458I25662008I25014399I24734716I24779146I24709260I24046499
1760I22459313I19761111I15878184I10821656I04585182H96971112H87575485H76186389
1752H63359298H50589536H39905719H33250950H31955594H36348474H45618933H58107785
1744H71951027H85696946H98571811I10351971I21034081I30605721I39070780I46512796
1736I52987048I58464123I63031786I67014629I70710214I74119702I77089670I79600871
1728I81765439I83622479I85131043I86385381I87659101I89108561I90576586I91837408
1720I92898126I93907861I94953291I96089218I97352429I98591957I99489697I99876734
1712I99889633I99767673I99642437I99568114I99661751A000149796A001196045
1705A002635677A003992866A004919202A005523337A006122559A006802313A007417914
1698A007888419A008278732A008683036A009200222A009942493A010920698A011957528
1691A012798281A013300999A013520622A013665787A013958572A014442249A014902175
1684A015081532A015012532A015009803A015263960A015554904A015477851A014897535
1677A014130559A013649748A013571877A013475100A012817116A011444163A009578251
1670A007486436A005376262A003436914A001748925A000267798I99050928I98394651
1663I98599669I99656973A001261358A003101473A005044916A007039954A008950501
1656A010563212A011752510A012602066A013337239A014083604A014716198A015023385
1649A015002091A014908318A015022839A015410285A015884817A016196712A016246329
1642A016104850A015859496A015548420A015260139A015179264A015424071A015837725
1635A016058509A015873214A015436902A015100915A015119547A015509245A016049432
1628A016449163A016623537A016692059A016665852A016410944A015981115A015641101
1621A015452463A015120366A014352229A013190300A011935074A010847945A010029441
1614A009558936A009558527A009985080A010572016A011143870A011773462A012498124
1607A013153241A013614942A013984507A014449825A015099277A015853218A016491477
1600A016804737A016800984A016732804A016854081A017167956A017492136A017755029
1593A018050203A018396086A018638846A018614277A018320399A017977314A017872757
1586A018021334A018162267A018232700A018448569A018787150A018899555A018648401
1579A018250785A017898624A017649790A017560725A017605292A017628564A017589595
1572A017714762A018253788A019134534A019959590A020385938A020425795A020298375
1565A020114241A019854351A019579173A019485127A019691578A020052681A020319055
1558A020430368A020444700A020281791A019881241A019541841A019705638A020377748
1551A021036960A021173252A020776661A020263637A020023675A020097588A020266367
1544A020374472A020484625A020709914A020988504A021116674A020987752A020728750
1537A020577648A020655861A020880398A021097838A021252898A021366600A021438807
1530A021467334A021490062A021520159A021505076A021394036A021203282A021026245
1523A020976697A021078046A021230990A021297737A021187107A020915341A020655656
1516A020629790A020839313A020954516A020567138A019654656A018759578A018554218
1509A019180534A020130484A020744379A020724587A020297010A019962047A019981976
1502A020142701A020136422A020006136A020002314A020135330A020113968A019773135
1495A019370060A019246940A019341123A019326313A019084782A018703682A018222735
1488A017725545A017407371A017286640A017147618A016931884A016843707A016933522
1481A016927653A016607431A016047111A015405235A014832426A014616760A014977658
1474A015638030A016031073A015975178A015771524A015691537A015718836A015740744
1467A015726685A015741290A015889662A016185588A016444522A016418383A016118977
1460A015853013A015795070A015726480A015427961A015054847A014840957A014732373
1453A014534658A014129194A013484041A012733445A012164594A011887710A011730875
1446A011621473A011753260A012184795A012568079A012507679A012046524A011573767
1439A011321794A011181884A011009216A010862072A010887119A011109473A011371819
1432A011481563A011447780A011460270A011561073A011573767A011465184A011472691
1425A011720160A012002913A012117229A012157155A012321224A012608345A012867962
1418A013010738A013014560A012830562A012490480A012252361A012438747A013105876
1411A014009076A014921831A015843868A016711510A017009483A016156444A014479376
1404A013206338A013075711A013533453A013746798A013740928A013959800A014268762
1397A014099437A013263189A012104808A011140048A010767412A010967721A011257981
1390A011268765A011112066A011018634A010999047A010906433A010624295A010242240
1383A010067183A010228385A010316426A009771325A008556708A007218356A006430359
1376A006496219A007118781A007720596A008052830A008328553A008755174A009176472
1369A009276183A008957872A008349233A007540420A006585487A005733747A005365957
1362A005586672A006045984A006306488A006340271A006517513A007072782A007764139
1355A008195264A008219151A007867876A007261830A006741299A006619885A006755017
1348A006920451A007421804A008631849A010134475A011014266A010889030A010243878
1341A009825378A009869876A010002073A009932119A009908710A010213711A010728646
1334A011331485A012205816A013455923A014728142A015333301A014730599A013112223
1327A011430991A010540622A010447053A010636511A010873401A011286987A011785542
1320A011844850A011174172A010267833A009882639A010200813A010885208A011640241
1313A012250655A012327776A011626933A010717590A010756560A012051233A013273768
1306A012938463A011308895A009846535A009248338A009077853A008849767A008549337
1299A008392093A008549404A008897268A009074304A009046732A009253115A009911030
1292A010574541A010546082A009519284A008025462A007305304A008143327A009685128
1285A010192896A009170125A007869173A007496810A007872312A008129473A007940561
1278A007654668A007625799A007673436A007284898A006569518A006593200A007931074
1271A009471169A009783815A009054853A008519239A008751421A009466733A010185935
1264A010413543A010146965A010492166A012324568A014555610A015721976A016021791
1257A016232133A016526487A016889570A017099366A016308366A014047500A011410994
1250A010036334A010241694A010977480A011274498A011103876A010819212A010272542
1243A009138389A007886372A007448558A007938855A008513575A008483750A008001848
1236A007640063A007679374A007912919A007999323A007783043A007129633A005754563
1229A003633060A001386458I99910176I99659431A000309770A000997032A001069853
1222A000681793A000382182A000340414A000462852A000954036A002036797A003220908
1215A003566723A002821723A001862695A001804070A002845473A004209896A005124016
1208A005449834A005338521A004775949A003777474A002727881A002159849A002287269
1201A002959380A003888105A004731451A005214308A005382268A005494127A005637722
1194A005797901A006173267A006912808A007678214A007928003A007455656A006375965
1187A004856414A003117443A001536331A000589384A000550005A001164036A001942478
1180A002847794A004223000A006090755A008106200A010015860A011487296A011885662
1173A011109678A010216715A010326731A011357351A012419160A012870214A012494575
1166A011136909A008820625A006223498A004532165A004419487A005338930A006237353
1159A006674689A006746008A006537032A006227865A006170196A006372894A006357948
1152A005750264A004606010A003320482A002595616A002973439A003937448A004108274
1145A002859396A001132574A000116491I99603058I98626900I97310729I96838381
1138I97667736I98829598I99305221I99338457I99905808A001304969A002712389
1131A003180368A002943000A003415279A005465736A007902478A008621817A007273978
1124A005444920A004259240A003409069A002395989A001456208A001061868A001081933
1117A000647054I98881126I95977973I93370678I92429600I93058509I93921989
1110I94014738I93684894I94022519I95464540I97367989I98852188I99496863
1103I99315732I98517293I97474730I96648855I96246599I96053251I95755209
1096I95270578I94673950I94005661I93373270I93083761I93233157I93177057
1089I92159200I90468822I89158930I88781447I88961760I89286486I89932594
1082I91102987I92422366I93163680I92888161I91827853I90718065I90194327
1075I90234252I90263258I89918194I89389746I88870785I88188232I87340928
1068I86768187I86653188I86582483I86275160I86089115I86386405I86895675
1061I87117823I87047186I87139595I87714588I88612328I89397390I89858613
1054I90124645I90298747I90317720I90123144I89814115I89610803I89696727
1047I90074824I90519599I90745160I90715472I90666743I90735946I90797848
1040I90736083I90586073I90352117I90042884I89846259I89976819I90443229
1033I91043201I91513911I91674020I91534317I91334963I91336192I91529403
1026I91743908I91894464I91982095I91967694I91785266I91460472I91111722
1019I90849444I90752804I90837841I90932161I90775803I90358669I89888506
1012I89441205I89022228I88835568I89098462I89592307I89805720I89583503
1005I89215917I89009466I89049527I89151013I88987421I88467573I87782836
998I87128607I86564055I86086043I85738454I85513507I85201543I84575159
991I83723760I83041071I82882666I83164191I83416847I83399375I83119352
984I82507914I81621912I80842788I80546112I80629102I80747513I80894520
977I81140283I81215766I80884829I80335088I79933309I79819744I79895158
970I80033089I80026741I79634927I78875117I78012935I77158532I76161900
963I75021264I74038350I73407256I72718015I71579017I70180948I68833655
956I67752941I67145052I67071275I67248175I67427464I67912574I69342652
949I71728891I74072133I75737600I76911336I77839515I78555373I79082319
942I79542996I79878984I79799542I79397696I79335180I80012819I80868518
935I81542881I82187692I82432840I81984721I81371099I81229347I81518175
928I81803180I82211033I83313382I84653372I85118212I84662790I83827088
921I83156956I83015819I83183300I83061067I82646595I82538421I82884918
914I83020186I82660722I82218404I82070441I82107295I81992364I81615088
907I81055450I80568088I80816240I82268566I83411660I83197360I82675259
900I82975347I84047053I84678829I84548542I84267290I84136117I83991021
893I83776516I83898817I84552228I85101286I85188099I85143328I85384791
886I85929345I86460932I86863325I87237531I87440024I87163823I86369000
879I85206594I83575729I80787234I75782712I67023297I51999152I27877626
872H93893721H53573699H14586296G86378053G76136145G84566261H05805792
865H32041178H57503854H79291284H96653006I10134053I20805585I29638094
858I37183506I43655165I49132990I53576032I56673966I57739188I55289341
851I45137931I19134522H74092936H19156622G60534141G00181630F52856997
844F41682064F68530730G14360995G57515444G83993521G89223262G71698768
837G43270833G30574574G36486869G51585131G69769862G87889961H04684812
830H19224734H31060311H41061916H50203113H58563002H66639591H75039474
823H81892027H86163766H89538310H93772034H98789182I02953225I05749978
816I08052817I10480619I12800725I14733657I16720574I19225770I21649477
809I23171826I23933957I24454215I24936186I25338306I25541959I25415836
802I25209589I25746841I26945898I27441518I27118157I26612641I26295012
795I26368721I26946853I27707209I28086739I27978087I27710349I27654999
788I27693901I27067244I25196827I21914076I16981352I10174934I01496325
781H90646119H76770459H58993445H36184404H07383833G76102294G49499664
774G29826844G15070438G04391126F98965443F98839319G01511451G04257837
767G04715647F99693722F87469333F70764434F51479402F29247675F04162549
760E77106817E49775362E25921335E10328920E05780161E11493034E23441938
753E37595539E52967512E69879341E86881496F03383015F21927756F44958945
746F71001937F95452763G15024643G27765878G30292572G17432790F83613978
739F30646018E80576637E58557436E64404519E84954638F10373021F35412147
732F57493591F75991855F91860984G06256151G19122621G30192042G40563280
725G51734118G63918854G76494995G89161225H01088391H10681257H17371174
718H21737778H23902141H22914108H17891296H09000980G96987342G82745802
711G67452418G52583879G39812138G31293026G29856532G37360995G52750747
704G72858718G93715444H11616397H25137370H35358462H43722241H50573293
697H55729736H59472685H62446134H65110075H67565313H69776631H71742596
690H73457952H74924475H76225427H77492800H78825214H80262800H81829580
683H83559472H85397745H87125113H88526322H89581034H90464032H91416234
676H92541037H93718050H94806135H95823036H96832499H97843191H98892715
669I00006257I01057078I01892985I02560318I03207109I03844754I04359484
662I04726865I05095680I05615938I06274877I06925353I07370947I07387463
655I06748999I05123935I01731305H95209892H84260112H68991433H52138776
648H38788151H33884978H38995626H51240899H65483872H77536343H85631086
641H89810758H90609265H88319325H83289892H76725074H70890377H68103043
634H69192083H73001984H77521397H81340443H84072974H85845387H86764284
627H86895389H86533331H86206421H86320874H86885766H87561972H87889428
620H87509147H86282927H84289322H81773275H79135404H76917330H75659306
613H75631870H76655733H78236299H79865662H81150235H81775254H81596784
606H80827077H80014308H79780625H80502352H82087558H84037826H85849823
599H87396947H88894249H90569135H92448219H94397804H96244948H97859229
592H99208364I00413973I01694177I03148484I04606543I05763696I06430278
585I06587523I06323197I05814541I05214500I04415311I03012055I00573470
578H96942038H92447195H88018144H84893867H83766539H84004862H83887407
571H81898169H78004527H73741388H71058883H71040934H73483204H77354051
564H81548328H85351814H88457050H90829229H92620069H93984696H94870425
557H95091686H94551090H93150769H90450792H85544070H77316310H65021216
550H49221496H32748300H20482348H17060848H23761686H37442019H52772531
543H65558809H74191282H78919944H80693038H80582476H79501216H77883591
536H75523901H71853431H66590316H60302518H54376847H50392776H49369595
529H51369684H55605524H60921395H66299782H71076491H74926727H77877517
522H80255839H82370995H84236088H85686436H86645258H87175139H87456596
515H87791355H88415896H89236174H89893270H90106410H89852185H89204439
508H88022034H85749225H81608660H75277046H67649395H60928425H57584524
501H58734101H63323058H68969115H73665428H76724869H78413267H79197442
494H79530767H79926472H80713854H81690694H82296126H82150757H81253426
487H79741177H77756649H75593719H73695730H72296091H71093894H69338544
480H66074972H60179330H50576705H37312756H22782115H11094910H05154634
473H04135480H04122308H01139919G93424364G81443827G66750482G51057707
466G35959513G23117885G14424057G11602939G15314904G24443953G36302052
459G47799936G56668753G61757153G62668952G59838553G55200183G52250554
452G54582671G63723800G78192130G94649287H10001161H22683292H32565531
445H40174413H46047124H50473104H53517189H55158633H55360785H53949612
438H50348346H43290296H31043590H13309368G94302244G82807909G86150307
431H03193924H25037454H42962977H54189641H60516204H64369307H67154867
424H69520699H71653327H73406220H74548494H75009854H74939558H74504747
417H73679214H72418938H71007697H70000281H69848838H70750263H72728718
410H75586280H78791910H81685576H83923715H85638935H87138353H88557648
403H89850547H90983471H92016616H93012838H93953097H94747168H95228047
396H95122807H94188213H92461937H90301737H88204667H86719922H86401065
389H87524708H89773904H92353900H94524064H96031536H97070209H97911098
382H98632143H99121279H99164480H98420709H96401374H92823721H88312977
375H84573850H83277061H84589410H87053111H88876027H89111553H87894205
368H86054500H84493044H83626220H83339645H83358823H83465017H83473002
361H83354250H83445157H84296693H86208946H88995462H92180549H95304826
354H98057900I00241714I01623335I01803648I00267648H96501153H90026491
347H80540708H68037456H52380307H32621972H07177654G74847614G35576844
340F90695505F43249458E98337339E62873570E44408031E48697241E76621093
333F22624232F76487202G27661526G69328499G99745330H20790080H35509427
326H46410410H54919012H61590503H66585880H70087162H72477154H74278981
319H75974614H77869327H80100232H82627199H85151846H87246186H88709364
312H89685317H90418100H91059227H91684382H92296571H92820992H93250138
305H93762275H94544197H95525815H96493509H97479904H98794574I00579271
298I02527764I04158765I05255859I05960593I06467405I06730571I06562884
291I05869686I04473254I01712946H96483135H87688368H74536141H56484700
284H33118889H04185506G69775117G30480664F87603987F43736820F03568037
277E74206395E64108559E79589901F19886582F75268695G31528756G77518859
270H08790911H25040935H25882574H09984645G78043894G36318568F97012104
263F74034080F76079691G01768679G40675754G79422512H08561665H25999689
256H35494003H42129185H48234009H52574951H52959531H49336494H44409571
249H41740852H43232080H47384862H49366728H43958517H29966971H11665945
242G96100385G89685373G95681272H12427666H34014991H53933983H68627532
235H77992311H83677543H87472634H90393531H92530936H93766438H94361564
228H94645819H94729560H94855956H95480498H96687335H97929047H98638421
221H98884798H99171237H99794960I00745660I01987919I03340808I04311710
214I04613163I04599309I04749933I05030639I05022040I04466498I03782853
207I03437379I03089653I02321449I01199035I00007758H98726394H97232503
200H95704898H94015203H90949209H84831897H75114069H63195843H51949658
193H44664888H43793355H49419553H58563616H66649760H69816966H65838900
186H53921561H35005344H12211114G89792318G70867433G56451587G47486949
179G46834357G56399786G71752479G81862395G75418513G48971011G12582850
172F87103521F89101768G16400122G51808099G79234010G92358323G90378094
165G73269233G44812702G16206706G01908384G10508029G39173264G76488785
158H10928998H37028023H55123212H67583740H76048322H81410193H84794497
151H87395377H89684293H91279533H91301577H88673874H82544892H72610784
144H58899944H41492700H20840516G98733069G79171768G67662145G68267509
137G80324894G97519680H09582252H05634830G78957468G31902416F77539457
130F35112742F20443216F37132964F75097732G17436543G49877624G66951474
123G72869501G77202937G87588371H04538555H22773585H37251537H47401310
116H55893532H64756071H73495284H80170187H83434305H83522141H81375796
109H77314126H71326076H64226326H57398410H51756994H47554800H44529210
102H42016712H39502371H37281430H36468386H38208517H42635316H48652508
95H54788931H59966668H63466175H64756685H63979676H62581948H62810716
88H66156665H72034426H77917920H81107170H80377526H76083402H68970753
81H58785082H43997418H23348714G98153503G73097588G55104840G51105686
74G64051120G89700046H19306018H45277077H63863995H74919561H80334256
67H82466679H83458602H84783782H86732821H88241931H87327265H81990032
60H71267450H55051892H31598587G97487194G52970711G06120746F69187144
53F52399664F60181557F88500157G26486902G62409540G89727687H08622063
46H22127067H32333349H39038350H40281836H34364696H21249597H02249912
39G79109047G53389825G27003133G03542183F87160917F79732416F80638755
32F88486098G02378889G21603794G44337829G66906293G84911735G95366442
25G97331383G91253927G78295389G60693433G42829060G31179460G33455955
18G54635564G88049935H18714645H38420974H46859758H47196087H45315364
11H47238810H54651956H63246551H66756501H64769993H62939843H65324512
4H71385452H78783310H85785396H90856597
$$ === CHEMSPECTRA INTEGRALS AND MULTIPLETS ===
##$OBSERVEDINTEGRALS= (X Y Z)
##$OBSERVEDMULTIPLETS=
(1, 8.594740668668853, 8.666270534728051, 8.632118930214938, 0.9999999999999999, 1, d, A, 4.294823353409811)
(2, 7.549782519138823, 7.624422503310047, 7.585918011773171, 1.0235847860559948, 2, d, B, 1.7684566749339865)
(3, 7.19213318884284, 7.2823231527490355, 7.220536918531016, 1.0527307301015292, 3, m, C)
(4, 7.049073456724447, 7.114383493776364, 7.092176842055934, 0.995484634910137, 4, d, D, 7.831736703277784)
(5, 6.741183980137021, 6.878023883248135, 6.844043492057374, 4.099088800329883, 5, d, E, 2.273730010630061)
(6, 2.1758147486062605, 2.225879048517675, 2.201171763776424, 6.082480343584001, 6, s, F)
(7, 1.9411546077573831, 2.0673987993529153, 2.0199649661947774, 12.268035639539074, 7, s, G)
##$OBSERVEDMULTIPLETSPEAKS=
(1, 8.63748568205969, 9942168.913257465)
(1, 8.626752178370186, 9909842.268094195)
(2, 7.588127850768069, 6599185.348926571)
(2, 7.583708172778273, 6932810.395615456)
(3, 7.235816376724312, 6224731.931181141)
(3, 7.2238201078948645, 6420305.66805235)
(3, 7.219400429905068, 6778219.441032099)
(3, 7.218137664765127, 6810693.442503246)
(3, 7.205510013365709, 5466173.176187278)
(4, 7.101963271890483, 12571503.533369588)
(4, 7.082390412221384, 11746641.329514423)
(5, 6.846884713622243, 47153475.26441695)
(5, 6.841202270492504, 49678733.77294362)
(6, 2.201171763776424, 127333138.4303343)
(7, 2.0199649661947774, 246836302.26813626)
$$ === CHEMSPECTRA SIMULATION ===
##$CSSIMULATIONPEAKS=
##END=


$$ === CHEMSPECTRA PEAK TABLE EDIT ===
##TITLE=JMB-216
##JCAMP-DX=5.00
##DATA TYPE=INFRAREDPEAKTABLE
##DATA CLASS=PEAKTABLE
##$CSCATEGORY=EDIT_PEAK
##$CSTHRESHOLD=0.93
##MAXX=3997.453
##MAXY=0.9377502843708222
##MINX=373.96442
##MINY=0.44172209710682964
##$CSSOLVENTNAME=- - -
##$CSSOLVENTVALUE=0
##$CSSOLVENTX=0
##NPOINTS=82
##PEAKTABLE= (XY..XY)
381.04707946051576, 0.7536467946337625
389.5462708131349, 0.7382544909718256
400.8785259499605, 0.6385741263438746
420.70997243940565, 0.5936429528460921
447.62407838936633, 0.5697719482790686
478.78778001563705, 0.6559766561677849
500.03575839718496, 0.7533342277477235
512.7845454261137, 0.7305280003410118
555.28050218921, 0.5418628480116001
569.4458211102419, 0.6704362066880815
602.0260546286158, 0.6130102903687159
616.1913735496478, 0.6000804927293433
626.1070967943701, 0.6522462994855796
644.5220113917121, 0.7369252474404736
674.2691811258792, 0.7900300063625251
713.9320741047691, 0.6896701490356577
725.2643292415946, 0.7351326980299046
745.0957757310398, 0.5886663224401808
763.5106903283813, 0.4926630874266176
848.5026038545734, 0.4754576705018683
883.9159011571537, 0.7714756763625426
889.5820287255665, 0.7714629211148565
902.3308157544952, 0.7714082635029986
924.9953260281468, 0.7741366061796306
957.5755595465203, 0.7596807516681124
985.9061973885846, 0.6836637295374111
1014.2368352306485, 0.6569765243572976
1028.4021541516809, 0.6214770106858014
1083.6468979437059, 0.7489697374421973
1123.3097909225953, 0.741795245547756
1147.39083308835, 0.7135784656497125
1175.721470930414, 0.7607218663374413
1185.6371941751368, 0.7718357481402374
1228.1331509382326, 0.7683546580803062
1240.8819379671618, 0.7647313511570787
1257.8803206724, 0.7739666142295722
1272.045639593432, 0.7581560650789945
1289.0440222986708, 0.7282717861051938
1374.035935824863, 0.6374187498077013
1416.5318925879592, 0.4878150252013024
1443.4459985379199, 0.44172209710682964
1463.277445027365, 0.6103299285584052
1490.1915509773257, 0.810165647343202
1500.107274222048, 0.8089779054031261
1508.6064655746677, 0.8080299533860679
1556.7685499061763, 0.6380458503594978
1568.1008050430023, 0.5604117536470926
1602.097570453479, 0.6778369577248214
1630.4282082955433, 0.8603729650735773
1637.5108677560593, 0.8591792625333332
1648.8431228928848, 0.8582174819238846
1655.9257823534008, 0.8563771883243049
1663.0084418139168, 0.8576892653271724
1670.0911012744327, 0.8580979747288923
1675.757228842846, 0.8585149093221702
1689.922547763878, 0.8569546975560495
1701.2548029007035, 0.8553004305759918
1723.9193131743546, 0.8445897735494128
1749.4168872322125, 0.8557236235811094
1762.1656742611412, 0.8563579956284372
1773.4979293979668, 0.8583986204145947
1794.7459077795152, 0.8637494490022627
1803.2450991321343, 0.8635975755300197
1814.5773542689599, 0.86527198977532
1830.159205082095, 0.8657804171794736
1840.0749283268178, 0.8644802613769426
1849.9906515715402, 0.8651968285722315
1858.4898429241593, 0.864274625474552
1874.0716937372945, 0.8620356956691999
1879.7378213057073, 0.8611989662679111
1896.736204010946, 0.8647842449987393
1910.901522931978, 0.8635503090623705
1919.4007142845971, 0.8673077264326656
1943.4817564503514, 0.8678327247419609
1949.1478840187647, 0.866736416225096
1985.977713213448, 0.8705868163379719
2729.656956567631, 0.8719459816454945
2848.6456355043, 0.7265867624282679
2871.310145777951, 0.8076152239965152
2922.305293893667, 0.6175085933096383
2961.9681868725565, 0.7561017907367886
3021.462526340891, 0.8355662266281555
##END=


$$ === CHEMSPECTRA PEAK TABLE AUTO ===
##TITLE=JMB-216
##JCAMP-DX=5.00
##DATA TYPE=INFRAREDPEAKTABLE
##DATA CLASS=PEAKTABLE
##$CSCATEGORY=AUTO_PEAK
##$CSTHRESHOLD=0.93
##MAXX=3997.453
##MAXY=0.9377502843708222
##MINX=373.96442
##MINY=0.44172209710682964
##NPOINTS=82
##PEAKTABLE= (XY..XY)
2729.656956567631, 0.8719459816454945
1985.977713213448, 0.8705868163379719
1943.4817564503514, 0.8678327247419609
1919.4007142845971, 0.8673077264326656
1949.1478840187647, 0.866736416225096
1830.159205082095, 0.8657804171794736
1814.5773542689599, 0.86527198977532
1849.9906515715402, 0.8651968285722315
1896.736204010946, 0.8647842449987393
1840.0749283268178, 0.8644802605035946
1858.4898429241593, 0.864274625474552
1794.7459077795152, 0.8637494490022627
1803.2450991321343, 0.8635975755300197
1910.901522931978, 0.8635503090623705
1874.0716937372945, 0.8620356956691999
1879.7378213057073, 0.8611989662679111
1630.4282082955433, 0.8603729650735773
1637.5108677560593, 0.8591792625333332
1675.757228842846, 0.8585149093221702
1773.4979293979668, 0.8583986204145947
1648.8431228928848, 0.8582174819238846
1670.0911012744327, 0.8580979747288923
1663.0084418139168, 0.8576892653271724
1689.922547763878, 0.8569546975560495
1655.9257823534008, 0.8563771883243049
1762.1656742611412, 0.8563579956284372
1749.4168872322125, 0.8557236235811094
1701.2548029007035, 0.8553004305759918
1723.9193131743546, 0.8445897735494128
3021.462526340891, 0.8355662266281555
1490.1915509773257, 0.810165647343202
1500.107274222048, 0.8089779054031261
1508.6064655746677, 0.8080299533860679
2871.310145777951, 0.8076152239965152
674.2691811258792, 0.7900300063625251
924.9953260281468, 0.7741366061796306
1257.8803206724, 0.7739666142295722
1185.6371941751368, 0.7718357481402374
883.9159011571537, 0.7714756763625426
889.5820287255665, 0.7714629211148565
902.3308157544952, 0.7714082635029986
1228.1331509382326, 0.7683546580803062
1240.8819379671618, 0.7647313511570787
1175.721470930414, 0.7607218663374413
957.5755595465203, 0.7596807516681124
1272.045639593432, 0.7581560650789945
2961.9681868725565, 0.7561017907367886
381.04707946051576, 0.7536467946337625
500.03575839718496, 0.7533342277477235
1083.6468979437059, 0.7489697374421973
1123.3097909225953, 0.741795245547756
389.5462708131349, 0.7382544909718256
644.5220113917121, 0.7369252474404736
725.2643292415946, 0.7351326980299046
512.7845454261137, 0.7305280003410118
1289.0440222986708, 0.7282717861051938
2848.6456355043, 0.7265867624282679
1147.39083308835, 0.7135784656497125
713.9320741047691, 0.6896701490356577
985.9061973885846, 0.6836637295374111
1602.097570453479, 0.6778369577248214
569.4458211102419, 0.6704362066880815
1014.2368352306485, 0.6569765243572976
478.78778001563705, 0.6559766561677849
626.1070967943701, 0.6522462994855796
400.8785259499605, 0.6385741263438746
1556.7685499061763, 0.6380458503594978
1374.035935824863, 0.6374187498077013
1028.4021541516809, 0.6214770106858014
2922.305293893667, 0.6175085933096383
602.0260546286158, 0.6130102903687159
1463.277445027365, 0.6103299285584052
616.1913735496478, 0.6000804927293433
420.70997243940565, 0.5936429528460921
745.0957757310398, 0.5886663224401808
447.62407838936633, 0.5697719482790686
1568.1008050430023, 0.5604117536470926
555.28050218921, 0.5418628480116001
763.5106903283813, 0.4926630874266176
1416.5318925879592, 0.4878150252013024
848.5026038545734, 0.4754576705018683
1443.4459985379199, 0.44172209710682964
##END=

##END=

