##TITLE=X9575
##JCAMP-DX=4.24
##DATA TYPE=INFRARED SPECTRUM
##DATE=19/11/2018
##SAMPLING PROCEDURE=Instrument type and / or accessory
##ORIGIN=Default
##XUNITS=1/CM
##YUNITS=TRANSMITTANCE
##RESOLUTION=4
##FIRSTX=3996.5625
##LASTX=399.65625
##DELTAX=-2.0390625
##MAXY=0.9713192
##MINY=0.59937453
##XFACTOR=1
##YFACTOR=9.046115e-010
##NPOINTS=1765
##FIRSTY=0.90486979
##XYDATA=(X++(Y..Y))
3997+1000285534+1000363745+999954438+999942248+999875634+999325718+999385545
3982+1000014661+1000373431+1000749661+1001122927+1000814695+1000002010
3970+999180101+998411695+997763339+997769203+998666952+1000028366+1001286268
3956+1001689513+1001403222+1001050514+1000570244+1000163308+1000195199
3944+1000234535+999793667+999742009+1000335281+1000245868+999451962+999321435
3929+999710646+999671112+999382910+999302722+999865421+1000853240+1001180185
3915+1000881177+1000819373+1000534070+1000114879+1000912343+1002479531
3903+1003006254+1002178086+1000685880+999566742+999668213+1000778126+1001878748
3888+1002409754+1002348608+1001656898+1001732341+1002244239+1002317311
3876+1002795605+1003126569+1003287142+1003356524+1002671007+1002626729
3864+1003013173+1002799294+1002843638+1004063258+1006733112+1008367507
3852+1004744163+1001550420+1001546993+1002816294+1004570873+1006093717
3840+1006136941+1004374719+1003089737+1003398101+1003504974+1003316134
3827+1003641498+1003910328+1004969440+1006471266+1006385872+1006250337
3815+1005518170+1003942877+1003600778+1004331891+1004561187+1004187460
3803+1004924306+1005423552+1004764984+1004088098+1003161622+1002758443
3791+1003131708+1003143700+1002569010+1001990234+1001973564+1002582715
3778+1002667910+1002533429+1003282332+1004728679+1005750168+1005098320
3766+1004202220+1004023395+1004327937+1004784356+1004236087+1004038088
3754+1006549279+1010321732+1010613360+1008450792+1007793146+1006409856
3742+1003954079+1003900576+1005854801+1007150194+1006339486+1004445682
3729+1002591873+1001314271+1001118908+1002409161+1003215323+1002495213
3717+1002516364+1003998554+1005514678+1005514678+1004395474+1003993481
3705+1004304744+1004294663+1003142383+1002117269+1002284827+1002987146
3693+1004303294+1006326440+1006840446+1004981102+1003347366+1002953279
3681+1003815776+1005871603+1008000699+1008187365+1008320857+1008632252
3668+1006143200+1003502272+1002938124+1003245500+1003627331+1004551106
3656+1005464272+1005952384+1007819568+1009932982+1008155803+1004474344
3644+1003007967+1003388151+1003696450+1003256174+1003074318+1003688345
3632+1005353577+1007369343+1006325715+1003544178+1002928768+1004095017
3619+1004671552+1004138570+1004667138+1006146693+1007088191+1006665047
3607+1005383623+1004784751+1004765907+1004290841+1003539171+1003297487
3595+1003381431+1003349079+1003519272+1004046522+1004244125+1004112478
3583+1004048696+1003745010+1003260523+1002786051+1002758377+1003554984
3570+1004579636+1005089557+1004768542+1003848655+1003092109+1002813263
3558+1002846208+1003448441+1004345332+1004516382+1004053704+1003427092
3546+1002467671+1001853776+1002349860+1003007506+1002839355+1002607358
3534+1003211962+1003871848+1003877119+1003405810+1002758443+1002220914
3521+1001990695+1002223813+1002831712+1003718984+1004444694+1004302701
3509+1003420635+1002849041+1003640312+1005287688+1005743711+1004832258
3497+1004404369+1004359828+1003932467+1003989198+1004282605+1003848721
3485+1003272976+1003093558+1003058175+1003088616+1003344466+1003518350
3473+1002965666+1002018962+1001554571+1002025814+1002938322+1003091516
3460+1002608741+1002569735+1002879351+1002855894+1002296819+1001725950
3448+1001908597+1002576455+1003025889+1003187978+1003342424+1003431441
3436+1003225338+1002776233+1002261502+1002495081+1003437107+1003725705
3424+1003339195+1003237857+1003176250+1002820511+1002765757+1002816492
3411+1002663100+1002844231+1003365288+1003467219+1002934237+1002658356
3399+1002913547+1002992879+1003094151+1003513408+1003465572+1003036498
3387+1003155429+1003606247+1003650986+1003339591+1003108054+1002831844
3375+1002375953+1002297873+1002838433+1003314618+1002871641+1002054213
3362+1002060472+1002449354+1002585878+1002802918+1003045195+1003110492
3350+1003306580+1003736313+1004060425+1004204196+1004138372+1003560255
3338+1002788291+1002426358+1002680759+1003334188+1003598142+1003387361
3326+1003226260+1003097841+1002827298+1002423986+1002307493+1002771225
3313+1003267310+1003324107+1003066148+1002757257+1002830329+1003017060
3301+1003158855+1003701457+1003639323+1002678584+1002457392+1003034850
3289+1003294654+1003210447+1002864394+1002621787+1003134871+1003995787
3277+1004412671+1004057196+1003445475+1003098302+1002811814+1002828945
3265+1003204648+1003024769+1002595893+1003091516+1004011996+1003801280
3252+1002526643+1002317904+1003433418+1004257633+1004700939+1004885496
3240+1004317197+1003622324+1003813668+1004343619+1004246761+1003928448
3228+1003955199+1003613824+1002657170+1002348015+1002865777+1002945767
3216+1002582847+1002764966+1003232783+1003471897+1003691771+1003882852
3203+1004134946+1004220932+1003575410+1002924880+1003308688+1003914611
3191+1004009031+1004547218+1005229177+1004788309+1004040065+1004170856
3179+1004740078+1004816642+1004321085+1004091063+1004269295+1004258621
3167+1004264815+1004536808+1004568303+1004119067+1003910064+1004253482
3154+1004504917+1004650995+1004633270+1004095478+1003144425+1002073123
3142+1001597267+1001840269+1002294052+1002951434+1003812745+1004192270
3130+1003895437+1004123942+1005042116+1005555727+1005670112+1005696534
3118+1005635520+1005681972+1005529371+1005288544+1005301327+1005035527
3105+1004721892+1004787321+1004907174+1005006141+1004897357+1004507619
3093+1004310147+1004421369+1004537730+1004564350+1004085265+1002953674
3081+1001796716+1000521222+998969056+997641904+996736579+995708501+993286854
3067+989391451+985400837+981853661+979014800+977340014+976282878+975482845
3052+975402262+976204865+978313008+981506883+983794312+984058860+982798586
3038+980997028+979935873+980230664+981508926+982827841+983631762+984366763
3024+985199412+985631517+985573929+985196447+984550068+983647181+982123084
3010+979938048+978420738+979086686+981908349+985453746+987921648+988802528
2995+988726228+987754551+986144601+984859289+984692917+985897250+988201020
2981+990745881+992326708+992549877+991638687+989427690+986093865+982383876
2967+978429567+974284837+970811458+968372811+966349205+964809493+964507652
2953+965363626+966801274+968162294+968167235+965286337+959111147+950385629
2938+939715373+928013218+917172703+908883836+903999230+903016022+905686337
2924+910765187+917229830+924947235+933519363+941786618+948746093+954243541
2910+958514647+961576479+963559761+964455203+964600886+964738068+965133341
2895+965952087+966780519+967488439+969057077+971763894+974985509+977980397
2881+980135915+981593001+982677678+983087776+982710953+981641759+979553713
2867+976554740+973235542+969423885+964614591+959448042+955584859+953863752
2853+954111300+956450057+960554990+965512998+970708340+975452601+979303661
2838+982581941+985241384+986827350+987936736+989218490+990356802+991242558
2824+992080083+992990943+993896400+994508187+995070424+995937072+996928714
2810+997680911+997903223+997771180+997468087+997301781+997843659+998647580
2796+998911600+998808549+998816390+999230243+999653453+999327497+999218185
2781+1000039963+1000607932+1000618211+1000503036+1000319994+1000157246
2769+1000274794+1000819439+1001429248+1001816351+1001972312+1001858850
2757+1001839017+1002450606+1003166894+1003348815+1003288987+1003353098
2745+1003513078+1003363574+1003087694+1003063578+1003104759+1003271395
2732+1003687818+1003953156+1003657970+1003268496+1003422875+1004060227
2720+1004541881+1004414253+1004039735+1003913556+1004019639+1004036375
2708+1004247420+1004766697+1004884508+1004570807+1004308038+1004161038
2696+1004034662+1003952300+1003787443+1003458917+1003375435+1003743758
2683+1004206832+1004522773+1004591958+1004400877+1004298155+1004440740
2671+1004896895+1005586564+1005727106+1005283009+1005134494+1005266537
2659+1005429878+1005918121+1006479172+1006668210+1006532214+1006456045
2647+1006884724+1007325988+1007128977+1006892960+1007273737+1007959386
2634+1008199686+1007883415+1007531959+1007255881+1007305825+1007793871
2622+1007827870+1007266555+1007136027+1007557129+1007653065+1007358537
2610+1007357747+1007961758+1008981929+1009847523+1010296101+1010363440
2598+1009939242+1009669819+1009931730+1009529671+1008625400+1008877231
2586+1009722926+1010148178+1010561900+1010797588+1010989393+1011515852
2573+1011857557+1011952372+1012056017+1012266535+1012641909+1012884976
2561+1012574635+1011742974+1011486136+1012593348+1013961747+1014226558
2549+1013723291+1013727640+1014560553+1015333835+1015270186+1014986398
2537+1015555752+1016224599+1015833741+1015001619+1014482408+1014487217
2524+1015161599+1015842768+1015824780+1015439918+1015601216+1016544889
2512+1017279560+1017385577+1017587924+1018020491+1018432499+1018979516
2500+1019202355+1018939060+1019278195+1020130742+1020529441+1020308974
2488+1019708521+1019794704+1020914303+1021393652+1020671170+1020373151
2475+1020957593+1021189327+1020971430+1021067168+1021350428+1021603181
2463+1021613855+1021075140+1020448397+1019737183+1018368257+1016951100
2451+1016193038+1015489533+1014271494+1012574503+1010844238+1009133015
2439+1005875820+1000480304+994336873+987549370+979212404+970296200+962173111
2424+954334798+946198861+937490737+928085499+919483523+913031334+908569015
2410+905761451+903495173+900099873+895254010+889891307+885088865+881378217
2396+879449557+880163737+883687126+889535832+896289533+902380054+907333713
2382+911071442+913097421+913678239+913986340+914074698+913090305+910645465
2367+907698808+906278159+905636590+904332434+903966680+905169959+908277518
2353+914226047+921825575+928123452+931361473+932317204+933686657+936330945
2339+939526006+943836647+948648774+952050597+954096277+955983162+958036749
2325+960170128+962674796+966364821+970868650+974313894+976367283+978043651
2310+979769172+981627198+983531939+984862847+985460072+986331266+988131507
2296+990217840+990498663+988216702+986191646+986036541+986030348+985686140
2282+985918072+986023561+986095974+986788739+987216364+987757121+988835934
2267+989626809+990271672+991261468+992070595+991885049+991221869+991224768
2253+992466065+994358419+995151271+995267105+997036575+1000189532+1002129261
2239+1002009540+1001927375+1003897743+1006915494+1008152245+1008085829
2227+1008469834+1008082995+1007166403+1006337839+1004375641+1002273231
2214+1001479061+1001221169+1001282973+1002509050+1003701984+1003812284
2202+1004898081+1006968404+1006869569+1005491616+1005547755+1005683949
2190+1005864618+1007304376+1007786623+1006312208+1005588145+1007811134
2178+1010149298+1008967170+1006521737+1006885449+1010131113+1013021895
2165+1013651801+1011400413+1006983559+1004706803+1006788657+1009903068
2153+1009229741+1006818900+1009595166+1015796645+1018837194+1017512480
2141+1014519438+1012812497+1012613708+1012983415+1013742334+1013348906
2129+1011654287+1011248999+1011751013+1011460703+1011862235+1013403067
2117+1014794857+1015369745+1014545991+1012474680+1010587465+1010453577
2104+1011541681+1012360362+1012884119+1013507898+1013568912+1012990202
2092+1013569505+1015168781+1015901278+1016571838+1017633388+1017666465
2080+1017635958+1018016669+1018192661+1018604735+1018061672+1016492507
2068+1015371195+1014991077+1015694055+1016830785+1017414305+1017955919
2055+1018874817+1019879570+1020667349+1020879184+1019982622+1018404035
2043+1017588649+1017723657+1018440999+1020008780+1021590662+1020975317
2031+1017591944+1015467130+1019089157+1024351707+1023484466+1018842136
2019+1016973634+1017379251+1016727997+1014657147+1014844735+1019170201
2006+1022202778+1021946598+1021772715+1020698646+1018587604+1018121368
1994+1018697772+1018649936+1019244064+1020390216+1019220409+1015867542
1982+1013757752+1014601009+1016535599+1018026948+1019541358+1019739950
1970+1018075574+1015689179+1012554143+1010891349+1013018732+1015897259
1958+1015895216+1015376268+1017714762+1020818302+1022011039+1022475166
1945+1023355322+1023710929+1022959588+1021640541+1020609695+1020442533
1933+1020763021+1021011952+1020499725+1019639534+1019426578+1019096207
1921+1017874545+1016114958+1014674410+1014772652+1016005120+1016162663
1909+1014588292+1012902964+1012195901+1012157553+1011579041+1009927777
1896+1008144998+1007476941+1008274998+1009936540+1011400282+1012688559
1884+1014625322+1016325213+1017102251+1017938326+1019218235+1020694100
1872+1022191643+1023114626+1022766333+1021707748+1021379485+1021936386
1860+1022232890+1022161597+1022551598+1022781158+1021966300+1020976701
1847+1021354118+1022517533+1021636324+1019763143+1019426447+1019767887
1835+1019881613+1020222790+1021223722+1021658924+1020749645+1019242351
1823+1017078333+1014797031+1013877012+1014638896+1016213859+1018340122
1811+1020272603+1021053858+1021308983+1021747216+1022211805+1022398800
1798+1022176093+1022107304+1023112979+1024005127+1022884276+1021473708
1786+1020884389+1020578990+1020371569+1019531079+1017921788+1017006513
1774+1017334842+1017077872+1015006165+1012752274+1011335314+1010854319
1762+1010237393+1008834732+1007398005+1006378954+1006165339+1006451433
1750+1006173312+1004922922+1003646308+1003341897+1004119594+1004527847
1737+1004748841+1006462766+1007935534+1007694114+1007431214+1007399257
1725+1007687459+1008322834+1009931796+1013023213+1015593770+1015568469
1713+1015095644+1015975997+1018665486+1022293903+1024864395+1026637291
1701+1028677963+1029622032+1029374748+1027772572+1026163807+1026029854
1688+1027206711+1030191320+1032944853+1030787622+1027416240+1026248673
1676+1026578452+1026340919+1026426708+1027555861+1027284065+1026776714
1664+1027714853+1028162903+1027780874+1028723954+1032089538+1036775816
1652+1036722907+1035724611+1036811265+1035647454+1033221261+1033257500
1639+1035915428+1039975555+1041708852+1039163793+1037361049+1037579737
1627+1038426553+1039245563+1038953605+1037488744+1037499615+1038229279
1615+1036639161+1035037381+1034955084+1034817572+1033784618+1032270076
1603+1030076474+1026237340+1020045547+1012639009+1008206868+1008416332
1590+1008462784+1005316086+1001084777+997168223+994006239+993978499+998763414
1576+1006139576+1011315613+1015848698+1022052220+1026680383+1028952263
1564+1031562288+1035543875+1041056938+1042266806+1038427541+1035973411
1552+1034645864+1033713260+1033666873+1035371376+1039218811+1044529791
1539+1046488957+1044116596+1043407688+1044073438+1044124503+1044651621
1527+1046278505+1048413927+1050225895+1049189515+1045734387+1042241307
1515+1038939439+1037697548+1039654870+1044556805+1048462949+1040828367
1503+1023419103+1003096260+992316693+1001424307+1015376268+1021103209
1491+1020867917+1015624541+1004514273+987480713+968744891+957851269+960550180
1476+972542777+986118574+991834116+986044843+979370868+980801204+990601187
1462+1000271895+1005904350+1003949137+993562866+990120126+994331207+1000675272
1448+1008194151+1013928999+1009561430+980955781+918915224+829485410+764157744
1433+776847916+832936848+890718883+930665874+956035940+973149754+984524503
1419+991901456+992337778+983988687+969455710+958201144+960945980+973686228
1405+986116466+993705979+996456943+993591726+984342449+970753277+959938196
1391+958529011+964771738+973826310+981650391+987513724+991820807+995170116
1376+998480879+1001604252+1003625091+1004778162+1005904218+1007491173
1364+1009853849+1012326165+1014150850+1015722717+1017291684+1018618045
1352+1019874826+1021355304+1022920120+1024594181+1026458401+1028315833
1340+1029374089+1028906601+1027346199+1025267245+1023196396+1021907262
1327+1021715523+1022637716+1024020479+1024413841+1023207004+1021117508
1315+1018860585+1016066134+1013123036+1012311471+1014801907+1019188321
1303+1023701177+1027067683+1028543878+1028895861+1029708348+1031460620
1291+1032979511+1033514075+1033710690+1034299679+1035225628+1035701022
1278+1035368543+1034942697+1035113681+1035857379+1036801447+1037722125
1266+1039062257+1041084019+1042919840+1043753477+1043735028+1043296268
1254+1042646529+1041646915+1039923700+1037109284+1033080718+1028834056
1242+1025881206+1024604394+1024129263+1023243705+1021799071+1021030665
1230+1021835838+1023933900+1026892351+1030000701+1031266970+1029273673
1217+1026446475+1025746923+1026102596+1025911581+1024772545+1021688508
1205+1016939371+1012674919+1010141326+1008609586+1006702275+1003278774
1193+997712011+990387638+981930357+971468247+957872486+943923885+937529019
1179+945287012+964947334+987518270+1005238534+1015382857+1017994398+1013661355
1164+1005445296+1000137611+1001344185+1004405621+1004924701+1003281608
1152+999298571+993122789+988500226+988668838+991212183+990686975+986071133
1138+982272390+983131000+985140704+983380788+982726371+990565014+1003116290
1124+1012056741+1014747350+1012944408+1009969683+1007977835+1004282407
1111+990645860+958290359+911642509+874223774+866289327+882812571+901993808
1097+907977324+906707036+915233633+936141775+958480912+973399740+976774746
1083+968726771+955013265+940256592+919992588+887158792+845408002+813056124
1068+808338153+828445735+851854657+862058084+863332260+870276845+887984721
1054+910971883+933473042+952671674+967675368+979397159+989147659+997296378
1040+1003527311+1008097096+1011548797+1011747521+1002952488+985912076+976452215
1026+985144130+1001665990+1013962735+1021093458+1026216387+1030793289
1013+1034832002+1038396507+1041177780+1042156770+1038065740+1023406320
1001+1002700592+992802696+999206062+1010482108+1018112736+1022866090+1027275236
987+1031382343+1034847420+1037714482+1039517358+1040492527+1039996377
975+1037125164+1035057609+1036462576+1038012633+1036533210+1033927599
962+1032791923+1033022142+1034572528+1038717917+1044984628+1050992259
950+1055582931+1058138466+1056958776+1050470874+1038705332+1026996061
938+1024224935+1032228500+1044328300+1053494621+1056854472+1056244860
926+1053961318+1047918897+1034327484+1014229061+995654274+987490333+991337505
911+1001237641+1009577705+1010053231+998962138+980046436+966897671+971833342
897+991027098+1011030970+1025485077+1035668275+1042637502+1046417203+1047807938
883+1048462817+1050685806+1053671337+1052525580+1045637002+1038567886
871+1037041023+1040903613+1047643016+1055335977+1061158787+1062765444
858+1058773051+1045397822+1019037829+984297578+956400442+949284479+961870084
844+983289333+1003710484+1017368182+1024814517+1030765615+1038373643+1047442646
830+1055370371+1060614670+1063890050+1065670919+1066087342+1064561796
818+1060358820+1055028864+1051731147+1051932572+1053720952+1053960396
805+1053544829+1055760834+1058853766+1057448271+1047090201+1025382882+996030043
791+976138448+982805505+1009518338+1036821083+1054262500+1062170788+1064594214
777+1064413413+1063141279+1061785333+1060549834+1056606727+1047856038
765+1038189481+1032498516+1032697108+1037373305+1040755229+1034844785
752+1010207281+957660716+884580394+817864826+774228402+757710759+776081750
738+824027694+878624881+922670348+953159720+974321208+988679512+991081787
724+967698759+906540400+830057992+795478183+824240518+880498259+921910376
710+928967368+900773135+847025267+781856198+724173195+692905270+683771827
695+675261702+663392714+662576735+685619706+731104601+782577493+823830486
681+852190036+873664633+892538692+910077693+924638607+934116851+945583319
667+965427605+981921791+995010003+1006709523+1014586118+1019140090+1021837946
653+1022804154+1022849222+1022438795+1018728147+1007914910+989880155+970241577
638+959793370+965220579+981714238+1001699462+1019203080+1025615539+1013880636
624+983577864+950318026+946691453+982169471+1022036670+1030976265+1003337284
610+953282143+897137996+846920963+820425632+829701989+864554186+905478982
595+940635787+967450289+988365284+1005902505+1017909203+1020179369+1013904027
581+1002207868+980897996+953449305+944878034+967579301+1001831044+1029144990
567+1045759294+1053691895+1055613175+1048370044+1026774276+1000755723+994525318
553+1014596595+1040490945+1055913566+1062058908+1059199160+1043503360
540+1023160815+1012989543+1018138236+1031175252+1042763615+1051867012
528+1060926592+1069167623+1073741823+1069783297+1051222808+1026675639
516+1017926729+1020757947+1010219010+978412963+922601230+837548209+755161550
502+727915207+751958319+767683571+744228855+709832550+708438520+739143219
487+765435083+769319351+768833941+790525644+831085740+870050909+899595289
473+923989989+946170265+964808900+978788996+986482220+990415048+997213950
459+1002453044+990363654+957436164+917987430+889201178+881191288+892683452
445+915271322+940000676+960164132+974248927+990081844+1008664538+1019055224
430+1017193376+1005102603+980554842+942801123+908020878+894855640+906984497
416+930739144+955988236+981719971+1003406271+1016314539+1028748993+1041248348
402+1038355985+1023374430
##END=
