##TITLE=CZ-316
##JCAMP-DX=4.24
##DATA TYPE=INFRARED SPECTRUM
##DATE=14/6/2021
##SAMPLING PROCEDURE=Diamant-ATR
##ORIGIN=Angelika Moesle
##XUNITS=1/CM
##YUNITS=TRANSMITTANCE
##RESOLUTION=4
##FIRSTX=3997.453
##LASTX=373.96442
##DELTAX=-1.4165319
##MAXY=0.88132787
##MINY=0.5801183
##XFACTOR=1
##YFACTOR=8.2080054e-010
##NPOINTS=2559
##FIRSTY=0.86015832
##XYDATA=(X++(Y..Y))
3997+1047950486+1047788476+1048230427+1049039243+1049568118+1049464420
3989+1048952029+1048482048+1048242990+1048066093+1047769450+1047444559
3980+1047238905+1047015896+1046611706+1046329659+1046693111+1047671634
3972+1048578121+1048811441+1048439639+1048075534+1048283583+1049022178
3963+1049685976+1049755108+1049322017+1048864089+1048647325+1048566284
3955+1048473333+1048453291+1048718999+1049307202+1049932731+1050155159
3946+1049773699+1049050717+1048468976+1048262452+1048197531+1047925796
3938+1047390386+1046767471+1046299741+1046260164+1046785190+1047585146
3929+1048195353+1048599180+1049070759+1049502907+1049380764+1048575507
3921+1047652899+1047243771+1047534677+1048207262+1048708687+1048757196
3912+1048462949+1047987594+1047433956+1047083649+1047339481+1048173495
3904+1048764966+1048264340+1047007691+1046159879+1046345344+1047119377
3895+1047667640+1047649994+1047404328+1047451022+1047652245+1047539906
3887+1047357563+1047756379+1048543991+1048770412+1048159117+1047174058
3878+1046224146+1045459046+1045083249+1045293259+1046017403+1047093452
3870+1048331947+1049192394+1049339953+1049189925+1049277066+1049618878
3861+1049893736+1050006075+1049981603+1049711974+1049165090+1048763732
3853+1049246712+1050330531+1051043274+1051156557+1050813076+1050355584
3844+1050304098+1050818159+1051302809+1051033035+1050046088+1049166397
3836+1049031981+1049378077+1049663755+1049634854+1049229647+1048514871
3827+1047810624+1047495246+1047529521+1047577812+1047564523+1047659434
3819+1047902413+1048355765+1049080490+1049701734+1049866504+1049859242
3810+1050042529+1050363863+1050463639+1050080290+1049458756+1049179686
3802+1049627882+1050386810+1050532844+1050035994+1049658527+1049880301
3793+1050379621+1050530157+1050112823+1049447209+1049061827+1049241120
3785+1049828961+1050404892+1050684978+1050698485+1050678079+1050832174
3776+1050961434+1050499367+1049223111+1047761390+1047199546+1047895079
3768+1048926976+1049420268+1049582641+1049966353+1050590866+1051132230
3759+1051485588+1051740622+1051769451+1051353497+1050649178+1050191032
3751+1050354858+1050705892+1050698848+1050699429+1051440129+1052873893
3742+1053716404+1053350919+1052345091+1051389515+1051010596+1051238978
3734+1051193229+1050173677+1048785880+1047907932+1047709686+1047876416
3725+1048155994+1048593225+1049293405+1050169610+1051018221+1051636778
3717+1051851364+1051666334+1051448771+1051766619+1052703532+1053422883
3708+1053293696+1052645583+1052036466+1051824422+1052068708+1052380964
3700+1052278428+1051877796+1051693565+1051897403+1052096884+1051856592
3691+1051308474+1051023522+1051176237+1051366640+1051525455+1051810044
3683+1052149822+1052393890+1052456051+1052297890+1052055855+1052065876
3674+1052349666+1052570133+1052731054+1052837657+1052614721+1052284092
3666+1052399700+1052829161+1052968078+1052605789+1052134282+1051952157
3657+1052158319+1052689009+1053394054+1054154143+1054857809+1055055256
3649+1054147971+1052708979+1051919624+1051763351+1051742510+1051782958
3640+1052135444+1052875418+1053731290+1054378169+1054632040+1054431906
3632+1053899546+1053408723+1053426296+1053901216+1054107886+1053695853
3623+1052860749+1051932623+1051246022+1051077985+1051490962+1052180249
3615+1052708180+1052816162+1052600488+1052431361+1052555755+1052847751
3606+1052965392+1052816453+1052742746+1053172715+1054124515+1055032963
3598+1055281025+1054752949+1053731145+1052601069+1051736264+1051435700
3589+1051812295+1052570424+1053023849+1052931842+1052741656+1052689807
3581+1052608476+1052410592+1052304643+1052469921+1052799315+1053018838
3572+1052886674+1052402024+1051975975+1052198621+1053019419+1053466526
3564+1053031837+1052172624+1051427639+1051110590+1051364607+1052032036
3555+1052669692+1052867358+1052612252+1052365860+1052540869+1052911582
3547+1052886456+1052333618+1051744180+1051403530+1051130197+1050862964
3538+1050789402+1050910383+1050966226+1050876544+1050839726+1050923818
3530+1051008272+1051194536+1051757977+1052535567+1052962705+1052870335
3521+1052668603+1052682255+1052842522+1053000321+1053077295+1052956677
3513+1052554521+1052019764+1051675556+1051704894+1051979243+1052246186
3504+1052356855+1052321563+1052275669+1052304135+1052270585+1051992678
3496+1051565322+1051305351+1051356183+1051560530+1051731399+1051851436
3488+1051938142+1051896532+1051715496+1051664809+1052011195+1052624742
3479+1053197042+1053669783+1054032727+1054037084+1053577777+1053064224
3471+1052947382+1053105616+1053101622+1052862420+1052675720+1052614140
3462+1052431071+1052062463+1051845336+1052136461+1052910856+1053744943
3454+1054159517+1054029386+1053577268+1053046288+1052656040+1052678697
3445+1053094578+1053407343+1053238652+1052768525+1052344002+1052029567
3437+1051728640+1051410138+1051150167+1051138984+1051507301+1052056726
3428+1052464475+1052755526+1053160297+1053547713+1053531156+1053139747
3420+1052875781+1052999885+1053210476+1053142869+1052843539+1052600488
3411+1052467162+1052237181+1051969004+1052143214+1053000466+1054041295
3403+1054527834+1054267645+1053696289+1053379676+1053497389+1053693311
3394+1053527743+1053040696+1052627719+1052473842+1052434774+1052430272
3386+1052631568+1053138149+1053619241+1053591211+1053038009+1052395996
3377+1051980623+1051835605+1051995582+1052423954+1052862347+1053103365
3369+1053236110+1053456215+1053822934+1054225962+1054479688+1054506557
3360+1054421376+1054369673+1054389788+1054447737+1054429873+1054155160
3352+1053610527+1053106343+1053023776+1053465147+1054210567+1054928321
3343+1055352553+1055340644+1054937035+1054412953+1054093217+1054049574
3335+1054034251+1053784955+1053367984+1053153036+1053387591+1053878704
3326+1054269969+1054515779+1054811406+1055210077+1055632349+1056036757
3318+1056282350+1056109230+1055568300+1055141090+1055143487+1055349067
3309+1055466418+1055592337+1055894354+1056186495+1056117798+1055579774
3301+1054821427+1054266192+1054154289+1054309763+1054446647+1054619477
3292+1055043565+1055607950+1056011559+1056228758+1056414442+1056502454
3284+1056314302+1055969223+1055815128+1055958984+1056187729+1056393528
3275+1056738317+1057255355+1057653663+1057723811+1057601160+1057447138
3267+1057202997+1056841869+1056614286+1056833228+1057486932+1058178761
3258+1058514473+1058524131+1058554703+1058734141+1058767691+1058369020
3250+1057641318+1056909985+1056408487+1056238199+1056389461+1056695327
3241+1056969023+1057225000+1057567466+1057924817+1058118271+1058128219
3233+1058109194+1058189872+1058349631+1058436118+1058321019+1058073829
3224+1057898457+1057865343+1057817851+1057611908+1057364499+1057371180
3216+1057792943+1058469958+1059036812+1059216468+1059072467+1058968261
3207+1059154162+1059441293+1059484500+1059259530+1058959402+1058641263
3199+1058377225+1058447665+1058897386+1059218066+1058980969+1058502346
3190+1058467562+1059099408+1059982948+1060558225+1060592791+1060282714
3182+1060037484+1060179887+1060758287+1061541687+1062187984+1062484047
3173+1062439605+1062187186+1061915523+1061865780+1062134392+1062419417
3165+1062247749+1061610819+1061097557+1061213818+1061832375+1062460519
3156+1062759268+1062664139+1062350067+1062222260+1062589342+1063240723
3148+1063666481+1063708526+1063654499+1063731328+1063824206+1063708308
3139+1063415950+1063285528+1063568302+1064066895+1064400791+1064523152
3131+1064651830+1064830107+1064918700+1064864527+1064719002+1064534916
3122+1064403768+1064472464+1064818052+1065328482+1065772321+1066049430
3114+1066267211+1066419708+1066229958+1065570735+1064772811+1064220045
3105+1063939741+1063818469+1063907281+1064296584+1064927487+1065639939
3097+1066242811+1066540689+1066469887+1066212239+1066051464+1066119434
3088+1066315429+1066402570+1066140783+1065425063+1064395708+1063354079
3080+1062523841+1061914579+1061308221+1060346109+1058897604+1057415912
3071+1056609638+1056700483+1057384469+1058463350+1059979535+1061740587
3063+1063296929+1064502964+1065640012+1066867323+1067924056+1068494323
3054+1068550311+1068176185+1067351466+1066066568+1064409069+1062376500
3046+1059797265+1056552851+1052762280+1048740421+1044887617+1041574507
3037+1039053293+1037485985+1037001190+1037582277+1038926938+1040521986
3029+1041815816+1042289283+1041583003+1039799295+1037604352+1035781939
3020+1034540757+1033224634+1030813363+1026949448+1022553608+1019241806
3012+1018034173+1018781482+1020794082+1023607727+1026970580+1030548526
3003+1034083992+1037629188+1041192974+1044257513+1046058214+1046343965
2995+1045494483+1043787604+1040862636+1036087369+1029382286+1021727001
2986+1014874723+1010180933+1007207674+1003455009+995949389+983707352+969011273
2976+956164186+948464532+945849714+945192015+942771304+936715860+927780615
2966+918461441+911410335+908156118+908734882+912223145+917646598+924564014
2956+932906989+942355859+951941467+960180453+965474864+966478949+962390645
2946+953211478+939971674+924563434+908736116+892912212+876356030+858742463
2936+841237749+826058835+815426587+810728440+811865706+817160044+824196844
2927+830849206+835756275+838674707+840815114+844255813+850398399+859005121
2917+868761962+878436818+887343523+895065399+901197237+905441814+907720049
2907+908124021+906995978+905141903+903729126+903739292+905430776+908292277
2897+911569441+914900342+918354257+921909184+925235656+928104563+930662303
2887+933132394+935513093+937673905+939481069+940664883+940716006+939121103
2877+935809736+931366768+926725989+922604644+919258057+916745848+915263648
2867+915033668+915877413+917052004+917598961+916865377+914883059+912502433
2857+910997504+911101492+912357197+913721321+914835567+916481374+919843211
2847+925500928+933002481+941185116+948903506+955543450+960911713+964830818
2837+966941596+966712125+963560226+957241615+948383636+938647854+930277502
2827+925316116+924866903+928687247+935410412+943326249+951127568+958118256
2817+964036961+968902492+972938438+976424451+979539169+982319701+984709259
2808+986654033+988207181+989502172+990593398+991369173+991573592+990751342
2798+988194255+983286170+976317558+969015122+963839514+962272206+963600529
2788+965253671+964228745+958706241+949238201+938721706+930710304+927108030
2778+927084720+928067383+928027225+927220370+927806685+931611344+938232117
2768+945410086+951131054+955210643+958947042+963593267+969341684+975495816
2758+981202841+985997352+989904401+993170528+995934865+998204169+1000048150
2748+1001661424+1003232581+1004794660+1006163649+1007073258+1007451814
2740+1007498725+1007444625+1007394083+1007450507+1007769226+1008374785
2731+1009088690+1009737602+1010317962+1010900138+1011469461+1011925863
2723+1012229187+1012516027+1013023189+1013855896+1014894184+1015963335
2714+1016993199+1017942239+1018678801+1019052274+1019076746+1019013351
2706+1019222853+1019897253+1020907220+1021918421+1022650844+1023100928
2697+1023521457+1024114163+1024786530+1025297250+1025548725+1025641603
2689+1025774566+1026136856+1026749967+1027405052+1027847148+1027991730
2680+1027955203+1027942568+1028079379+1028311103+1028518426+1028665695
2672+1028771208+1028880135+1029092759+1029416199+1029668908+1029732739
2663+1029737677+1029801436+1029827723+1029722500+1029580315+1029536526
2655+1029609725+1029772243+1030083192+1030648376+1031424368+1032147350
2646+1032543044+1032535129+1032235145+1031879028+1031733575+1031850126
2638+1031992021+1032001752+1032059338+1032371376+1032848256+1033283527
2629+1033616987+1033861273+1033993292+1034071647+1034277590+1034716637
2621+1035279569+1035748244+1035996016+1036090491+1036236598+1036600994
2612+1037177651+1037797588+1038208604+1038212598+1037906224+1037696795
2604+1037842248+1038106286+1038179484+1038208677+1038473514+1038743942
2595+1038519626+1037840069+1037337773+1037444739+1037936215+1038335758
2587+1038463202+1038482518+1038599287+1038841250+1039135642+1039530972
2578+1040157808+1040889286+1041298850+1041161167+1040779779+1040657491
2570+1041033069+1041744505+1042309979+1042261616+1041695561+1041342058
2561+1041796935+1042809081+1043561472+1043575415+1043149585+1042895713
2553+1043016331+1043218935+1043232950+1043147479+1043219951+1043534096
2544+1043890939+1044060066+1044134353+1044399626+1044783701+1044838382
2536+1044403620+1043865741+1043652535+1043830812+1044230499+1044682254
2527+1045092907+1045377932+1045432613+1045318022+1045335741+1045598326
2519+1045691495+1045184841+1044323014+1043807574+1043987448+1044589884
2510+1045207207+1045771519+1046408014+1047012193+1047230191+1046828615
2502+1045917844+1044890304+1044236381+1044261144+1044865686+1045640517
2493+1046176581+1046309181+1046184424+1046070487+1046063733+1046064387
2485+1046004550+1045951974+1046031128+1046343892+1046889033+1047501927
2476+1047904592+1047878014+1047507954+1047262796+1047582460+1048341968
2468+1048987031+1049155649+1048857989+1048229265+1047520444+1047183353
2459+1047503815+1048147716+1048419015+1048095358+1047763495+1048087007
2451+1048930752+1049550109+1049534569+1049175547+1048913106+1048810643
2442+1048700409+1048558224+1048477618+1048426568+1048337538+1048349520
2434+1048601286+1048848259+1048681746+1048116272+1047642224+1047666478
2425+1048082215+1048430925+1048433394+1048268116+1048257223+1048445521
2417+1048666569+1048816815+1048837003+1048625976+1048239795+1048007128
2408+1048202179+1048738388+1049350047+1049880737+1050189798+1050063516
2400+1049525419+1048981657+1048778255+1048866994+1049081216+1049378658
2391+1049668548+1049777257+1049730564+1049750534+1049893227+1049952846
2383+1049807103+1049643132+1049700790+1049911600+1049997288+1049912907
2374+1049972381+1050477582+1051428075+1052657638+1054038681+1055381673
2366+1056236891+1056108721+1055045235+1053823007+1053347070+1053845954
2357+1054631242+1054730292+1053885022+1052731853+1051905827+1051448481
2349+1051147625+1050865433+1050463494+1049840507+1049234294+1049075334
2340+1049356655+1049578139+1049404365+1049075625+1049008090+1049217955
2332+1049383669+1049308219+1048990444+1048416401+1047684851+1047225398
2323+1047491687+1048350537+1049074535+1049144975+1048786606+1048547984
2315+1048685305+1049121955+1049696288+1050244842+1050655205+1050975667
2306+1051313557+1051618551+1051739460+1051668076+1051604899+1051762116
2298+1052089550+1052233986+1051887455+1051129616+1050354568+1049963739
2289+1050117689+1050643659+1051254737+1051891739+1052613849+1053274888
2281+1053719381+1054059522+1054263941+1053881900+1052725027+1051443470
2272+1050926868+1051400117+1052365352+1053209823+1053720833+1054134464
2264+1054714752+1055279500+1055355458+1054923383+1054662322+1055101369
2255+1055841198+1056130652+1055897113+1055566993+1055181393+1054443089
2247+1053502690+1052962995+1053035831+1053262761+1053190579+1052924145
2238+1052938450+1053599998+1054768997+1055730964+1055837204+1055271730
2230+1054692458+1054235983+1053643931+1053269006+1053962723+1055751733
2221+1057384033+1057707037+1057100243+1056837222+1057221733+1057336759
2213+1056633239+1055631478+1054946911+1054698849+1054874220+1055319149
2204+1055637069+1055795013+1056241975+1057068437+1057954736+1059081327
2196+1060827419+1062438225+1062355150+1060215252+1057502400+1055976049
2187+1056119396+1057062264+1057534715+1057082960+1056582624+1057342786
2179+1059735322+1062813295+1064910567+1064673906+1062061339+1058281661
2170+1054628119+1051845627+1050491016+1050742346+1051714697+1052538036
2162+1054291972+1058647363+1064137769+1066947130+1066206357+1064445233
2153+1063533227+1063586093+1064436519+1065785102+1066532629+1065687867
2145+1063748103+1062113115+1061406836+1061097775+1060511968+1059786517
2136+1059751370+1060825604+1062252541+1062863184+1062397922+1061624616
2128+1061386721+1061881029+1062734868+1063508392+1063963124+1063914252
2119+1063205286+1062034471+1060898802+1059992098+1059204414+1058795286
2111+1059191197+1059990210+1060183300+1059527853+1058790856+1058626812
2102+1059039789+1059843304+1060894736+1061885677+1062366696+1062158937
2094+1061628683+1061390787+1061710015+1062355078+1062955481+1063197733
2085+1062783086+1061741458+1060821610+1060953411+1062072885+1062901962
2077+1062253268+1060426352+1058960854+1058972763+1060065660+1061115058
2068+1061746759+1062408887+1063170211+1063360107+1062593845+1061320929
2060+1060170883+1059472954+1059323870+1059476004+1059444343+1059194828
2051+1059253358+1059943734+1061063281+1062142235+1062369892+1061020582
2043+1058967317+1058657312+1061260874+1064836570+1066480634+1065608205
2034+1064254103+1064343350+1065582063+1066602124+1067267302+1068464622
2026+1070042097+1070603867+1069420199+1067115168+1064586692+1062763407
2017+1063013720+1065804055+1069278594+1071106527+1071244283+1071307097
2009+1071949763+1072298982+1071534826+1069919373+1068437100+1067860370
2000+1068017660+1068084323+1067575782+1066472428+1064651612+1062239833
1992+1060316699+1060126804+1061628029+1063554286+1064623655+1064544501
1983+1063996819+1063591103+1063237673+1062788533+1062572422+1062804073
1975+1063201146+1063475206+1063696399+1064425699+1066429729+1069474735
1966+1071811427+1071908226+1070102297+1067954991+1066814748+1066985763
1958+1067769889+1068371236+1068599401+1068569918+1068294261+1067813387
1949+1067209135+1066454928+1065708636+1065454474+1065925617+1066745035
1941+1067511442+1068239072+1068887112+1069113825+1068752915+1068115840
1932+1067633731+1067455019+1067501712+1067667716+1067812225+1067632496
1924+1066734360+1065107071+1063546298+1063184009+1064368694+1066006513
1915+1066613888+1065902525+1064634765+1063596695+1063079149+1062897822
1907+1062531466+1061398703+1059406436+1057209025+1055620222+1054882426
1898+1054807993+1055274997+1056128691+1056980134+1057680096+1058672416
1890+1060345746+1062206865+1063344349+1063540198+1063220971+1062647073
1881+1061623672+1059995947+1058032654+1056131741+1054536258+1053498696
1873+1053298344+1053931570+1055005295+1056048376+1056983619+1058030839
1864+1059167524+1060106325+1060706148+1061107215+1061393474+1061481777
1856+1061505015+1061829471+1062503508+1063091712+1063233752+1063060559
1847+1062924328+1062950833+1063031584+1063157939+1063458794+1063853762
1839+1064023760+1063784194+1063407018+1063376228+1063858554+1064588290
1830+1065114695+1065222024+1065129219+1065057110+1064925018+1064612907
1822+1064255773+1064114241+1064275525+1064547696+1064711667+1064799752
1813+1064888128+1064787190+1064307404+1063694438+1063304699+1063125261
1805+1063026864+1063097085+1063438679+1063891959+1064209443+1064296657
1796+1064163984+1063903650+1063674686+1063462933+1063064770+1062544392
1788+1062180940+1062025611+1061826566+1061378951+1060835552+1060531720
1779+1060611599+1060915214+1061229794+1061516997+1061822499+1062022198
1771+1061914288+1061621712+1061446122+1061498334+1061695128+1061895843
1762+1061919735+1061684381+1061420996+1061413807+1061649669+1061936872
1754+1062240632+1062635237+1062968625+1062855631+1062226472+1061479236
1745+1060985290+1060822336+1060835480+1060837658+1060767364+1060662432
1737+1060562365+1060523587+1060654081+1060926542+1061121957+1061123772
1728+1060995457+1060906790+1061000104+1061279900+1061651267+1062066350
1720+1062565161+1063103839+1063389008+1063226563+1062859698+1062533064
1711+1062308893+1062213255+1062331913+1062760430+1063395181+1063930664
1703+1064237474+1064370582+1064218956+1063654353+1062903777+1062214853
1694+1061675086+1061336324+1061198060+1061088189+1060731564+1060030222
1686+1059051626+1057865852+1056657856+1055532282+1054378024+1053211566
1677+1052277920+1051837929+1051792688+1051732488+1051540923+1051550436
1669+1052082869+1052922257+1053713790+1054416003+1055076969+1055584276
1660+1055756380+1055560312+1055114658+1054629426+1054344402+1054203233
1652+1053659762+1052750516+1051913597+1051502435+1051702062+1052244298
1643+1052892992+1053658673+1054421376+1054941900+1055135426+1055121556
1635+1055037392+1054924109+1054819975+1054794050+1054899346+1055110010
1626+1055400190+1055956369+1057036848+1058422902+1059601197+1060553287
1618+1061690480+1063124099+1064283295+1064793725+1064801568+1064468616
1609+1063773374+1062505977+1060318950+1056773754+1051426550+1044203413
1601+1035880190+1027916498+1021518153+1016637227+1011699223+1004730030
1592+995347897+985591419+978729046+977139300+981011348+988797780+998424128
1582+1007995503+1016170005+1022715401+1028642530+1035082558+1041130014
1574+1044984489+1047087352+1048829015+1050853596+1052761408+1054098663
1565+1054983147+1055587834+1055993840+1056377116+1056871352+1057038446
1557+1056603756+1056201091+1056242338+1056819576+1057817706+1058899782
1548+1059723485+1060328100+1061076425+1062177310+1063498661+1065048323
1540+1066908135+1068286709+1068715734+1068614578+1068509573+1068700920
1531+1069060451+1069403133+1069797448+1070280355+1070638433+1070639595
1523+1070329953+1070055676+1070213402+1070860135+1071816220+1072782761
1514+1073438935+1073717932+1073741823+1073448302+1071355605+1061978119
1506+1042289138+1022198581+1009065452+1004612680+1009498762+1021507768
1497+1034814816+1044261289+1049395723+1052184751+1053846970+1054438659
1489+1053266247+1049822933+1044133264+1035783972+1023518698+1006693976
1480+987658481+971234464+961379081+959688323+965968301+977996406+990136996
1470+997163920+999075799+997169366+989948553+974187971+950643934+924607367
1460+899696520+877717467+864072602+865962041+878577623+893283288+907051385
1451+918123624+924571785+925368546+920629297+910478578+894666800+875181148
1441+858267761+851581632+859913641+879857583+898973102+911611268+923032798
1431+938188111+955964560+971603725+983094822+991722821+998659336+1003939877
1421+1007431845+1008610502+1005757571+997632449+984825447+969177350+954231757
1411+944343913+941431944+943809592+948813315+955096561+962323837+970321587
1401+979121545+988532798+997447783+1004778975+1010601752+1015343760+1019089018
1391+1022073969+1024801562+1027600829+1030286159+1032379800+1033710664
1383+1034370759+1034227993+1032688425+1028650372+1020170514+1004527935
1374+981403048+957235878+941537021+939090749+947963833+960983460+969776954
1364+968933863+958727373+947532121+945702082+955451734+971523918+987448761
1354+999675330+1008108714+1014082318+1018607999+1022119064+1024829592
1346+1026951772+1028721828+1030405978+1032271018+1034383540+1036416545
1337+1037940427+1038936960+1039742145+1040630767+1041602247+1042463929
1329+1043012918+1043096429+1042567118+1041358324+1039714187+1038306202
1320+1037968094+1039120247+1041382869+1043921075+1046141289+1047915266
1312+1049348014+1050550417+1051569244+1052411536+1053095813+1053665426
1303+1054118633+1054357400+1054281152+1053917627+1053329787+1052348504
1295+1050494647+1047254663+1042488328+1036665115+1030760425+1025805429
1286+1022339386+1020219240+1018929187+1018022918+1017317437+1016808677
1278+1016447404+1015941404+1014704870+1011946559+1006793244+998401035+986150139
1268+970123777+951921715+935095832+924049881+921648414+927568935+938836660
1258+951850187+963980392+973848048+981050779+985988420+989545380+992579783
1248+995617889+998906817+1002537049+1006391596+1010091395+1013200740+1015531913
1238+1017182731+1018310193+1018924612+1018874723+1018032721+1016484802
1230+1014482878+1012251699+1009958505+1007821802+1006110638+1005040471
1221+1004705123+1005009391+1005622139+1006109041+1006182312+1005762509
1213+1004773456+1003073621+1000815937+998830060+998366760+1000272974+1004383571
1203+1009652639+1014809294+1018913138+1021428833+1022038531+1020638970
1194+1017440451+1012768301+1006686351+999077759+990371333+981892491+974647932
1184+967523192+957668389+943603285+927855339+916274777+914639063+925078656
1174+944575854+966781620+985947971+999436709+1006958885+1008437672+1003347825
1164+992348132+979228220+970039032+969171541+976305576+987349856+997640074
1154+1003867332+1003934867+996567438+982323840+965059273+950696001+942742475
1145+939476930+937138132+935466763+938253467+948500913+964834812+982961932
1135+999174486+1011946922+1021391072+1028258164+1033321143+1037109100
1126+1039852887+1041452582+1041374082+1038490506+1030975301+1016757264
1118+995126631+968830891+944466928+929674848+928746721+940264759+958549823
1108+977201533+991684334+999510125+999232871+990875808+978140117+968462284
1098+968159032+977290054+990733260+1003691743+1014588827+1023674826+1031220458
1088+1037278807+1041881389+1045049554+1046955551+1048058469+1048907660
1079+1049809136+1050735883+1051569026+1052294985+1052879775+1053120793
1071+1052657710+1050869137+1046535748+1037154558+1018431610+986580181+944495612
1061+905223743+884723913+888628639+907655710+926582786+935868702+935180649
1051+929126294+920826309+908633652+889683411+867306195+852438520+855057986
1041+875210413+904069703+932246967+955265324+972806129+985943469+995824559
1031+1003460237+1009588082+1014625208+1018823455+1022338951+1025174744
1023+1027231350+1028331145+1028058756+1025884074+1021778415+1016345304
1014+1009705287+1000287207+985554384+964940688+942448156+925602012+920658417
1004+928280080+943802911+961295571+977060727+990057697+1000477393+1008658575
994+1014968036+1019939589+1024098187+1027638009+1030369379+1031921437
986+1031785859+1029264646+1024102980+1017742105+1013391361+1013840865
977+1019078125+1026479321+1033144319+1037573127+1039407740+1038399443
969+1033901140+1024949412+1010911321+993157892+976627926+968187426+971588185
959+984191785+999442881+1011915479+1019426690+1021716472+1018870947+1011173689
949+999902261+987915838+978688308+973943177+972665977+972949476+973274223
939+970790552+961562876+946685253+936103112+940879686+961563748+987966526
929+1009798600+1023904298+1032141613+1036785588+1039022358+1039321761
921+1037630204+1033245330+1024801489+1010915679+991548466+968689359+944873369
911+920663936+894519169+866347060+840939581+826417421+828395382+845698000
901+871515189+898058991+920294675+936772284+948688194+958539511+968534466
891+979225025+989526209+998074619+1004356993+1008562212+1010786855+1010839139
881+1008918038+1006108532+1003741921+1002233942+1000677818+997377779+990448163
871+977936279+957985801+929851599+895409970+859678650+829440423+810555610
861+805489146+812707853+828358855+848485068+869877588+890054487+907699353
851+922919224+936293878+947871173+957518143+965704844+973251711+980559956
841+987540187+993976221+999550791+1003880839+1006926062+1009088908+1010714818
832+1011840247+1012542170+1013178228+1014096261+1015216534+1016009229
823+1015965804+1015073114+1013753070+1012508185+1011750709+1011654564
815+1011883745+1011529371+1009303711+1003531112+991711348+970386870+937033272
805+894151142+851419476+821318715+810989428+818490038+836335110+857389958
795+877693430+895625862+910337481+921437677+929349811+935165908+940073557
785+944959276+950293772+956107399+962048543+967645407+972682969+977235445
775+981269722+984490462+986739867+988316470+989703831+991016759+991764504
765+991267000+989383079+986691431+983871977+981007644+977499629+972647459
755+966432183+959774520+954132343+951061195+951828692+956752026+964924277
745+974946681+985718645+996308120+1005456425+1011598357+1012998354+1006743501
735+987540405+950670367+900099403+852703793+828866017+836135049+864174339
725+895268656+915199091+913592134+883161979+829117637+776046664+752956923
715+769507005+811592155+857832635+895901737+924161204+944892830+960414645
705+972669608+982828243+991070206+997348877+1002075345+1005933306+1009385841
696+1012578333+1015481516+1017863885+1019301861+1019138108+1015771914
687+1006613734+990976093+973549879+962804348+964185029+975552240+990083404
677+1002349550+1010920834+1016684864+1020649355+1023473675+1025612774
669+1026899197+1026532623+1024531351+1021349317+1016644343+1009661934+999665454
659+985732587+966663108+941598238+911301409+879785982+854289618+841966104
649+845680572+862507254+886112000+910665713+932926087+952102461+968497939
639+982037291+992117208+998653091+1002690635+1005824815+1008983394+1011593928
629+1011762764+1006876900+993996917+971401412+942047088+915078328+901355471
619+906087966+925606805+950816692+973692718+990956850+1003039273+1011527555
609+1017780665+1022700805+1026909218+1030831227+1034573943+1037924233
601+1040673467+1042837547+1044406016+1045071340+1044466289+1042471553
592+1038919531+1032634470+1020260269+996658573+959494506+916084664+883128429
582+875119641+892836762+924303462+956107762+981634989+1000140955+1012995740
572+1022017835+1028991676+1034912124+1039434246+1041855465+1042726224
564+1043242027+1043168320+1041087678+1036480957+1029160802+1016502521+994415558
554+963227201+931362265+911160240+910214975+926167413+949513567+971235626
544+987578674+998935937+1006732391+1012115250+1016050331+1019322775+1022395084
534+1025431520+1028236234+1030131919+1030204682+1027815705+1022907910
526+1015847727+1006285138+991112615+963298367+914379600+843649746+768389999
516+717086468+706771342+732726214+777616078+824508229+864059095+894165883
506+916254008+932713390+945556701+955689121+963146959+967400250+966804857
496+957889437+935360886+895237575+843152242+798551687+782099276+798543917
486+834992554+872850048+901012425+919059230+930783284+938582861+942895118
476+943999923+943526746+944147264+947522971+953083380+959754986+967238385
466+975006010+981977672+987634881+992414069+997030594+1001963078+1007261701
456+1012572669+1017544149+1021584162+1023604750+1023501487+1023219222
448+1024646886+1027366492+1029885745+1032197166+1035132155+1038067944
439+1039369761+1038193354+1035038043+1031531625+1029303133+1028594529
431+1028577973+1028934308+1030388041+1033391945+1036720377+1038049281
422+1036473404+1033542409+1031758918+1032156573+1033479522+1034751348
414+1035833497+1036694017+1037426294+1037822932+1037397828+1036921819
405+1038255297+1041267407+1042700009+1039406796+1032319091+1028000081
397+1032341094+1041075987+1046982056+1049460426+1051958838+1055630969
388+1056903304+1050421376+1035518917+1021119046+1017406611+1023531043
380+1032231659+1039527487+1045976374+1050587961+1048718636
##END=
