##TITLE=CHS- 186.4
##JCAMP-DX=4.24
##DATA TYPE=INFRARED SPECTRUM
##DATE=10/10/2019
##SAMPLING PROCEDURE=Diamant-ATR
##ORIGIN=Marie
##XUNITS=1/CM
##YUNITS=TRANSMITTANCE
##RESOLUTION=4
##FIRSTX=3997.453
##LASTX=373.96442
##DELTAX=-1.4165319
##MAXY=0.64759827
##MINY=0.23765959
##XFACTOR=1
##YFACTOR=6.0312289e-010
##NPOINTS=2559
##FIRSTY=0.63911098
##XYDATA=(X++(Y..Y))
3997+1059669593+1059662675+1059595769+1059647357+1059891261+1060212645
3989+1060380947+1060313350+1060163430+1060143862+1060291114+1060393004
3980+1060256426+1060077549+1060230138+1060663789+1060945445+1060960961
3972+1061035773+1061276811+1061373167+1061133611+1060704506+1060206320
3963+1059671470+1059384379+1059755671+1060677724+1061419616+1061366842
3955+1060665272+1060035746+1060057389+1060691461+1061331462+1061272068
3946+1060391423+1059344848+1058918312+1059213606+1059576201+1059408295
3938+1058745761+1058109218+1058043696+1058621239+1059344156+1059790359
3929+1060152756+1060738700+1061424755+1061889240+1062042323+1062084324
3921+1062235233+1062521731+1062786587+1062841930+1062582905+1062026214
3912+1061369412+1060902258+1060714883+1060717057+1061059096+1062104683
3904+1063673161+1064749384+1064654214+1063787602+1062715036+1061492451
3895+1060140107+1059170024+1059387937+1060869448+1062329118+1062643782
3887+1061963262+1060941986+1060014201+1059422921+1059390210+1059786109
3878+1060104430+1060296154+1060777835+1061550364+1061994293+1061623199
3870+1060647186+1059801724+1059730766+1060566643+1062034417+1063605168
3861+1064800082+1065333351+1064920848+1063391703+1061053957+1058963575
3853+1058447897+1059121104+1059715745+1060158488+1060688595+1061215440
3844+1061508066+1061556293+1061737245+1062469748+1063541722+1064123020
3836+1063885243+1063383006+1063128428+1063227848+1063606058+1064100982
3827+1064381254+1063984366+1062873950+1061977097+1062564523+1064349630
3819+1065341059+1064923813+1064082402+1063457719+1062822560+1061979370
3810+1061230659+1061198343+1062256283+1063674248+1064250507+1063941278
3802+1063418584+1062948267+1062483090+1062168821+1062106758+1062145597
3793+1062114565+1061991822+1061904064+1062119210+1062810700+1063725243
3785+1064222341+1063842847+1062878397+1062079482+1061818184+1061791105
3776+1061781124+1062045090+1062697840+1063471752+1064052557+1064194966
3768+1063820611+1063301672+1063116668+1063181597+1063105402+1062907946
3759+1062893913+1063060238+1063212530+1063474322+1064067677+1064822812
3751+1065035981+1064129938+1062579051+1061283037+1060790485+1061041801
3742+1061270882+1060993870+1060313449+1059394261+1058386723+1057483151
3734+1056797491+1056468991+1056783458+1057801867+1059201846+1060552906
3725+1061561827+1062082348+1061986090+1061247954+1060277574+1059741440
3717+1059775634+1059822379+1059458400+1059045897+1059324490+1060361874
3708+1061628535+1062802103+1063713581+1064178758+1063997115+1063037705
3700+1061627053+1060514067+1060132398+1060288544+1060537192+1060635426
3691+1060700256+1061149028+1062221002+1063368281+1063917164+1063857176
3683+1063549232+1063277064+1063047687+1062777594+1062703078+1063175371
3674+1063759437+1063805194+1063643217+1063670592+1063571370+1063249788
3666+1063249293+1063696583+1064075485+1063987035+1063590740+1063238620
3657+1063133765+1063194642+1062980188+1062157357+1060947422+1060077450
3649+1060316117+1061382161+1062266264+1062636074+1062722152+1062829873
3640+1063113308+1063472938+1063789579+1064186171+1064692163+1064936759
3632+1064800971+1064967989+1065887966+1066434478+1065692784+1064403787
3623+1063252159+1062401459+1062140655+1062774431+1063717238+1063909357
3615+1063210257+1062434270+1062491589+1063476101+1064518031+1064751855
3606+1064404973+1064395090+1064927568+1065261207+1064744541+1063828220
3598+1063574236+1064198623+1064842973+1064775672+1064277882+1064082995
3589+1064545504+1065403221+1065896070+1065611252+1065061775+1064888235
3581+1065097847+1065225037+1065091225+1065035685+1065193017+1065143011
3572+1064638599+1064135077+1064234398+1064983900+1065816613+1066139579
3564+1065922160+1065472301+1065015425+1064495893+1063604378+1062248673
3555+1060993277+1060654005+1061311796+1062065942+1062120495+1061607980
3547+1061061666+1060709348+1060543912+1060711028+1061388881+1062369044
3538+1063056186+1063000448+1062351453+1061638418+1061276317+1061406274
3530+1061873428+1062276641+1062378334+1062335245+1062226931+1061870364
3521+1061401135+1061318813+1061715108+1062135220+1062241854+1062075529
3513+1061758295+1061450845+1061440567+1061804447+1062136109+1061984015
3504+1061397479+1060837428+1060588286+1060494104+1060412473+1060537983
3496+1061021937+1061573193+1061731019+1061318022+1060452794+1059438141
3488+1058744674+1058738645+1059336547+1060136153+1060823888+1061272364
3479+1061373760+1061027669+1060338452+1059660105+1059288023+1059157077
3471+1059008343+1058781239+1058636359+1058652666+1058721943+1058731332
3462+1058695161+1058687552+1058707712+1058636854+1058354901+1057931824
3454+1057609056+1057509439+1057499951+1057454787+1057471390+1057675566
3445+1057970465+1058104573+1057860570+1057210784+1056455353+1056018934
3437+1055946297+1055857550+1055523714+1055147876+1055004577+1055157857
3428+1055574906+1056171720+1056686410+1056773970+1056377280+1055906667
3420+1055874845+1056348126+1056930907+1057189240+1056937528+1056318083
3411+1055774931+1055784419+1056491622+1057609748+1058555717+1058749417
3403+1058121275+1057253873+1056740270+1056604581+1056509510+1056157687
3394+1055427160+1054551061+1054105847+1054401734+1055097771+1055754672
3386+1056396848+1057191908+1057946253+1058313591+1058253110+1058002189
3377+1057744251+1057501928+1057234305+1056927745+1056613871+1056297922
3369+1055947285+1055717019+1055938786+1056540739+1056885743+1056673266
3360+1056458713+1056740369+1057157616+1057142495+1056760925+1056404358
3352+1056153833+1055828989+1055331298+1054654434+1053715383+1052407807
3343+1050812250+1049198311+1047761173+1046452213+1045046008+1043321285
3335+1041317178+1039464869+1038189115+1037322701+1036309728+1035057495
3326+1034124867+1033936602+1034267573+1034647067+1034863201+1034937321
3318+1034965586+1035102856+1035477014+1036045268+1036600772+1036891718
3309+1036841811+1036791014+1037289397+1038460197+1039847328+1040960216
3301+1041597253+1041692917+1041344454+1040941241+1040894891+1041314806
3292+1042087631+1043031722+1043947747+1044811888+1045842551+1047093500
3284+1048143138+1048516407+1048319741+1048142347+1048374393+1048869811
3275+1049252270+1049309886+1049069144+1048723350+1048561966+1048788674
3267+1049294271+1049711715+1049802142+1049745218+1049913816+1050367035
3258+1050749989+1050764417+1050515967+1050304873+1050282835+1050449160
3250+1050841305+1051558391+1052552687+1053493319+1054027280+1054181351
3241+1054265946+1054384440+1054351728+1054121066+1053975692+1054159213
3233+1054518943+1054696930+1054586639+1054424761+1054449270+1054627652
3224+1054731025+1054560944+1054128874+1053702931+1053625154+1054023623
3216+1054675879+1055074349+1054741797+1053804821+1053175789+1053738508
3207+1055278525+1056584322+1056717837+1055913684+1055085813+1054762353
3199+1054865528+1055251940+1055803690+1056128335+1055919416+1055560280
3190+1055683912+1056237539+1056638084+1056731870+1056948894+1057531971
3182+1058139558+1058302424+1057959990+1057462694+1057193292+1057241124
3173+1057389068+1057371081+1057141902+1056894934+1056816960+1056833365
3165+1056606756+1055926828+1055163589+1055072471+1055929200+1057066991
3156+1057512305+1057007201+1056228150+1055979898+1056296341+1056561493
3148+1056516329+1056632253+1057227585+1057778643+1057558358+1056564359
3139+1055452064+1054837955+1054936782+1055579847+1056259775+1056390424
3131+1055898761+1055406011+1055504937+1056040874+1056377478+1056126754
3122+1055370137+1054457176+1053772801+1053422460+1053143769+1052747672
3114+1052428066+1052352958+1052331512+1052222012+1052241383+1052516121
3105+1052721977+1052499518+1051895884+1051173461+1050520217+1050108999
3097+1050065515+1050220574+1050180945+1049759943+1049163524+1048700916
3088+1048385461+1047871266+1046874697+1045553977+1044240867+1042956021
3080+1041545171+1040129380+1039031119+1038351784+1037915563+1037576488
3071+1037369545+1037351164+1037437736+1037468570+1037324085+1036891916
3063+1036026787+1034616826+1032633473+1030193047+1027680180+1025598890
3054+1024219862+1023643011+1024067867+1025484449+1027266887+1028747113
3046+1030025041+1031525330+1033034117+1033931463+1034146312+1034113700
3037+1033957652+1033406397+1032428309+1031401401+1030666031+1030169032
3029+1029455898+1027979131+1025637630+1023016746+1020919643+1019732735
3020+1019354130+1019594871+1020494096+1022187985+1024556071+1027218067
3012+1029873540+1032321181+1034203138+1035220065+1035557755+1035678126
3003+1035768750+1035687317+1035258607+1034437061+1033373883+1032398463
2995+1031789098+1031558140+1031496769+1031348133+1030977928+1030413134
2986+1029590797+1028147532+1025779842+1022748135+1019600208+1016368773
2978+1012483401+1007597310+1002020915+996084296+989498682+981737624+972768508
2968+963074201+953185206+943507701+934457053+926440626+919669910+914148660
2958+909894566+907032544+905627229+905536308+906325143+907057053+906381869
2948+903348087+898026862+890889104+881820964+870290951+856242835+840254750
2938+822885661+804246599+784211116+762831986+740528380+717912730+695494288
2928+673673402+652974545+634012370+617182084+602639834+590677553+582094356
2918+578421857+581747869+593563985+613161665+637359185+662175064+684834198
2908+704366357+720964597+735272184+747995775+759634201+770428300+780578000
2898+790332146+799836359+809140893+818401597+827858966+837630604+847636610
2888+857562270+866835377+874934225+881813453+887724377+892627466+896103201
2878+897799956+897702908+896111304+893667814+891260594+889480033+888036669
2868+885860406+881824521+875244936+865750260+853047076+837015309+817852219
2859+796061376+772522734+748520002+725306548+703794397+685531668+674233503
2849+675133764+691398218+721010848+757648179+794511527+827275839+854446561
2839+876376008+894201676+908966583+921218623+931260799+939505022+946423484
2829+952345278+957485749+962092259+966376397+970316222+973722877+976590334
2819+979194417+981728927+984052639+985967308+987570079+989125414+990701996
2809+992130833+993311515+994411357+995655289+996974626+998038100+998679979
2799+999117584+999700563+1000648706+1002022990+1003658868+1005135240+1006086744
2789+1006591946+1007097939+1007983624+1009202947+1010297255+1010864027
2781+1011075812+1011503139+1012357199+1013251581+1013825665+1014258427
2772+1014965038+1015990168+1016911825+1017347355+1017382833+1017397163
2764+1017621006+1018038647+1018539699+1018929471+1018960503+1018607296
2755+1018189556+1018016609+1018020364+1017925985+1017673186+1017474050
2747+1017533346+1017911754+1018565888+1019314994+1019869610+1020084360
2738+1020086831+1020063014+1020083075+1020156800+1020242384+1020226671
2730+1020102544+1020048190+1020183187+1020453478+1020849971+1021445797
2721+1022147071+1022713150+1023042540+1023189396+1023164788+1022953793
2713+1022624009+1022207059+1021606094+1020789884+1019970907+1019415896
2704+1019147779+1018954178+1018671632+1018339674+1018096362+1018038351
2696+1018180068+1018464590+1018825802+1019267063+1019805076+1020327375
2687+1020621879+1020585411+1020341902+1020125176+1020049474+1020057380
2679+1020157690+1020562978+1021376025+1022308653+1022972274+1023296228
2670+1023474709+1023680170+1023932079+1024113920+1024151375+1024221048
2662+1024570697+1025123336+1025563214+1025783696+1025945574+1026159237
2653+1026382092+1026559288+1026683810+1026764946+1026847664+1027029110
2645+1027358005+1027705085+1027852831+1027777327+1027710125+1027890286
2636+1028393610+1029142815+1029922657+1030490219+1030765748+1030817632
2628+1030703981+1030503956+1030365598+1030347612+1030344943+1030273294
2619+1030226154+1030403251+1030878706+1031416126+1031613779+1031314433
2611+1030783042+1030432998+1030410466+1030450984+1030243646+1029934220
2602+1029973750+1030441398+1030964587+1031299708+1031512779+1031677127
2594+1031880908+1032339167+1033051510+1033581221+1033576082+1033319825
2585+1033425569+1034082372+1034860434+1035282227+1035391035+1035627231
2577+1036261599+1037141651+1037954501+1038523051+1038800457+1038811921
2568+1038768734+1039031316+1039697309+1040365477+1040580721+1040357274
2560+1039942301+1039307142+1038404063+1037755464+1038058170+1039153170
2551+1040049330+1040084018+1039504993+1038907684+1038636108+1038717344
2543+1038924682+1038896023+1038504669+1038067262+1037941258+1037939281
2534+1037408285+1036028072+1034322916+1033164568+1032962665+1033536848
2526+1034492700+1035466538+1036236497+1036805541+1037287717+1037666618
2517+1037776810+1037570065+1037328631+1037474203+1038062913+1038622964
2509+1038685225+1038393093+1038365126+1038984374+1040016520+1040961995
2500+1041587469+1041988310+1042350510+1042832389+1043465176+1044018606
2492+1044195011+1044047661+1043951305+1044094999+1044249070+1044108439
2483+1043719853+1043446103+1043562718+1044036592+1044681832+1045345453
2475+1045881291+1046101378+1045875065+1045321735+1044847762+1044794000
2466+1045046206+1045226070+1045201166+1045089097+1044906168+1044603363
2458+1044377544+1044568379+1045176855+1045695201+1045603490+1044959041
2449+1044295617+1044049044+1044328131+1045020511+1045759735+1046014905
2441+1045566726+1044724130+1043893590+1043181445+1042587793+1042283011
2432+1042356242+1042486693+1042345173+1042231028+1042730894+1043812058
2424+1044860807+1045499820+1045823675+1045995930+1046073905+1046085467
2415+1046026665+1045902440+1045797190+1045774657+1045791359+1045810531
2407+1045877141+1045949185+1045782564+1045243365+1044720572+1044861103
2398+1045747777+1046694141+1047018886+1046722307+1046297055+1046120748
2390+1046118970+1045954621+1045496065+1044941746+1044443165+1043893195
2381+1043232341+1042645903+1042282319+1042058576+1041983863+1042399133
2373+1043514787+1044835903+1045507628+1045262933+1044669281+1044452653
2364+1044787873+1045012407+1044104980+1042031201+1040304105+1040286811
2356+1041448321+1042250497+1042040392+1041211236+1040257854+1039460323
2347+1039046338+1039099803+1039299927+1039187957+1038795911+1038469289
2339+1038318776+1038330042+1038578690+1038982496+1039246956+1039276505
2330+1039247450+1039237370+1039223040+1039312478+1039547982+1039747612
2322+1039898125+1040317447+1041061118+1041684121+1041875746+1041808149
2313+1041706852+1041509692+1041126344+1040757127+1040751593+1041214102
2305+1041861911+1042287458+1042292004+1041961330+1041520761+1041130593
2296+1040805947+1040590703+1040741018+1041472731+1042547076+1043380778
2288+1043572700+1043172550+1042647682+1042704112+1043750390+1045322624
2279+1046388371+1046350916+1045469579+1044423005+1043893689+1044358372
2271+1045676325+1046972733+1047447003+1047228695+1047046063+1047237194
2262+1047468251+1047229386+1046356055+1045239511+1044612357+1044903006
2254+1045792051+1046505481+1046437192+1045534805+1044339002+1043613614
2245+1043759877+1044606427+1045694212+1046599070+1047122555+1047237589
2237+1046874895+1046102564+1045510988+1045802230+1046936069+1048227338
2228+1049149392+1049639473+1049953841+1050396189+1050862157+1050902182
2220+1050547493+1050405578+1050525257+1049994360+1048343262+1046759169
2211+1047043790+1049328960+1051715921+1052675429+1052746881+1053031897
2203+1053273627+1052623249+1051320021+1050415856+1050394904+1050815017
2194+1051059909+1050971855+1050715301+1050460229+1050576054+1051545939
2186+1052960347+1053347747+1052032562+1050312977+1049718535+1050072038
2177+1050316337+1050341439+1051148063+1053514962+1056915589+1059738277
2169+1060557155+1059159153+1056406829+1053385993+1051038365+1050548876
2160+1053127463+1058351837+1063392790+1065480010+1064309309+1061520419
2152+1059202735+1058667490+1059572545+1060409409+1060323331+1059875152
2143+1059700328+1059463737+1058648713+1057373750+1056020318+1054867010
2135+1054193012+1054027280+1053960275+1053761436+1053733567+1054016508
2126+1054170480+1053845142+1053227673+1052491809+1051481800+1050334225
2118+1049800165+1050448073+1051840739+1052821298+1052580951+1051443752
2109+1050653139+1051175339+1052618110+1053705302+1053811442+1053345870
2101+1052695195+1051770967+1050619735+1049635026+1049271838+1049983785
2092+1051791820+1053614975+1054089343+1053271256+1052395651+1052025841
2084+1051798441+1051670757+1051958046+1052343569+1052076342+1051001404
2075+1049655088+1048711688+1048748254+1049934965+1051607706+1052736603
2067+1053049488+1053124597+1053297049+1053217593+1052781866+1052723558
2058+1053813913+1055783826+1057318407+1057164632+1055393658+1053494209
2050+1053069353+1054469233+1056720209+1058619262+1059760414+1060776551
2041+1062487636+1064463676+1065099033+1063649640+1061383248+1060110360
2033+1060169755+1060436784+1059941663+1058765625+1057464275+1056455946
2024+1056222122+1057269290+1059344156+1061296478+1062314788+1062669675
2016+1062823153+1062589625+1061741791+1060723382+1060233893+1060664185
2007+1062254306+1065096760+1068618844+1071704807+1073524503+1073741823
1999+1072246970+1069469248+1066680655+1065062072+1064403589+1063458312
1990+1061728746+1060044442+1059203724+1058979387+1058500868+1057079839
1982+1054959413+1053436593+1053656383+1055277833+1057183706+1059070999
1973+1061019763+1062515703+1063076248+1062742708+1061422383+1058705736
1965+1054749209+1050673398+1047704545+1046112151+1045290209+1044828491
1956+1044754865+1044833630+1044681338+1044413418+1044498607+1045479462
1948+1048052218+1052455441+1057542348+1061073920+1061382457+1059117547
1939+1056832772+1056464346+1057677543+1058773630+1058988874+1059114977
1931+1059861909+1060685828+1060653412+1059820007+1059122785+1059088492
1922+1059266479+1059075348+1058541189+1057929353+1057246362+1056293178
1914+1054996374+1053693147+1053071329+1053457544+1054212382+1054315656
1905+1053412775+1051909819+1050274435+1048613158+1046920355+1045377275
1897+1044111009+1042903643+1041570668+1040421215+1039869367+1039754925
1888+1039480978+1038875961+1038485398+1038916677+1040155569+1041590236
1880+1042740381+1043746141+1044982561+1046456364+1047928585+1049376693
1871+1050912954+1052371241+1053336284+1053694530+1053821819+1054111579
1863+1054649295+1055262614+1055736488+1055959539+1055983456+1056042949
1854+1056346742+1056821111+1057241816+1057422570+1057154552+1056409992
1846+1055644776+1055332089+1055212607+1054806133+1054148244+1053391528
1837+1052561285+1051798738+1051346309+1051321800+1051631918+1051863173
1829+1051532696+1050775980+1050082909+1049421066+1048211328+1046049593
1820+1043034588+1039535234+1035902364+1032355671+1029120876+1026528948
1812+1024915306+1024486003+1025162372+1026581326+1028385704+1030421238
1803+1032590681+1034680471+1036434744+1037724728+1038626226+1039428698
1795+1040505218+1041967655+1043314070+1043845659+1043674195+1043483261
1786+1043611835+1043798716+1043684967+1043273255+1042647286+1041751324
1778+1040623414+1039408735+1038158677+1036733991+1034764968+1031951668
1769+1028293005+1023761109+1018490977+1013074088+1008070888+1003765107
1761+1000471806+998449318+997675505+997866240+998324302+998133270+996353105
1751+991405543+981104342+964414786+941727239+913928869+883327577+854014688
1741+830394612+815776463+810869223+814713829+828113643+850911332+875036511
1731+893975659+909763423+924139150+936275661+945990820+953946271+960190735
1721+964738739+968468064+972524406+976925159+980408207+982649004+984410688
1711+986123256+987722964+989132826+990340982+991191386+991645099+992144075
1701+993295901+995043552+996472092+997322001+997949057+998197804+997991552
1691+997879878+998320645+999100190+999911261+1001124260+1002973308+1004307369
1681+1004404615+1003909493+1003403204+1003220572+1003526144+1004004169
1673+1004205874+1004331285+1004923455+1005886521+1006472267+1006550933
1664+1006681681+1007226809+1007825402+1007968997+1007758200+1007545525
1656+1007567366+1007888453+1007758694+1006001555+1003292024+1000784889
1647+999576831+1000661652+1003299732+1006216800+1009242280+1012348008
1639+1015266361+1018177104+1021659164+1025114639+1027211346+1028203665
1630+1029134415+1030624524+1032495709+1034111525+1035289836+1036384935
1622+1037519169+1038527004+1039671516+1041628284+1044476272+1047115340
1613+1048854690+1049997127+1050973732+1052096206+1053489465+1054747331
1605+1054678054+1051340083+1042259787+1025266536+1000346099+971425749+946061679
1595+931889831+931582480+941361580+954928509+967819069+978436120+986890646
1585+993780843+999580883+1004263095+1007299249+1008167837+1006506066+1002321743
1575+997485362+994801624+995158487+998484105+1003882908+1008526380+1010172240
1565+1009006183+1006125780+1002533331+998806774+995345566+993025412+992016589
1555+991491523+991115685+990799439+990525590+990468172+990821873+991685816
1545+993186401+995287950+997717407+1000904865+1005576502+1010047125+1012784625
1536+1014659268+1016895717+1019539924+1021514382+1022437226+1022940551
1527+1023652103+1024628609+1025702065+1027247418+1029803274+1032819169
1519+1035293394+1037130484+1038655478+1040106452+1041752707+1043741693
1510+1045951854+1048449402+1051353227+1053096826+1052186731+1049500127
1502+1045987135+1042107791+1038025656+1033075426+1026323685+1018460143
1493+1011222175+1006120147+1004750409+1008049047+1014570917+1021902277
1485+1028546396+1033326446+1034593899+1030278828+1018252607+996810672+965734913
1475+927134587+886259271+852179674+830617269+818429367+810886370+806549508
1465+806202627+810226504+817608809+827319718+839530054+855050392+871621356
1455+885283061+896484079+906838449+915661005+919583931+913270584+892805354
1445+860044204+822635827+791170295+774210842+774371881+790638113+818353715
1435+846759622+869104141+887413962+904544582+920065019+932401457+941816084
1425+949613609+956229464+961415494+965637470+969976456+974485029+978172253
1415+980910247+983283866+985632186+987934058+989928974+991236352+991474722
1405+990352347+988047412+985339264+982809795+980197311+976590235+971218806
1395+964365076+957687652+952919461+950225544+948724663+947580942+946163471
1385+943982761+940739861+936268348+930652126+924546513+919107289+915371442
1375+913663421+913458355+913901593+914680446+916053446+918069214+920214247
1366+922044320+923844943+926290409+929469368+932664336+935101205+936104988
1356+934690580+929728393+920771136+908739776+896058531+885961209+880824197
1346+880791881+884120364+888787357+893705072+898621009+903441577+908091077
1336+912732868+917576167+922582728+927526138+932120987+935975129+938600461
1326+939687950+939434756+938545118+937776839+937448932+937389142+937245744
1316+936785508+936083839+935592670+935885691+937192872+939275447+941695812
1306+944085046+946295305+948455756+950829573+953540884+956461509+959352783
1296+962038498+964399270+966284191+967530594+968062380+967886370+966966392
1286+965121594+962091666+957801797+952641067+947404635+942869675+939422798
1276+936983162+935032520+932588734+928310032+921010099+910397396+897348615
1266+883460103+870416461+859581299+851727937+846900154+844521889+843599638
1256+842810804+840676937+836017852+828322958+817712824+804759460+790401374
1247+775776356+761996010+750093026+741064565+735825267+735111541+739336185
1237+748351799+761363569+777187750+794607883+812561631+830201406+846870901
1227+861882380+874143710+882199075+885232264+884387888+882768712+883557744
1217+887871727+894320268+900442681+904667127+907410458+910574790+915806280
1207+923084076+930900280+937580767+942344510+945391634+947390898+948965109
1197+950385644+951438444+951578976+950414106+948089306+945115315+941934972
1187+938858991+936188101+933768132+930136250+922531042+908525223+888406478
1177+866509743+850034640+845273960+853492290+870138560+888445416+903798836
1167+914816728+921376943+922964693+919321546+911956486+903955773+897811321
1157+893596560+889345925+882969725+873908997+863596529+854716555+849736974
1147+849654454+853773057+860444551+868082076+875818526+883520486+891303287
1137+899017501+906129169+912047802+916557264+919909466+922564544+924943698
1128+927351610+929895113+932378134+934395879+935672917+936309757+936630153
1118+936790153+936664149+936126532+935226122+934012332+932458283+930720119
1108+929210936+928218024+927646608+927304272+927218886+927519912+928196282
1098+929164784+930466925+932259246+934585923+937232304+939864355+942208129
1088+943855768+943903304+941090696+934642946+925165761+914524893+904159059
1078+893140080+878523117+858595404+836142077+818230330+812052278+820041824
1068+838351545+859568847+876639183+885198366+884419216+877077480+868393676
1058+863602657+865460796+873082904+882813381+890565150+894038414+893683034
1048+892170985+892481202+895648697+900100741+903156166+903156561+900511959
1038+897040473+894160465+891557370+887706390+881664422+873793765+863814047
1028+848400046+823282351+789927895+758581647+741675017+743987760+760457773
1018+782662848+805479215+828088096+851454879+876120442+900991960+923267498
1009+939676387+946129968+935179080+899454711+844447374+794385523+775970551
999+794665054+831554344+862444704+875027517+869414754+850456037+824120945
989+797878602+778447098+767202695+760438699+755201625+751727225+748898607
979+741936908+728532944+714691375+710491141+720718618+741382638+763082412
969+775111598+769289816+745662922+715672181+696024790+696773452+715381482
959+741677537+766690180+786805762+802239231+814199634+823765367+831985426
949+839800839+847662602+855466551+862936565+869939128+876392512+882098864
939+886918049+891024299+894755303+898187159+900991960+902807505+903725210
929+904270042+904843533+905384214+905635925+905540063+905401410+905925290
919+907928902+911678783+916604306+921803183+926600626+930574547+933484993
909+935550471+937635319+940761900+945284308+950699913+956261385+961438422
899+965480039+966442611+961180978+947856866+929493580+913719060+907280599
890+911122586+921079870+931895464+940250076+945275018+946168906+939586751
880+922741839+900482607+884773807+883937733+895261197+910029958+922426483
870+931716390+939211309+945968189+952430961+958622948+964340171+969281408
860+973165297+975881153+977318786+976885332+973483222+966285773+955677813
850+943579548+932806054+925724132+923170549+924469330+928207153+932793799
840+936525891+937546474+934042079+924880449+910481695+892903489+874637448
830+857772870+844957517+840199110+846906281+864670578+888776387+913097440
820+933003213+946073439+951914690+952266612+950369831+949003453+948590555
810+946576368+937952948+916663799+877652552+818767157+742041911+654376600
800+567053129+493373179+444630912+426048280+435051590+462634814+496758784
790+527069675+549838951+569871173+596333455+634745565+682511573+732123219
781+777531321+816970636+851407738+882221706+910300249+936083839+959465050
771+979138877+992576047+998290898+998648256+998759436+1001580049+1004624801
761+1001105878+983753787+949647013+903811090+857321034+819833052+793403482
751+773105910+752350673+727645579+700268853+674894011+656058383+644562219
741+636874144+628279285+616318585+601012603+582974210+562606718+540744770
731+519026565+499327537+482786715+469350336+458514383+450618525+447301160
721+450786975+462298260+480284818+500851346+521299530+542613830+566873117
711+592436767+613069312+621428222+612183034+583102833+536681510+482074026
701+433150412+402135727+394048368+406461051+432953895+466061976+499303374
691+528957215+554227993+575683418+593925888+609438518+622832797+634788406
681+645723185+655473971+663173905+667601687+668125765+665695864+662882021
671+662723947+668184073+681059908+696166804+704341798+703930778+697230426
662+687216613+677880504+672062873+670809948+675398225+686716254+702597902
652+718204071+729447486+735109120+736036658+733174043+726966343+719071918
642+713289666+712948023+717846911+724982644+731773965+737823889+744179780
632+751562382+759428147+766837086+773665467+779715292+782511099+777805812
622+764305393+747655219+737625989+739952073+751421257+764014546+772730567
612+777888925+781670726+784830315+787062909+789122062+792673894+797986916
602+803478419+808071341+812509104+817647648+822765142+826585189+829119847
592+831483386+834206358+836658446+838138178+838816723+839538652+841032516
582+843335376+845914950+848311300+850580163+853030077+855436606+856691508
572+855707490+852602355+848554414+844556577+840370575+834325543+824434967
562+810610297+795604352+783196957+776055344+775348387+780740174+790141163
552+800583489+809774026+816631117+820913080+822900238+823369714+823729493
543+825709485+830290152+836754901+842841835+846042733+845163670+840402891
533+831502756+817152724+797508101+776010230+757774924+746775216+743808834
523+746410496+750974462+755017511+757990416+760505457+763311839+767284227
513+772999968+779532265+785149673+789844683+795338459+801917649+807363346
503+809679992+809339584+808404189+808254417+808825487+809650690+810998044
493+813424042+816379504+818602116+819871792+820830807+821642866+822369934
483+823796299+826383039+829449236+832411863+835581532+839061417+841812852
473+842413026+840800965+838878983+838703269+840726746+843889299+846789567
463+848936181+851336682+855807898+862632771+868599038+870149629+868512367
453+867221196+867618974+869339052+872047596+874784997+875937514+875731460
443+876406446+878677385+880935378+882575011+884862652+888367145+891495603
433+891989342+888550271+880583258+868155800+852709681+837119967+825428126
424+821520765+826070302+834913562+839610597+833905134+822869947+814503971
414+811118118+810765159+810109543+808381755+808094071+810839625+815332583
404+820086147+824805814+828954460+831037085+828483304+818576817+803514639
394+792585296+794764671+809971037+828246268+838320909+837012641+830099516
384+824539229+821279826+818269021+816165939+818960610+831556320+853932958
374+873309218
##END=
