##TITLE=X9657
##JCAMP-DX=5.0
##DATA TYPE=LINK
##BLOCKS=1


$$ === CHEMSPECTRA SPECTRUM ORIG ===
##TITLE=X9657
##JCAMP-DX=5.00
##DATA TYPE=INFRARED SPECTRUM
##DATA CLASS=XYDATA
##ORIGIN=Default
##OWNER=
##XUNITS=1/CM
##YUNITS=TRANSMITTANCE
##XFACTOR=1
##YFACTOR=1.0209154e-009
##FIRSTX=3996.5625
##LASTX=399.65625
##MAXX=3996.5625
##MAXY=1.0961995627247743
##MINX=399.65625
##MINY=0.8751968545476658
##NPOINTS=1765
##XYDATA= (X++(Y..Y))
1765I90847482I90891387I91115695I91746589I92078090I91673609I91429333I91972182
1757I92676755I93018882I93042470I92781378I92350157I91852029I91113828I90502552
1749I91100049I92473230I93284761I93546086I93369533I93026355I93237821I93784057
1741I93910633I94218664I95405485I95347568I93416474I92323535I92521455I92936911
1733I93442163I93787443I94204886I94805769I94580409I94327724I95353406I95986634
1725I94588933I92802512I91925358I92103428I94732089I99488478A002837358A002816339
1717I99677757I95519449I94474968I97242231I98958590I98306095I99479254A000668409
1709A000572778A000456011I98089726I96836932I99218862A002893173A005464267
1702A004241716A002468724A002572995A001001662I98480896I99089017A004777093
1695A013371732A011715392A001714876I96143803I96357486A000037401A004546127
1688A008545282A009727432A006688920A003048005A000456710I99085749I99163048
1681I99995248A003537260A009114172A009281382A006480841A003577544I98702403
1674I95638201I97583541A001820901A002989856A004352642A005618516A002886751
1667A000367033I97982767I95261860I94081696I93872683I94127469I94577839I95015132
1659I96452418I96648470I94235479I92942167I94913545I98670876A000419813
1652I99770587I98169478I97683143I99768720A001240568A001776062A005773466
1645A013028437A015347081A012363682A012532761A011455468A005308265A002915825
1638A007062107A013230325A013507648A006638360I99362487I96435604I97533331
1631I99682312A000006107I97978796I95667160I95950085A000300827A004403204
1624A002072534I97350123I95330636I96138665I96360522I94750421I93552391
1617I94090104I97876158A004367941A006875162A001123568I95021671I93567805
1610I96320238A001816347A008419990A010420795A008331132A007880411A003659048
1603I96403726I92537569I91450234I91388581I93017831I94948575I95854454A000777587
1595A010103656A010953720A000426235I92160293I90285833I90913806I90605658
1588I90385318I91755463I95441332A000812851I99877313I92696372I89501742
1581I92646278I97780760I98613542I97402085I97464672I97255892I96232195I93852833
1573I90156687I88047991I88556746I89546813I89634856I89093523I88501397I89234461
1565I91996352I93344428I90600753I87585361I86366196I85852771I85034817I84248158
1557I84301287I86237051I90062808I91961439I89505128I86471987I84738812I83605822
1549I83212783I83802225I83775835I82573952I82248289I82631517I81943526I80763128
1541I80220512I80065795I79855848I80067664I81169011I82458236I82507745I81596844
1533I80941432I80040807I78726535I78162434I78645791I79174279I79059438I78276749
1525I77629742I78685258I80599187I80369038I78355975I77094949I76572592I75876894
1517I75681834I76028516I75657196I74900312I74778641I74355886I73349704I73392149
1509I74008329I73674375I73086453I72845329I72825770I73232353I73637243I73398046
1501I72953864I73199191I73622705I73039512I72079570I71938340I72332721I72605139
1493I72318884I71609408I71254319I71251517I71229740I71419486I71995673I72530233
1485I73022873I73740699I73984683I73437454I72896414I72801074I72899567I72831492
1477I72568824I72448437I72481950I72197563I71786193I71918081I72267682I72301836
1469I72116877I71556337I70913067I70808561I70853750I70813757I70937121I70937764
1461I70381602I69366721I68619003I68289370I67840926I67282254I66608916I65771580
1453I65269365I65097542I64594977I63765989I63388189I63399399I62836640I61749422
1445I61036734I60819255I60393698I59731512I59568038I59810738I59486184I58315419
1437I57171510I56602680I56470908I56103325I55074315I54152615I53632242I53592133
1429I54115191I54208196I53468301I52518343I51716036I51170150I50880685I50199407
1421I49263227I49281910I49777528I49841867I49701513I49298841I48941301I49186862
1413I49515970I49306548I48887413I48642494I48580490I48747117I49282494I50077794
1405I50456003I50239283I50088070I50533478I50955182I50628118I50717503I51761342
1397I52943550I54264828I55300552I55242110I54684313I54782164I55487321I55845504
1389I55681504I55446919I54978333I54701537I55444525I56231769I56398571I56949361
1381I58033718I58838711I59204483I59640141I60348392I61095818I61609359I61586298
1373I61051154I60773833I61271727I62014366I62713392I63471269I63896242I63993042
1365I64356246I64896878I65102096I65262008I65813032I66072080I65522224I65142731
1357I65632335I66368143I66771573I66992847I67355700I67996576I68548943I68506556
1349I68517007I68968779I69173705I68979171I68544623I68198700I68418281I69237402
1341I69881313I69752986I69881430I70553074I70569830I70033578I69469651I68844364
1333I68460025I68236883I68085378I68019930I67663557I67530267I68535923I69733837
1325I69657062I68870811I68387688I68195080I67563312I66410763I65796101I65628015
1317I65391795I65345672I65462614I65711854I65882917I65609682I64915911I63813104
1309I62781818I62671706I63031816I63001340I62846448I62744744I62670130I62778957
1301I62569185I62113968I62120974I61971279I61114442I60102247I59201097I58163038
1293I56988361I56091473I55589959I55496370I55956082I56713316I57492795I58257736
1285I58773496I59086373I59508428I59856160I59736766I59111011I58659707I58789318
1277I59046322I59142480I59119594I58973810I58617729I58210679I58060516I58226034
1269I58325052I58194273I58301465I58476791I58051000I56890452I55038877I53552957
1261I54343704I56784719I58541422I59337131I59648665I59198995I58671792I58883607
1253I59235251I59221298I59066056I58977488I58956237I59072245I59252416I59351668
1245I59561207I59651643I59528921I59525067I59426574I59133255I58959331I59048716
1237I59548187I60708793I62352465I63625168I64454739I65676707I67013398I67891077
1229I68481802I69072176I69457741I69180594I68907126I68949396I68889319I69111468
1221I69468892I69563824I69597278I69566860I69632424I70014778I70594468I71438519
1213I72434776I72945515I73126270I73505004I73665384I73586157I73536473I73299085
1205I73045467I73066719I73226398I73352331I74163279I75922841I77156544I77422422
1197I77526228I77425809I77365207I77877113I78473910I78676559I78616482I78534746
1189I78750823I79252221I79613673I79728338I79962924I80447506I80747831I80661074
1181I80415162I80156873I80302131I81033444I81456608I81182788I80899861I80841362
1173I81017097I81352100I81413638I81327112I81461162I81693178I81848712I82078743
1165I82479838I82789971I82942002I83142024I83286814I83278173I83257623I83171916
1157I83204027I83523618I83589358I83491391I83861075I84366441I84409996I84115277
1149I84004465I84148205I84313197I84536572I84675641I84385359I83966633I84032489
1141I84391430I84581178I84562728I84507030I84568100I84829074I85155905I85161393
1133I85083510I85175639I85087013I85023375I85317860I85681240I85833620I85885232
1125I85967320I86078832I86232147I86445130I86612340I86386630I85836540I85620520
1117I85873439I86046137I86093544I86313767I86371450I86168276I86149125I86266009
1109I86449683I86881022I87112920I86897369I86795198I87034687I87528495I88068426
1101I88082205I87375414I86750243I86913833I87207035I87004445I86692560I86575559
1093I86833498I87143047I86755147I86136982I86095530I86421193I86458675I85994058
1085I85767414I86328013I87284451I87922466I87989725I87730502I87190688I86842022
1077I87029316I86826025I86194198I86364327I87020090I87345404I87657523I87691735
1069I87381135I87237045I86941389I86720117I86852763I86996621I87399351I87689050
1061I87161846I86364911I86455990I87516702I88199439I87871907I87160679I86811662
1053I87263317I88087109I88409502I88409853I88865712I89113725I88183792I87098209
1045I87192672I87950375I88274520I88236337I88292851I88132648I87774056I88244277
1037I89320870I89533852I89146303I89003263I88667675I88247430I88243692I88628206
1029I89649102I90650146I90555915I89931795I89409963I89230140I89660895I89442073
1021I87939165I87199562I88148527I89175610I89170474I88714381I88788528I89342238
1013I89698378I89651554I89697443I90162293I90599119I90505120I89882285I89238665
1005I88764942I88517279I89135327I90347835I90841294I90645007I90753835I90916375
997I90473360I89978151I89892093I90122359I91021115I91762703I91431668I90859509
989I90462151I90278009I90556381I90886015I90692416I90262362I90141625I90230135
981I90452109I90953857I91396404I91377488I91311280I91064786I89843285I88082555
973I86267411I83929034I81042785I78312888I76746341I76385122I75819269I74547851
965I73341881I72658501I71767394I70682744I70963335I72710755I74762936I76836077
957I78562478I78614789I76866845I75646629I75988231I76698875I76617897I75829661
949I75411577I75674945I76597989I77681412I77760463I76848921I76928790I78846864
941I80649864I81177768I81182439I81419476I82300133I83980760I85708213I86580929
933I87044379I87867586I88895254I89519490I89782216I90146413I90643723I91247992
925I91625268I91502544I90825297I90105544I90194637I90477913I90777422I91681783
917I92773087I93511406I93568155I93246462I93322593I93244477I92029982I91170342
909I91713777I91322256I89811525I89748119I91032208I92178626I92860545I93508020
901I94189356I94145802I93478361I92852256I92725330I93372453I93867429I93436909
893I92805432I92290373I91444162I90611963I90668478I92326571I94527280I95567908
885I95976476I96007185I95183978I94132023I93286746I92753354I93936905I95898942
877I94498788I91715178I92779860I96299453I97457199I95105744I92457116I92319098
869I93884242I93557763I91931197I91818399I90726278I89554287I92199995I94530549
861I92163914I88501397I88427017I90690664I91563264I90063857I87792155I87357664
853I89636257I92956062I94973797I94643345I92709566I90770415I90019370I90307902
845I90944048I91898503I93841974I96037545I95953005I93356923I91011423I90910069
837I92056255I92612532I92611949I93232800I94586596I95357727I95488272I95152566
829I94144867I93861941I95256139I97459883I99043596I99157444I97956495I96525514
821I95410739I94070837I92624326I92100393I92637404I93042001I93747743I95699037
813I97060658I97100474I97534031I97839611I97496432I97240479I95124543I92205366
805I92315595I94442389I96068020I96182453I94819898I94279266I95766879I96235230
797I93757084I90159257I88350302I90377845I92376197I90599703I89492868I92509661
789I96804588I98472021I97850820I96600244I94963872I95166112I96962340I97138892
781I97108999I99496652A001320437I99087033I96650221I98300490A001061214
774A001920853A001874147A001271744A000349986A000140623I99764866I98243742
767I96785321I95767462I94754158I95215271I97520370I98347664I97345218I97830970
759I99481823I99215828I96590437I94476368I94271560I94838697I95322463
752I95327718I94544911I94541408I96153611I97189218I97608762I98651259
745I98290565I96801668I97231487I98786592I98575944I96595341I95210133
738I95777154I97227050I98027606I97917610I97439800I98417374A001013924
731A001111191I98245259I96298986I95972389I96515472I97394261I97984519
724I98795466A001036109A004481789A005298341A002024192I99239530I98762421
717I98992685I99421688I99973996I99816711I99126617I99237428A001092390
710A003903908A004033753A001619478A000690361A000862010A000486720A001023614
703A003812596A005403665A004591666A003891064A002187433I99990109I99081896
696I98735448I98328748I99149270A000683239A000251084I98408033I97744796
689I98791846I99643545I98345329I96715494I98175900A000583754I97954977
682I93458394I92181429I93120236I94225437I94335548I92976029I93022269
675I96196815I97471444I91992734I84852778I80098490I78035741I76138861
668I72560651I69088173I65246362I62354976I62615950I62921646I59423597
661I54417909I51270570I50100214I48420987I48049842I53782346I60092263
654I58469902I54498128I51620404I50997101I52519744I56828624I65313678
647I72060479I68924115I62691615I59354179I59884360I62440157I62670130
640I62307101I63332374I59266779I49938433I37400394I27024531I21794009
633I19622083I21293545I21976574I10244170H96023167H87688918H83394167
626H78338854H73968846H71126035H64333053H58200972H57820019H58492539
619H57266777H59093715H67830810H82261118H86360868H84838459H88824069
612H88683481H83364099H82478538H87585404H97207185I03807736H99951153
605H96219336H97643894I00936959I03811005I04579916I01875065I00881144
598I01700557H97086156H90819793H88265514H87813041H87517971H88141682
591H90581355H94443367H99357276I04866579I10400462I15596538I19935836
584I23074068I25718141I28826247I32658717I37633520I44469823I49512700
577I47005828I45021430I46786364I45298577I41471128I40387821I44714800
570I56118797I57520702I43788136I33722232I28084776I24354127I21885437
563I23124920I29227342I37092129I34030146I19956445I12459066I09650701
556I04799613I01795314I03241999I06734619I11651738I14866919I13607820
549I11909560I09769512I08708391I12753552I23771459I35729691I31900957
542I23685986I20756358I20093005I18688297I18657178I24802746I37069068
535I46584766I47397114I45986335I46407806I47886077I50271453I55073323
528I61122674I61914005I55407218I50703082I50258258I47595910I41807767
521I39362431I36713162I23263581I10855153I07608854I09022144I10379911
514I09110945I06881161I05577983I06166197I08466508I08585552I07042650
507I08234842I10672646I12478449I15978075I21397468I28204229I36220521
500I40021698I40416487I42573175I46302715I50516722I55173567I58921323
493I60796135I63417147I67251778I69675920I69189293I65534484I61700204
486I59422604I56381581I51882488I48646989I47474356I47429984I48552817
479I49688318I48634787I47154706I46310714I46038938I48724698I52501003
472I53144273I52200153I51332106I50233737I49144242I48243325I47386080
465I47477976I49933879I54846036I60196595I63410725I64526026I64423854
458I63432385I62283281I61359128I60822583I61001178I61831684I62588510
451I62630137I62310954I62002456I61370279I60678200I60775059I61789940
444I63381300I64905110I65739586I65945796I65680034I64924201I63747189
437I62374125I60890425I59611125I59072420I59088300I59388742I60089811
430I61006316I61761799I62162485I62162894I62042507I62157289I62320763
423I62309670I62393509I62638953I62596100I62038362I61254212I60182816
416I58383961I56202869I54183441I51942331I48944453I45337519I41895517
409I39628251I39259851I40947310I44112165I47120201I46497833I39770007
402I31232466I26143115I21678643I13029473H99851025H84591204H70822091
395H61801718H59094240H61853154H67419148H73230236H78153661H82077034
388H85178368H87908849H90650948H93261451H95258401H96999106H99861826
381I04316782I09443206I14270473I18370223I21794593I24575751I26730687
374I28430932I29593173I30554399I31846719I32981111I33197539I31981293
367I28998712I24755689I20071753I15206420I10144275I05402365I01837175
360H99775710H99203143H99730405I00669154I01873839I03230673I04173508
353I04894895I06338136I08957221I12465079I16167237I19801496I23487715
346I26933745I30434013I35108607I40893189I46550145I51491085I55788813
339I59088709I61033523I62280828I63774396I65950759I68853530I72283737
332I75535992I77829823I79529833I81209412I82833292I84368078I85683925
325I86804772I87993462I89074374I89639293I90060939I91014576I92311041
318I93196135I92890322I91413335I89422924I86856617I83611661I80059957
311I77066458I76802623I80236976I85043458I89084882I92137992I93830297
304I94162732I94369060I95260110I96490834I97401851I97921231I98326997
297I98800486A000137820A002445371A004206452A004847269A005118403A005374005
290A005390236A004748485A003186959A001248275A000420629A001291128A002919912
283A004896544A007282914A009574234A011503109A013150108A014434313A015438041
276A016130237A016312628A016744315A017851501A018705651A018973516A019078956
269A018998153A018159182A016628249A015537761A015536711A016378717A017756218
262A018891544A018931363A018007969A016187569A013871729A012204294A011398719
255A011097694A011667634A013573739A016133624A018356869A019706578A020055011
248A019600204A018160116A016264870A015220389A015213383A016163750A018384776
241A020964160A022692663A023333364A022840840A021987040A021699676A021452480
234A020985878A020761686A019930772A018046385A016832825A017379294A018818331
227A020141770A021037724A021682395A022297057A022168496A020880906A018834794
220A016018608A013159215A010621985A007650729A004528963A002039605A001432533
213A003631958A006822151A009262699A011334613A013283106A014820927A015759619
206A015852097A014789635A013397303A012792334A011653388A007281628A000056083
199I94025531I92160645I94469712I99848822A007186463A014001456A018014624
192A020325328A022658217A024784896A025084403A023160199A020943960A019322532
185A017872051A016762531A015480312A012421598A007303230A002295909I98328048
178I94135876I90595032I88268098I85182645I81375103I78002580I74926994
171I72841242I72581143I73402191I75220896I78531243I81655695I82962669
164I83883611I85711833I86602766I84554320I80130251I74649730I69728290
157I67683057I68564998I70084838I69268228I63648404I53259580I40600863
150I28963331I19323743I11832669I09814817I14641209I23361665I34171493
143I45218008I53344703I58075346I60626122I61840909I62438230I62415344
136I62086586I61695358I60229114I60424991I67071723I72946799I75912391
129I78222218I79147247I78649177I77868064I76884827I76793632I78499015
122I80995728I82819980I83002836I82777826I84601144I88227930I90756170
115I91224757I91296335I91530803I91814080I92821313I94486178I95355625
108I94482091I93949865I95554012I97557266I98030408I97004493I96055527
101I95450557I94774242I94505793I93829947I93507436I95368002I96850243
94I95872786I94161915I91590471I89020427I89037242I90996127I93002769
87I94297482I95175569I96517341I99119144A001403108A001295215I99732639
80I96961755I93109961I91265625I92759426I95505788I97061709I95794202
73I93470421I91569570I90584523I92710850I95603288I98289748A003480277
66A007090949A005762607A002899595A000285531I98488252I99696441A002671782
59A005348317A009491562A013821753A016217696A019301281A022863260A024200593
52A024586392A023036308A016870541A011440872A012494811A017110030A019590396
45A020495574A024135554A028170323A026944619A023050670A021047415A020426214
38A019925167A018264155A014623007A011575738A012998427A017007742A018357218
31A020313418A026962601A031141928A030228926A035472234A047252280A052001547
24A047998538A044453023A044737001A048098257A055145031A064287077A067914796
17A065225067A064627336A066812748A067828971A067512650A069638043A073741823
10A066859572A056978042A057313865A062324106A065680808A063369054A060281849
3A063782526A069381156A068940595
##END=


$$ === CHEMSPECTRA PEAK TABLE EDIT ===
##TITLE=X9657
##JCAMP-DX=5.00
##DATA TYPE=INFRAREDPEAKTABLE
##DATA CLASS=PEAKTABLE
##$CSTHRESHOLD=0.93
##MAXX=3996.5625
##MAXY=1.0961995627247743
##MINX=399.65625
##MINY=0.8751968545476658
##$CSSOLVENTNAME=- - -
##$CSSOLVENTVALUE=0
##$CSSOLVENTX=0
##NPOINTS=63
##PEAKTABLE= (XY..XY)
407.8125, 1.0856098431120316
413.9296875, 1.079428007412021
442.4765625, 1.0665880932707155
468.984375, 1.0327332491905652
493.453125, 1.038383293121462
524.0390625, 1.0193720331858809
540.3515625, 1.01347379451209
556.6640625, 1.011998342053125
583.171875, 1.0097061848388758
648.421875, 0.998964713298331
668.8125, 0.9805126638567614
697.359375, 0.9288439578234818
719.7890625, 0.990010545076666
750.375, 0.998457895161732
803.390625, 1.0148159725910775
831.9375, 1.0246233218543532
866.6015625, 1.038100290268005
897.1875, 1.0364541295240906
917.578125, 1.0322452067090877
935.9296875, 1.0376366844175418
982.828125, 1.022189783170935
1031.765625, 0.9975021937956532
1129.640625, 0.9180103364171022
1201.0078125, 0.877062539667296
1229.5546875, 0.9589048464876054
1282.5703125, 0.979131803293268
1305.0, 0.981906161311076
1327.4296875, 0.9814663387057712
1347.8203125, 0.967201038817632
1368.2109375, 0.9661031811075956
1378.40625, 0.9672458610873536
1433.4609375, 0.92601380984181
1441.6171875, 0.9245185087456382
1451.8125, 0.9265918562249517
1482.3984375, 0.9662023038256125
1494.6328125, 0.9378712603407412
1512.984375, 0.9277143904811214
1529.296875, 0.9206567237104356
1547.6484375, 0.9411670396690298
1563.9609375, 0.9600564084313434
1606.78125, 0.9060807643706534
1619.015625, 0.9197234334792176
1631.25, 0.9149641219001744
1641.4453125, 0.9009359296136852
1649.6015625, 0.9033452093053687
1659.796875, 0.8751968545476658
1663.875, 0.8757616678253926
1688.34375, 0.9388563467147782
1710.7734375, 0.9794194553954566
1725.046875, 0.9708875857662554
1737.28125, 0.9678786836653668
1751.5546875, 0.98274944764063
2018.671875, 1.0090220439064508
2212.3828125, 1.0113310084509302
2324.53125, 0.9982107141878303
2330.6484375, 0.996081576744653
2340.84375, 0.9964014152466574
2359.1953125, 0.9909849618638576
2924.015625, 0.9790163489915974
2968.875, 0.9743041843066416
3025.96875, 0.9759502858374628
3276.7734375, 0.9691616741740392
3437.859375, 0.9915684915836126
##END=


$$ === CHEMSPECTRA PEAK TABLE AUTO ===
##TITLE=X9657
##JCAMP-DX=5.00
##DATA TYPE=INFRAREDPEAKTABLE
##DATA CLASS=PEAKTABLE
##$CSTHRESHOLD=0.93
##MAXX=3996.5625
##MAXY=1.0961995627247743
##MINX=399.65625
##MINY=0.8751968545476658
##NPOINTS=202
##PEAKTABLE= (XY..XY)
3984.328125, 1.0121654740714283
3965.9765625, 1.0112193090761008
3953.7421875, 1.013795898425367
3937.4296875, 1.013078378663939
3921.1171875, 1.0151244860785495
3910.921875, 1.0126718736327132
3894.609375, 1.0152748097457072
3888.4921875, 1.019186066299363
3876.2578125, 1.0176861751675528
3859.9453125, 1.0193645233321984
3847.7109375, 1.0169785490972663
3811.0078125, 1.0164623722291954
3788.578125, 1.0146599277140183
3774.3046875, 1.0137099495996718
3762.0703125, 1.0185500850091023
3727.40625, 1.0172764532319016
3717.2109375, 1.0164919369182641
3704.9765625, 1.0161483743841944
3696.8203125, 1.0143329366787215
3682.546875, 1.014348673068697
3660.1171875, 1.0121238697270474
3641.765625, 1.0109980573115283
3635.6484375, 1.0110996230800973
3623.4140625, 1.0101975667346268
3615.2578125, 1.0182631485686091
3603.0234375, 1.0087134099509614
3592.828125, 1.0091762991188138
3574.4765625, 1.0048341019238332
3556.125, 1.0037770716415582
3547.96875, 1.0027924048637507
3535.734375, 1.0003499250032593
3517.3828125, 0.9986210925720836
3507.1875, 0.9980772591058268
3490.875, 0.9960886098308436
3478.640625, 0.9937077023990416
3466.40625, 0.993172810109858
3458.25, 0.9933035832471057
3448.0546875, 0.992266819156436
3433.78125, 0.991543398503996
3415.4296875, 0.9931475975831396
3407.2734375, 0.9927875850392298
3401.15625, 0.9921114899410722
3386.8828125, 0.9911134103767394
3382.8046875, 0.9911187150531579
3352.21875, 0.9835378383282106
3335.90625, 0.9796377873419853
3313.4765625, 0.9735368938985483
3295.125, 0.9691174470979959
3282.890625, 0.9687887878869355
3270.65625, 0.968420430380546
3258.421875, 0.969959542019278
3252.3046875, 0.9705108853392173
3238.03125, 0.9746519172801202
3223.7578125, 0.9746695015269699
3195.2109375, 0.9808688020267282
3166.6640625, 0.9853290772759574
3150.3515625, 0.9887632580213624
3138.1171875, 0.98844896308998
3129.9609375, 0.9900357576033844
3105.4921875, 0.9877665495464119
3081.0234375, 0.9855362628681488
3064.7109375, 0.9828063697996724
3054.515625, 0.982804760837002
3048.3984375, 0.9822369664863072
3028.0078125, 0.9754809587770981
3005.578125, 0.9787104582357878
2989.265625, 0.9780987349163464
2983.1484375, 0.9782352894975042
2970.9140625, 0.9734968985168378
2956.640625, 0.9787227959983968
2944.40625, 0.9790131902793499
2924.015625, 0.9790163489915974
2895.46875, 0.9891722061031404
2891.390625, 0.9891540266626127
2881.1953125, 0.989845738703644
2854.6875, 0.9933971021604918
2834.296875, 0.9978071912504878
2824.1015625, 0.9990011916264884
2803.7109375, 1.0006572460615442
2791.4765625, 1.0013560514227748
2783.3203125, 1.0018519610783247
2758.8515625, 1.0037353498919064
2750.6953125, 1.0040615068393215
2740.5, 1.004585311987261
2728.265625, 1.0045466887158483
2718.0703125, 1.005098388335262
2707.875, 1.005686925645054
2701.7578125, 1.005625532897475
2677.2890625, 1.006235167424008
2663.015625, 1.006774828409025
2650.78125, 1.0074344142842493
2638.546875, 1.0073885190324423
2628.3515625, 1.0072101814467087
2618.15625, 1.006720112448162
2610.0, 1.0063851337707757
2595.7265625, 1.007482217626939
2589.609375, 1.0068208441288493
2571.2578125, 1.0073577629351018
2559.0234375, 1.0069951276595295
2546.7890625, 1.0074512226353949
2530.4765625, 1.0077437628805186
2522.3203125, 1.0089056952828899
2516.203125, 1.0084337454908625
2499.890625, 1.0089132041156568
2485.6171875, 1.009920284070156
2477.4609375, 1.0078472357190549
2469.3046875, 1.0093937377643674
2461.1484375, 1.0103505121125316
2444.8359375, 1.0091925132971966
2436.6796875, 1.0113647435794078
2426.484375, 1.0105960820819322
2412.2109375, 1.0109900696694387
2402.015625, 1.010850833143525
2359.1953125, 0.9909849618638576
2342.8828125, 0.9960526685041866
2332.6875, 0.9958127002975858
2322.4921875, 0.9972801069222834
2277.6328125, 1.0108139974949777
2261.3203125, 1.0140206090513149
2253.1640625, 1.0119010661710668
2245.0078125, 1.0104490968081326
2226.65625, 1.013488577367082
2212.3828125, 1.0113310084509302
2191.9921875, 1.0135171875002515
2183.8359375, 1.0124572976339412
2171.6015625, 1.0130738488623092
2159.3671875, 1.0102512107343198
2149.171875, 1.0091003634313618
2138.9765625, 1.0080086444856255
2124.703125, 1.010726021131298
2106.3515625, 1.0116353494571626
2100.234375, 1.0133728249581146
2085.9609375, 1.0146489610407914
2065.5703125, 1.0128505695597523
2041.1015625, 1.0129577381120365
2028.8671875, 1.0150750145600964
2018.671875, 1.0090220439064508
2010.515625, 1.0101885071313672
1998.28125, 1.0157739393684289
1990.125, 1.0179639325576846
1981.96875, 1.0174955590323034
1957.5, 1.0155598391162333
1949.34375, 1.0182050921725572
1937.109375, 1.015067147386024
1926.9140625, 1.0153426393648832
1914.6796875, 1.0176501736068873
1904.484375, 1.0160253510157482
1894.2890625, 1.01830165239292
1882.0546875, 1.0168035499048906
1814.765625, 1.0192091930959193
1804.5703125, 1.0186130275062584
1796.4140625, 1.0175621972432076
1786.21875, 1.0129333004601067
1778.0625, 1.0137445198369466
1753.59375, 0.9824830152650305
1737.28125, 0.9678786836653668
1725.046875, 0.9708875857662554
1710.7734375, 0.9794194553954566
1702.6171875, 0.9824341389402554
1688.34375, 0.9388563467147782
1663.875, 0.8757616678253926
1659.796875, 0.8751968545476658
1649.6015625, 0.9033452093053687
1641.4453125, 0.9009359296136852
1631.25, 0.9149641219001744
1619.015625, 0.9197234334792176
1606.78125, 0.9060807643706534
1572.1171875, 0.964786931217022
1563.9609375, 0.9600564084313434
1547.6484375, 0.9411670396690298
1529.296875, 0.9206567237104356
1512.984375, 0.9277143904811214
1494.6328125, 0.9378712603407412
1484.4375, 0.965772017591059
1451.8125, 0.9265918562249517
1441.6171875, 0.9245185087456382
1433.4609375, 0.92601380984181
1378.40625, 0.9672458610873536
1366.171875, 0.9658257208038452
1347.8203125, 0.967201038817632
1325.390625, 0.9809185716524782
1309.078125, 0.9807711688242801
1282.5703125, 0.979131803293268
1266.2578125, 0.9821640108509078
1260.140625, 0.982436761671918
1229.5546875, 0.9589048464876054
1201.0078125, 0.877062539667296
1129.640625, 0.9180103364171022
1029.7265625, 0.9972328405810942
801.3515625, 1.012912081754433
744.2578125, 0.9929230666383022
717.75, 0.9879225352103778
697.359375, 0.9288439578234818
670.8515625, 0.9803126900109556
650.4609375, 0.9972236615307328
640.265625, 1.0033330173419204
615.796875, 1.014738724006421
595.40625, 1.0142870414269145
583.171875, 1.0097061848388758
556.6640625, 1.011998342053125
542.390625, 1.0113029945323542
524.0390625, 1.0193720331858809
##END=

##END=

