##TITLE=SG-X14325
##JCAMP-DX=5.0
##DATA TYPE=LINK
##BLOCKS=1


$$ === CHEMSPECTRA SPECTRUM ORIG ===
##TITLE=SG-X14325
##JCAMP-DX=5.00
##DATA TYPE=INFRARED SPECTRUM
##DATA CLASS=XYDATA
##$CSCATEGORY=SPECTRUM
##ORIGIN=Angelika Moesle
##OWNER=
##XUNITS=1/CM
##YUNITS=TRANSMITTANCE
##XFACTOR=1.0
##YFACTOR=8.74124e-10
##FIRSTX=3997.453
##LASTX=373.96442
##MAXX=3997.453
##MAXY=0.938583497288052
##MINX=373.96442
##MINY=0.37603566230928
##NPOINTS=2559
##XYDATA= (X++(Y..Y))
2559I92642182I92723258I92983872I93105724I92901501I92620908I92511807I92523126
2551I92546788I92561448I92543174I92545151I92688823I92901433I92929390I92681800
2543I92289515I91919528I91779674I92090679I92786673I93430093I93609154I93281921
2535I92701096I92194529I92032515I92314335I92903751I93532648I93989779I94154453
2527I93859404I92934708I91555063I90373913I90006313I90492492I91435326I92377954
2519I92977394I93061265I92727349I92378023I92423231I92779240I92876953I92420026
2511I91859113I91712986I91874864I91906913I91735079I91755195I92175300I92594519
2503I92445256I91805654I91451145I91884411I92760761I93396681I93539944I93522147
2495I93693570I93972869I94043579I93785693I93307355I92805833I92604952I92897819
2487I93400431I93546831I92961029I91955872I91454964I91855158I92483100I92406321
2479I91629047I90986990I90774517I90692010I90754470I91227080I91968964I92542355
2471I92756806I92763693I92742623I92888954I93390067I94087015I94507530I94440705
2463I94266145I94392292I94849492I95506550I96135583I96130128I94918293I93435821
2455I92868293I93024171I93336062I93550990I93750849I94061717I94335355I94208594
2447I93505236I92544469I91906981I91796244I91967191I92201689I92572017I93207392
2439I93960116I94546601I94882836I94989890I94753279I94204503I93607654I92853838
2431I91778583I91045086I91511969I93010874I94755938I96013390I96233910I95431543
2423I94299829I93265897I92241920I91460010I91412278I91882706I92234283I92284742
2415I92374272I92716985I93165320I93572265I93971709I94316467I94382405I94138633
2407I93883065I93807786I93782761I93675160I93574924I93586721I93683479I93825719
2399I94116131I94735004I95558509I96026960I95695158I94760575I93784193I93089017
2391I92771262I92930003I93501554I94231641I94983344I95708386I95983115I95225616
2383I93848494I92854042I92671503I92980667I93330948I93788352I94390383I94666885
2375I94031646I92790218I92264831I93072107I94483800I95715546I96480613I96597351
2367I95921337I94749119I93806217I93638884I94264440I95339012I96467385I97313460
2359I97579120I97134603I96392174I96179087I96711087I97471860I98022750I98247906
2351I98185515I97997111I97913309I97957631I97975564I97967313I98106689I98409784
2343I98614553I98463448I97961108I97256660I96498956I95910904I95683975I95796076
2335I96115877I96589509I97081349I97251545I97132421I97205928I97330029I96866761
2327I95913836I95462637I95875378I96610375I97097577I97249363I97410355I97839802
2319I98278045I98179241I97499613I96763048I96266231I95960613I95909267I96248979
2311I96652856I96745523I96746819I97130239I97876146I98361848I98124896I97349600
2303I96550301I96233432I96783231I98177605I99511972I99500722I98398806I97384034
2295I96821280I96533800I96464930I96753024I97370601I98073209I98659829I98964152
2287I98887440I98561434I98135328I97614782I97193790I97197609I97557095I97907785
2279I98156194I98505179I98907965I98993336I98565253I97917059I97606531I97893398
2271I98416603I98508179I98051116I97653990I97559004I97423993I97150491I97135626
2263I97648535I98376713I98809161I98793477I98542069I98307980I98190492I98107576
2255I97881601I97532479I97325597I97358669I97454063I97450859I97402445I97459041
2247I97648740I97821460I97851121I97882147I98155171I98581754I98807661I98673262
2239I98304093I97816209I97303027I96949200I96840373I96807574I96670244I96490296
2231I96400970I96376150I96375331I96557325I97025094I97459655I97484884I97301800
2223I97443562I97977405I98445856I98507293I98277705I98087597I98096325I98140579
2215I97914672I97296208I96497592I95905858I95835147I96334487I97127716I97785729
2207I97957972I97524911I96758343I96184883I96017004I95931156I95599967I95152178
2199I94897837I94881063I94936909I94973730I94976526I94911406I94805238I94799442
2191I94990231I95333898I95771801I96285664I96739182I96851692I96522004I96085465
2183I96021436I96417676I96941086I97313528I97533025I97636807I97631693I97663673
2175I97860872I98017227I97773523I97098395I96345192I95888743I95867127I96254912
2167I96964405I97785320I98389055I98596483I98578277I98624576I98714652I98476336
2159I97690198I96765025I96452997I97011320I97897147I98380327I98209653I97652899
2151I97196722I97200473I97628488I98156535I98554752I98785431I98775408I98437741
2143I97986747I97925173I98513294I99379689I99899553I99932351I99888302A000101389
2135A000475808A000708738A000603524A000315090A000386210A001153528A002105294
2128A002346406A001667255A000665234I99928669I99598161I99533248I99426124
2121I98868484I97626920I95827851I93813514I91942642I90557680I89987561I90460171
2113I91868455I93599949I94859243I95407541I95787211I96582827I97698312I98584891
2105I98908919I98768453I98508998I98524613I98995723I99676101A000086933
2098I99982469I99544771I99115461I98832413I98594301I98369485I98347188I98651374
2090I99102028I99438944I99579820I99506586I99137963I98531091I98046207I98062640
2082I98537091I99018225I99167215I99124461I99231107I99498676I99577365I99259951
2074I98814070I98674899I98927876I99287158I99517633I99620392I99646371I99632393
2066I99727242A000110321A000726944A001272174A001466646A001269242A000817157
2059A000255016I99733993I99518928I99825637A000486173A001050837A001281039
2052A001270129A001128093A000875729A000575226A000284473I99988061I99737402
2045I99679579I99862186A000180896A000539496A000850637A000874912A000365071
2038I99522338I99064115I99569251A000830385A002014263A002381045A001791630
2031A000721557I99880937I99671737I99934397A000233878A000282428A000086865
2024I99886256I99944420A000265585A000619821A000904096A001214828A001533675
2017A001701962A001794289A002150161A002868452A003535261A003646748A003135885
2010A002342110A001651435A001309950A001354954A001535652A001537902A001419665
2003A001526720A001900048A002129432A001928278A001556313A001532720A002068131
1996A002870225A003441230A003491144A003066265A002387932A001696439A001233103
1989A001170574A001464328A001916072A002458711A003134044A003742689A003928160
1982A003734643A003626497A003857108A004264394A004694728A005103378A005237776
1975A004759847A003805558A003042945A002995282A003508532A004021918A004181273
1968A004038010A003821173A003653772A003403795A002865861A002182073A001822041
1961A002017536A002557856A003169638A003695094A003971527A003943434A003799967
1954A003780533A003978414A004313967A004519962A004330536A003816332A003294763
1947A002917002A002646023A002494442A002433686A002215008A001601454A000710716
1940I99957035I99694853I99997948A000670485A001351409A001706667A001687711
1933A001558836A001566678A001686620A001772673A001767014A001635479A001258673
1926A000543110I99571160I98509884I97286662I95454454I92612248I89026794
1919I85637789I83376611I82627090I83302764I85103742I87512478I89785725I91335703
1911I92165617I92762534I93516078I94321854I94687818I94127928I92548970I90411076
1903I88515317I87584075I87964495I89564933I91908345I94277396I96021845I96926835
1895I97309028I97675265I98262499I98947173I99520156I99887620A000007699
1888I99878346I99725878I99952671A000655483A001407936A001771241A001819041
1881A001928823A002296288A002869202A003542148A004194092A004680545A004911838
1874A004878903A004633495A004314239A004090038A003998052A003950866A003934638
1867A004012849A004092356A003955503A003626838A003456027A003700685A004222799
1860A004713479A005015552A005115515A004976479A004556647A003972414A003490121
1853A003257737A003133908A002879225A002418481A001759377A000765607I99229334
1846I97087690I94383905I91134617I87456700I83696958I80208467I77113216I74444956
1838I72336929I70858548I69788339I68701288I67239750I65306624I63059902I60667531
1830I58027161I54735665I50221901I43756874I34366519I20967263I03181892H82831702
1822H64518012H53387571H51327479H55563241H61325592H65713549H69041253H73282811
1814H79823936H88306369H96926883I03614067I07188679I07809529I06640380I05167932
1806I04504873I04809604I05099607I03844405I00123462H94418388H88393718H84044560
1798H82912778H85672818H92062020I01047953I11164372I20992288I29630258I36848216
1790I42829041I47801232I51892504I55187954I57797503I59861210I61520902I62851042
1782I63777784I64117973I63746554I62637274I60669372I57499046I52744306I46260254
1774I38239044I29212335I20035476I11774449I05522645I02225557I02411369I05883495
1766I11751060I18864213I26243025I33268558I39691309I45414930I50193397I53658978
1758I55640790I56193862I55263166I52636842I48453176I43647568I39680194I37702883
1750I37995204I40143258I43580062I47898672I52852179I58194630I63441754I67874920
1742I71048315I73242191I75117630I76969339I78596097I79825388I80830068I81877092
1734I83032126I84225278I85423066I86565485I87457450I87925696I88043184I88053071
1726I88132442I88334824I88598506I88689059I88374441I87835484I87631807I88087029
1718I88955060I89764859I90225673I90287656I90096525I89899394I89830320I89883711
1710I90142552I90749287I91577156I92232237I92490805I92521694I92597724I92753124
1702I92834881I92802560I92808697I92967779I93196413I93319424I93251714I93096382
1694I93101973I93409023I93820264I94006553I93931479I93864041I94015554I94365631
1686I94786963I95149109I95349854I95364583I95243345I95010620I94637223I94138838
1678I93631588I93216188I92864748I92524968I92329473I92538332I93186663I93939184
1670I94441387I94688568I94898041I95165133I95429225I95626697I95713909I95670883
1662I95621992I95807872I96308780I96890082I97221338I97198768I96990727I96799936
1654I96672902I96577577I96566189I96744500I97101668I97490817I97804481I98048457
1646I98213812I98239792I98180400I98245179I98561571I99032681I99482856I99802317
1638I99958740I99998493A000022700A000073364A000112640A000107253A000036610
1631I99850048I99538839I99223129I99081298I99190194I99456332I99734606A000005244
1623A000344751A000703556A000848523A000608707A000093820I99622846I99453945
1616I99593252I99862595A000136096A000428486A000749174A000978353A000945486
1609A000607138A000152939I99926964A000166645A000757356A001281925A001406232
1602A001247627A001237330A001578679A002038606A002327722A002416912A002417730
1595A002438528A002596996A002946255A003431002A004021441A004727935A005447317
1588A006011503A006347670A006426836A006239183A005970727A005942906A006248388
1581A006673948A006992863A007120374A007063778A006936881A006962315A007322892
1574A008019840A008853301A009513086A009822796A009942602A010157325A010462125
1567A010600274A010485513A010282586A010092750A009942943A010074068A010777562
1560A011844838A012597428A012636568A012266308A012049538A012186323A012448028
1553A012544037A012381682A012009171A011517196A011089317A010949600A011118024
1546A011384229A011565405A011570382A011273492A010632936A009863231A009247631
1539A008832231A008427263A007859463A007240521A006916356A006998659A007161832
1532A007228043A007604167A008602165A009607663A009581411A008354575A006880285
1525A006086101A005958453A005962135A005887061A005856990A005830533A005614446
1518A005288439A005231298A005682361A006484045A007326438A008111962A008915488
1511A009692557A010304543A010787722A011251127A011513855A011230534A010463966
1504A009793611A009638961A009746562A009630847A009352231A009462764A010204920
1497A011155391A011770446A012007057A012229282A012669298A013197754A013583220
1490A013795011A013992415A014322444A014777939A015233843A015603353A015891379
1483A016046438A015894788A015351672A014608561A014006121A013777078A013924705
1476A014273349A014590423A014696728A014536554A014195069A013828764A013590448
1469A013643975A014078673A014690386A015064942A015023279A014780599A014602901
1462A014532258A014476276A014401951A014373653A014391723A014291487A013992961
1455A013724641A013699003A013748712A013641998A013544080A013811240A014479958
1448A015192862A015560668A015518664A015362514A015437384A015828101A016381036
1441A016912083A017345417A017759385A018325822A019098322A019855412A020207261
1434A019902462A019091981A018310207A018058116A018323776A018619439A018521521
1427A018021977A017355509A016739022A016339168A016253866A016445201A016838781
1420A017440675A018192651A018847050A019233811A019535884A019990492A020375208
1413A020184146A019443012A018942922A019398690A020727603A022420366A024153838
1406A025713840A026774843A027082166A026567007A025352308A023834174A022403865
1399A021025038A019584774A018444605A018052320A018391555A019121505A019888074
1392A020387618A020381413A019929055A019509563A019573864A019966081A020095910
1385A019697966A019084480A018616438A018233768A017681515A017039049A016697087
1378A016853919A017337301A017964085A018704742A019349253A019522041A019219765
1371A018867915A018779612A018924307A019205923A019617027A020095501A020434259
1364A020424303A020125368A019983332A020412439A021189576A021614045A021419505
1357A021114228A021249308A021791129A022368680A022680980A022556742A022086996
1350A021798561A022225349A023207391A023953092A023928477A023458254A023267396
1343A023547648A023840310A023890974A024091446A024847241A026033164A027237907
1336A028020158A027942492A026989771A025848170A025169155A024771825A024098197
1329A023144726A022371817A021997738A022039401A022816742A024741208A027603462
1322A030482694A032413979A033062037A032880657A032602110A032445209A032107884
1315A031591565A031424846A031847884A032329972A032146615A031199076A030132686
1308A029652916A029791406A030027472A030097774A030390504A031467873A033254054
1301A034757255A034932293A033859766A032437913A030968056A028981811A026147174
1294A022100293A015791825A006385582I94562625I81945280I69699013I58454630
1287I49091142I42985533I41552360I45402247I53602791I64028715I74647474
1280I84155180I91625979I96593533I99622983A001933665A004323036A006942609
1273A009742402A012430368A014194047A014270622A013082107A012365180A013693002
1266A016961928A020567839A023007259A024184318A025244571A027086462A029161418
1259A030287132A030151915A029374642A028691399A028200788A027420241A026524253
1252A026821416A028843117A031057314A031844474A031388569A030595750A029754994
1245A028971242A028432217A027945629A027335347A027011251A027447857A028554274
1238A029831091A030743786A031027243A030952645A031099249A031681301A032338973
1231A032644727A032569175A032429322A032587245A033239393A034305374A035381447
1224A035938814A035762821A035169928A034682658A034516279A034453546A034245982
1217A034023281A034111380A034491391A034713138A034346901A033419614A032511761
1210A032392091A033212255A034108993A034034873A033015873A032187186A032514556
1203A033788510A035011323A035559826A035694634A035996569A036702996A037681628
1196A038717538A039619731A040113684A039872095A038921215A037883396A037502976
1189A038012679A039071978A039964353A039866367A038519657A036707291A035661017
1182A035984637A037381328A039208695A041084884A043014737A044806850A045781936
1175A045780095A045878013A047137511A049225014A050827361A050828861A049184920
1168A047253294A046593918A047155513A047645033A047385100A046555187A045284574
1161A043902952A043289807A043793442A044453022A043953684A042021512A039919417
1154A039827499A042897249A047388920A049965943A049284270A047043685A045305372
1147A044317329A043484347A042790876A042507283A042640181A043150976A043985868
1140A044910086A045789301A046611033A046929675A045989567A043918089A042455392
1133A043660612A047396625A051050335A052459642A051902956A050897799A050260515
1126A049687942A048553364A046840826A045358149A045098899A046483794A049051067
1119A051652025A053106813A053013532A051949256A050737285A049755652A049079774
1112A048881620A049356140A050509196A052195414A054063761A055421313A055693997
1105A055040893A054152815A053547238A053353380A053557603A053990323A054247050
1098A054043714A053567013A053174728A052758168A051760784A050146369A048921510
1091A049052090A050082272A050715328A050545472A050166620A050146778A050510424
1084A050924256A051133865A051223464A051389638A051561267A051508897A051303653
1077A051341361A051891773A052841221A053931750A055035710A056020275A056635194
1070A056880056A057098394A057370122A057410762A057218609A057161808A057285297
1063A057177083A056644399A056005001A055621581A055520049A055545483A055601193
1056A055632559A055593965A055568667A055716362A056023889A056267525A056301278
1049A056281571A056462815A056830893A057113941A057168286A057146875A057220382
1042A057353144A057419695A057338142A057147216A057112713A057455221A057991791
1035A058397918A058645304A058994630A059610503A060385458A061057245A061369272
1028A061365454A061419730A061694187A061939459A062007988A062177435A062718096
1021A063492097A064113152A064323375A064183453A064027235A064223070A064809963
1014A065446224A065835168A065955519A065902197A065814439A065903833A066273275
1007A066700813A066848099A066657241A066369352A066216202A066171470A066126194
1000A066197041A066546640A067166809A067917421A068605027A069076205A069358298
993A069621026A069905710A070074203A070062406A069986922A069998514A070101819
986A070238058A070454350A070806199A071181914A071393910A071416344A071421526
979A071539764A071767034A072109815A072557127A072958549A073104471A072991620
972A072954117A073221072A073572444A073741823A073673158A073299011A072403636
965A070902208A069065431A067209972A065469681A064079467A063467549A063651997
958A064114311A064258937A063927340A063519031A063484596A063915270A064577034
951A065091852A065061508A064178271A062342517A059614935A055777595A050141936
944A042012102A030242128A012164230I86583964I56698793I21358525H68631035
937G92904666G10655583F29614993E46473296D79008159D46248870D46146827
930D70578810E10334787E55566625F04693762F59381380G08653655G43438874
923G69379854G92160327H13613592H34463258H53619955H69058232H81421032
916H92745672I02981488I10766019I16465978I21599842I27335941I33711097
909I39518384I43531035I45471185I46240071I48449085I55606219I65512960
902I73251055I79428262I85821419I92191733I97356964A001525629A005413428
895A009137849A012570357A015870854A019379870A022816061A025413473A027041117
888A027916035A028140031A027816004A027046367A025715204A023657362A021097590
881A018332300A014886152A009394167A000734922I89670146I77719678I66096512
874I56994251I53008398I54490802I59143737I64381997I68692424I71180122
867I70972967I67139036I58651216I44228665I22389184H91732537H51307909
860H01727971G47055694F95002037F53910600F28911499F20268551F24445330
853F36496716F52865621F73503768G00064985G28954886G52818387G70753840
846G85475258G97027236H03741013H06680796H08988819H12954897H19364215
839H29022275H43977578H62245787H76499778H86773506H96090627I04790444
832I12409005I18987497I24342699I27857442I28656331I24974187I11195534
825H71909371G96401408G16184936F67296286F54156895F74032906G18458047
818G66550604H04604271H33574156H57011551H76215093H92819997I09706175
811I27640741I43284536I54418046I62816812I70397461I77338167I83431980
804I88706925I93135317I97073984A001349089A005560304A008432104A010257766
797A011755785A013189162A014556806A015576760A015753367A014890927A012973825
790A009770973A005301327A000450715I96168109I92208167I87120466I78711403
783I65297691I47349965I27114331I06665337H86700273H65516827H40052412
776H12026110G87977480G69223295G51794546G34061475G21183447G20119035
769G29891651G43855502G56093723G62409009G62400622G60156833G57124041
762G51403830G41685900G28909541G15569950G04260993F97852835G00291437
755G14052770G36239054G60652558G82802294H00072097H11465129H19670038
748H29009661H42081751H57995365H73239921H85497233H95124678I03639910
741I12339044I21898982I31936644I40376938I45081900I45060898I38244976
734I21406461H94778147H66009212H46369813H42573317H52723898H68224772
727H80621938H86639244H86878243H83988646H81995377H84456483H92155165
720I02445259I11803906I18129557I20326638I17630081I09684014H96630607
713H79660831H62075795H49139672H45946366H54967006H74602178H98709587
706I19543501I33678981I42660549I48459381I51090137I49357415I41763470
699I27431472I08301027H89455061H75817081H69570118H70091892H75510440
692H84268762H94669660I03974576I10229721I15015077I22339270I34304945
685I49136487I63278990I74086697I81016425I85454432I89264906I93312810
678I97207496I99996448A001171734A001291199A001535857A002553629A003894475
671A004629336A004219049A002609475I99796385I95616196I89863391I82418572
664I73358859I63043264I51975488I40521973I28777160I16559668I03405275
657H88570120H71047272H49619782H23179053G91376031G55082428G16116612
650F76588723F38777123F05578431E80284895E64767861E57775707E56494866
643E60437863E72332076E94354300F24802567F59305965F94051021G26963937
636G56896976G82935260H04428005H21134031H33124798H40439242H42764448
629H39629647H31062387H18112218H03276994G90948152G86521055G93180691
622H08689542H25665932H35306060H31723197H15099815G92016519G70956562
615G55329200G41278887G23466241G02078982F82948128F71956790F71122444
608F79341535F94452715G13960717G35409208G57239279G79076441H00974222
601H22653052H43475715H62780448H80086732H95117246I07635514I17137424
594I22733193I23371363I17801165I03428323H74907046H26248188G58945816
587F89659041F45138641F43795749F81566233G36985984G88040349H22902756
580H39174834H39469338H29531912H17309101H09433131H06165978H00192244
573G82342298G50194518G12207402F83718651F77429343F95571405G29983091
566G69077237H04702393H33992148H57344717H76057443H91283315I03912252
559I14584607I23636954I31179964I37288028I42087362I45663952I47941631
552I48936833I49391099I50803339I54312423I59647100I65404268I70057272
545I72502216I72086407I68647693I62562744I54358313I44045513I31420667
538I17817257I07074464I03158981I05967707I09813911I06165043H87507208
531H49488657G92430692G23524132F56717826F06722419E80369175E73636783
524E77199599E84157829E92899376F05025701F22559800F46589202F76735805
517G11052232G46597949G80372215H10113782H34829972H54734145H70453491
510H82285381H90316957H95131020H98141991I01078228I05110995I10483448
503I16772619I23341019I29703356I35664952I41096251I45728389I49323185
496I51765811I52651503I50727309I43515148I27211362H97681109H53716782
489H01413215G54880524G29542734G32039159G55802697G85698982H06689728
482H10589392G97868947G74164597G46218961G22414238G13500858G26043674
475G54269015G82723946G97712592G93981148G73015767G40835802G08372449
468F89295531F93194445G19452226G57187933G90560981H04947460G91324140
461G49523345F90422199F33953650F00813464F01836281F33038569F80461112
454G30207361G75087246H14115386H48258548H77640629I01622299I19621644
447I30943147I34203891I27772889I11509948H88599236H65695480H50447651
440H47644380H56801941H72456033H85888632H88273230H76575057H58176541
433H46104221H46311717H50626985H43261128H12627459G57197206F84146257
426F05212262E32619330D76232198D42064011D31470379D41265088D65553979
419D98396696E35402043E73791910F11843941F48405317F82615712G13865867
412G41944264G67114176G89783094H09701041H24950847H31045477H20903692
405G87470094G29944292F59925929E99766507E70452478E78346040F13296274
398F58558285G01574528G37560603G67074968G92171647H14080747H33180098
391H49942856H65140089H79418286H93193939I06725206I19948469I32351295
384I43158525I51615320I56981227I58080279I52798447I38108737I10917668
377H69553958H14974144G50706609F82353530F18037240E68237600E42355159
370E43641011E67367114F03917511F43648191F79906540G09545621G32422716
363G50763478G67704820G84820791H00316073H09408378H06146817G85000329
356G42284999F78945773F03723721E31742980D76630210D43444781D30185720
349D34120364D53444224D83712372E16254721E40967127E50206650E42517344
342E25443547E13175323E17630991E40394178E73770636F08735256F40462659
335F67820174F90994500G10647809G27762212G43169123G57354857G70641603
328G83131300G94559381H04638024H13669165H22526359H31576934H39039413
321H39551708H24381478G86080698G27368768F65415665F21878057F05107730
314F04089208F01472704E90957249E81226364E84650009F03145898F23997541
307F28572400F06651913E65371664E25414874E06742958E15919782E45598855
300E83600257F20986637F53820320F81194131G03404758G21257090G35649434
293G47027328G55255012G60012411G61082142G58781756G54949530G52955717
286G55527900G62602458G71891691G81157125G89339873G96022965H00832391
279H03542654H04239669H03163461H00382147G94977850G84291994G65715780
272G41091643G18420203G06936685G10041824G23732173G41233201G57823649
265G71865370G83465489G93300292H02063319H10145557H17586967H24249466
258H30046525H35146568H39834961H44112113H47775028H50889099H53724828
251H56371199H58766093H60864233H62638686H64045674H64947459H65309536
244H64830448H60413034H45860995H20073846G95335563G88972136H04767513
237H29674356H49362237H59989588H64774943H66760506H66999641H65528419
230H62279540H57965363H54115543H52145665H52607297H54930389H57649858
223H59333484H59514114H58810415H58484136H59792661H63271947H68504888
216H74560788H80548909H85952388H90570479H94257601H97059031H99482360
209I02139845I04702140I06258392I06557532I05037556I00470061H92761764
202H84627430H80027749H80609801H84319357H87363399H86233799H78130150
195H61785110H39349259H16800556H01311275G97251165H03963714H17183977
188H32271904H46306602H58416766H68968701H78409583H86827784H94284195
181I00793817I05858266I08121966I04800194H91302067H63096704H19813641
174G68443703G22646895F96453279F95223646G13083275G39528573G66693798
167G90971540H11057775H26680909H38403084H46903383H52271813H54539264
160H54645569H54337223H55162842H57724523H61547339H65437866H68335918
153H70073208H71187807H72120685H72726125H72297019H69914944H65132793
146H58894422H53880228H53238376H58048484H66277940H75029988H82801359
139H88841099H92185577H92578475H90951922H88364193H85880994H85297716
132H88041528H93342384H98697995I01701261I00859618H95677272H86101174
125H70993131H48924607H23390367H05204597H04558789H20615462H42741059
118H61339707H74146615H83152935H89722427H93742374H95087311H94593222
111H93939573H94510646H96229526H97681382H97432223H95125019H91493129
104H87875354H85645475H85630200H87780709H91342843H95457026H99647102
97I03809288I07957292I12004991I15598970I18230680I19695901I20336253
90I20639484I20762018I20610777I19941309I17790800I11996128I00778065
83H86248733H75129815H73937960H83482897H98444268I12112933I21058362
76I25391428I26718637I27224795I29164399I33453756I38607599I41675916
69I40897825I36749480I30200445I21395960I10695785I00693512H95776213
62H98401650I06320306I13832904I16106014I12390594I04974483H97771731
55H95265622H99527159I08330825I16766277I20466424I17179155I05258758
48H82197760H46415908H01898372G61325368G40109943G43624345G62921168
41G80895693G80467405G53914098G10062962F71605145F59296827F75712918
34G08771620G43538768G68588398G83827498G96647975H10931491H25904045
27H39834484H52188214H62782084H71204240H77397130H81322160H82902072
20H83543311H86621856H94117407I02227944I05936409I06147723I06458114
13I08421788I11477354I14893293I18350077I20738425I20376143I17857215
6I15839536I14952821I12314088I03770080H89101508H76079877
$$ === CHEMSPECTRA INTEGRALS AND MULTIPLETS ===
##$OBSERVEDINTEGRALS= (X Y Z)
##$OBSERVEDMULTIPLETS=
##$OBSERVEDMULTIPLETSPEAKS=
$$ === CHEMSPECTRA SIMULATION ===
##$CSSIMULATIONPEAKS=
##END=


$$ === CHEMSPECTRA PEAK TABLE EDIT ===
##TITLE=SG-X14325
##JCAMP-DX=5.00
##DATA TYPE=INFRAREDPEAKTABLE
##DATA CLASS=PEAKTABLE
##$CSCATEGORY=EDIT_PEAK
##$CSTHRESHOLD=0.93
##MAXX=3997.453
##MAXY=0.938583497288052
##MINX=373.96442
##MINY=0.37603566230928
##$CSSOLVENTNAME=
##$CSSOLVENTVALUE=0
##$CSSOLVENTX=0
##NPOINTS=0
##PEAKTABLE= (XY..XY)
##END=


$$ === CHEMSPECTRA PEAK TABLE AUTO ===
##TITLE=SG-X14325
##JCAMP-DX=5.00
##DATA TYPE=INFRAREDPEAKTABLE
##DATA CLASS=PEAKTABLE
##$CSCATEGORY=AUTO_PEAK
##$CSTHRESHOLD=0.93
##MAXX=3997.453
##MAXY=0.938583497288052
##MINX=373.96442
##MINY=0.37603566230928
##NPOINTS=100
##PEAKTABLE= (XY..XY)
3529.997475605942, 0.8709555898350441
3633.404303729476, 0.870831552513568
3709.8970259030493, 0.8707840482447881
3464.8370085691945, 0.8706462417220641
3648.9861545426115, 0.870548192107108
3445.00556207975, 0.870511356521748
3504.4999015480844, 0.870483402036228
3682.982919953088, 0.8703512589629
2726.8238927834245, 0.870297078135008
3667.401069139953, 0.8701577821049881
3486.084986950743, 0.869649414313812
3477.5857955981237, 0.8695780674388081
3861.465938358092, 0.86911189973198
2765.0702538702108, 0.868760410975084
3721.229281039875, 0.868563595837616
3776.4740248319, 0.868507686866576
3908.211490797498, 0.868461553224228
2773.56944522283, 0.868089381819368
3850.1336832212664, 0.867890003750332
2782.0686365754495, 0.86783254495744
3759.4756421266616, 0.867805186624488
3869.9651297107116, 0.867780152587252
3745.310323205629, 0.867717984888372
3898.2957675527755, 0.867659811062048
3983.287681078968, 0.867605809429576
3988.953808647381, 0.867578390782068
3936.542128639562, 0.867461446976852
2743.822275488663, 0.867419008256652
3733.9780680688036, 0.867362503133044
3960.6231708053165, 0.86715943014186
3834.5518324081313, 0.866952899990256
3971.9554259421425, 0.8669384157555761
3923.7933416106334, 0.866899434195796
3928.042937286943, 0.866880122174264
3889.7965762001563, 0.866654578951536
3915.2941502580143, 0.86665124067198
3799.138535105551, 0.866617266094472
3814.7203859186866, 0.866296294754664
3879.880852955434, 0.86598766254924
3946.4578518842845, 0.865388278344812
3368.512839906177, 0.865371886771564
2797.6504873885847, 0.86523443863968
2808.9827425254107, 0.863312665662068
3066.791546888194, 0.8632709419753
3088.0395252697417, 0.85893792241916
1609.180229913995, 0.833047512893352
2192.791369460516, 0.82303351513264
2852.8952311806097, 0.8196685948994921
2930.8044852462863, 0.790649417606252
1131.808982275215, 0.789472941107644
2878.392805238467, 0.788657012787068
461.7893973103983, 0.783019486412412
450.4571421735727, 0.782573166565128
529.7829281313525, 0.781414035309052
517.0341411024233, 0.7741506129448
560.9466297576228, 0.773859980700784
2919.4722301094607, 0.771775249156472
1396.700446098514, 0.770973327798872
657.2707984206409, 0.769253376066876
487.2869713682562, 0.76393014534704
1357.0375531196246, 0.760112109826632
684.1849043706015, 0.750421586896864
597.7764589523063, 0.746796670717652
576.5284805707583, 0.7458361421826241
694.1006276153244, 0.74488097727246
2950.635931735731, 0.744165781253396
995.821920633307, 0.74094629602312
985.9061973885846, 0.7396000060774041
1378.2855315011725, 0.739462021233384
1406.6161693432368, 0.736513558149308
543.9482470523844, 0.70328414774996
643.1054794996089, 0.69689637735446
711.0990103205627, 0.689659479408864
1256.463788780297, 0.68751693068082
779.0925411415164, 0.658176663166908
434.8752913604376, 0.646947863814932
1062.3989195621575, 0.637710812815016
1463.277445027365, 0.62947333135034
1048.2336006411256, 0.623688223998392
755.0114989757622, 0.61795032283894
1444.862530430023, 0.61000991154154
614.7748416575446, 0.607711675210228
1035.4848136121968, 0.602529766739844
1178.5545347146208, 0.592157247020532
1235.215810398749, 0.586644235239056
423.54303622361203, 0.576307179604548
1535.5205715246284, 0.57181424168498
1201.219044988272, 0.562757315298876
1583.6826558561374, 0.542191626874324
1021.3194946911649, 0.525185468405536
813.0893065519936, 0.508063914205136
1116.2271314620793, 0.501429679303092
940.5771768412819, 0.498646201879272
1284.7944266223608, 0.486445518247384
898.0812200781857, 0.47408566100571603
855.5852633150898, 0.448578866042052
801.757051415168, 0.442956181418792
1691.339079655981, 0.389987649004548
970.3243465754495, 0.377158613572996
868.3340503440186, 0.37603566230928
##END=

##END=

