##TITLE=ZZ-179
##JCAMP-DX=5.0
##DATA TYPE=LINK
##BLOCKS=1


$$ === CHEMSPECTRA SPECTRUM ORIG ===
##TITLE=ZZ-179
##JCAMP-DX=5.00
##DATA TYPE=INFRARED SPECTRUM
##DATA CLASS=XYDATA
##$CSCATEGORY=SPECTRUM
##ORIGIN=Marie
##OWNER=
##XUNITS=1/CM
##YUNITS=TRANSMITTANCE
##XFACTOR=1.0
##YFACTOR=7.6068119e-10
##FIRSTX=3997.453
##LASTX=373.96442
##MAXX=3997.453
##MAXY=0.8167752076724094
##MINX=373.96442
##MINY=0.3842551433179897
##NPOINTS=2559
##XYDATA= (X++(Y..Y))
2559I41775427I42198398I42227625I41649116I41014189I40966235I41500864I42101862
2551I42393820I42351583I42047010I41587840I41192058I41030958I41099363I41360527
2543I41764299I42103429I42182883I42054378I41813979I41421097I40962474I40794398
2535I41213764I42114321I43038149I43548723I43521611I43096446I42491921I41914746
2527I41523274I41390224I41472342I41535811I41298312I40922747I41041849I41890925
2519I42793910I43090491I42898047I42594492I42324396I42182805I42313269I42608910
2511I42714221I42531258I42444125I42881435I43639617I43997786I43712097I43353849
2503I43619636I44470983I45032255I44602075I43485880I42524519I41999447I41446718
2495I40673807I40325118I41023514I42336698I43484705I44398739I45013997I44789426
2487I43655758I42540582I42624503I43773294I44285513I43498104I42740784I43284817
2479I44474040I45031784I45183170I45410013I45106850I44061412I43143304I42762959
2471I42365141I42153342I43266011I45019482I45344742I44291936I43724086I44484226
2463I45371775I45108261I43411990I40502048I37388455I36970031I41760304I47363217
2455I48886554I47360944I45025829I43041910I41725670I41041458I40872520I41200992
2447I42079373I43170964I43797349I43886519I44056867I44643211I45132473I44934776
2439I44224159I43351027I42189543I41004316I41056894I42606246I43645180I43530857
2431I43766477I44745625I45125578I44366221I43153098I42533609I43296257I44535942
2423I44178477I42489259I42135320I44076222I45831965I46236601I46428340I46704548
2415I46293253I45261057I44434861I44131620I44091266I44226824I44579976I44864884
2407I44938383I45343802I46503406I47708534I47997908I47401611I46490320I45832044
2399I45988366I46991726I48038732I48611913I48860618I48669269I47843074I46994939
2391I47031845I47644048I47445883I45743265I43007981I40832166I41584314I44970353
2383I47209715I46936406I46278286I47291442I48590600I48067019I46113502I44291075
2375I44117907I46050189I48530343I49585106I49057293I47928797I46984204I46548383
2367I46616162I47074079I47959355I49192773I50169492I50153977I48995627I47328975
2359I46472142I47936084I51612121I54556540I54610214I52653798I50342426I48949709
2351I49350035I51210307I52784576I52932671I51981182I50483390I48636125I46839087
2343I46142807I47605888I50594108I52956726I53966120I54243974I54057406I53276658
2335I51861688I50094583I48992336I50054150I52507112I53538447I53214050I53603876
2327I54899586I55291449I54535853I53775164I53510788I53326493I52749159I52050683
2319I52112979I53061331I53393331I52050920I50146298I50125925I53215147I56607924
2311I57337662I56070787I54465411I53339108I52718991I52367796I52140717I52002025
2303I51895852I51557898I50787023I50362326I51953679I55001215I56256885I54990794
2295I52820620I51233265I51089872I52404308I53762392I53764665I52957118I52726278
2287I53379226I54234178I55149858I56393618I57322069I57016242I55754852I54672821
2279I54484060I54837763I54997924I54876785I55008894I55667093I56324821I56416106
2271I56298963I56946740I58396343I59408009I59484094I59196289I58912715I58473446
2263I57779909I57143729I57014362I57497197I58107284I58177962I57624292I57153288
2255I57515141I58483162I59297446I59708900I59832625I59728411I59355510I58704912
2247I57981911I57672795I58169578I59157189I59816327I59801988I59548267I59620905
2239I60092927I60694787I61205047I61481177I61491442I61464722I61730430I62283316
2231I62744918I62843334I62751186I62833853I63142501I63414478I63547841I63672975
2223I63773039I63684496I63465175I63385799I63625412I64218812I65086850I65896590
2215I66228275I66152504I66261890I66929099I67923839I68739771I69037449I68912470
2207I68848215I69266564I70070742I70774153I71085308I71097610I71004444I70981093
2199I71222903I71808934I72641868I73645856I74807889I75937796I76666672I76794394
2191I76427370I75809291I75197323I74845814I74849732I74999629I75042568I75102590
2183I75555884I76463414I77422817I78052963I78386920I78723150I79284969I80088049
2175I80967449I81646647I81899427I81781421I81649155I81817935I82209720I82509514
2167I82584188I82527301I82388687I82111460I81708236I81267086I80800549I80312150
2159I79896780I79456334I78536582I76866718I74843071I73050186I71527790I69794064
2151I67349484I63998864I59886534I55233465I49852851I43007120I33808486I21547585
2143I05702324H86086293H63198546H38372796H13546343G90709606G71389686G56611804
2135G47019661G42667796G42985847G47201058G54490368G63779267G73893190G83926874
2127G93292721H01681771H09200589H16298866H23302015H30089370H36360669H42103371
2119H47555760H52745574H57396293H61363583H64852034H68107059H71168463H74018071
2111H76701167H79182420H81317568H83082166H84653223H86215738H87846658H89584616
2103H91428355H93247489H94822777H95985592H96722228H97273390H98094571H99457431
2095I01048392I02258615I02912739I03443685I04301223I05461141I06592929I07460419
2087I08091584I08691719I09415267I10207221I10945813I11651731I12339861I12831786
2079I13054320I13370804I14214316I15480172I16626221I17270393I17386675I17101456
2071I16652470I16399691I16578658I17100280I17689759I18135060I18436814I18851244
2063I19637086I20638174I21397452I21790883I22164958I22751931I23366249I23778877
2055I24005172I24170034I24386691I24765859I25299628I25803855I26165472I26504836
2047I26915426I27259570I27431799I27588277I27911891I28329377I28602059I28595242
2039I28395354I28195935I28073385I27960865I27894026I28119381I28817854I29824112
2031I30726473I31232658I31409980I31518818I31609790I31519366I31321202I31417267
2023I31975482I32558458I32615110I32213922I32000635I32425878I33246980I33914503
2015I34261389I34564317I34995907I35354938I35420915I35276503I35124569I35083431
2007I35293115I35820927I36362060I36509449I36334792I36214747I36220626I36198529
1999I36221017I36489390I36922625I37152681I36932655I36482181I36303135I36560146
1991I36898256I37009680I37017907I37164513I37498000I37983030I38585359I39172645
1983I39546015I39637615I39570149I39483408I39391731I39331787I39510912I40060194
1975I40756160I41229044I41341800I41211727I41020850I40895008I40832715I40748481
1967I40626009I40516466I40428863I40400106I40535035I40785387I40916322I40909191
1959I41103437I41702712I42386376I42639704I42338735I41890768I41810686I42171443
1951I42586735I42782940I42913561I43154901I43365994I43371949I43237959I43121521
1943I43112510I43216176I43309342I43266794I43207478I43390128I43840836I44298440
1935I44514315I44491357I44465577I44658179I45009923I45227677I45103716I44673615
1927I44128407I43719071I43688825I44122452I44799456I45273124I45249382I44926629
1919I44783785I45007886I45318179I45349678I45004515I44449279I43964798I43766947
1911I43858154I44092755I44381500I44730267I45152924I45658483I46224610I46726723
1903I46999014I46960148I46620314I46038199I45285582I44367631I43279018I42182178
1895I41221052I40076022I38127755I35217107I31891562I28891431I26700337I25506803
1887I25259507I25700893I26448576I27118684I27499499I27620404I27600579I27541420
1879I27614840I28003021I28669995I29451604I30331710I31318459I32176703I32657031
1871I32882150I33205529I33770953I34400549I34847264I35044410I35135695I35324926
1863I35731600I36354459I37069231I37662472I37991726I38125718I38256495I38522987
1855I38959906I39505348I40000172I40292522I40395248I40451038I40523517I40553215
1847I40533548I40553215I40628595I40691751I40795885I41062063I41353240I41321192
1839I40898689I40494761I40567320I41137053I41809355I42214069I42336933I42361145
1831I42333875I42189778I41981740I41840071I41803165I41894765I42206545I42701998
1823I43086182I43079834I42735691I42292896I41789061I41080166I40257261I39746531
1815I39882323I40563794I41372516I41900720I42009557I41868045I41708353I41574912
1807I41391556I41159853I40992720I41053995I41473283I42188838I42925863I43422333
1799I43583356I43424214I43071921I42825567I42989723I43581476I44313251I44845843
1791I44963379I44611713I43974436I43486821I43530074I44049108I44614142I44902885
1783I44989628I45116723I45333459I45475598I45445666I45355163I45380865I45566022
1775I45781112I45872789I45871379I45974810I46246709I46491261I46506932I46278208
1767I45880782I45453579I45246717I45430386I45866521I46246082I46382109I46279383
1759I46047682I45832671I45759642I45871771I46085528I46245377I46300383I46383363
1751I46608090I46875129I46992040I46906709I46763551I46788704I47102288I47543984
1743I47724442I47367996I46603154I45855316I45454833I45422472I45612566I45916121
1735I46230567I46371845I46207138I45877334I45771787I46165374I46879441I47424648
1727I47532311I47376302I47197962I46984517I46697496I46559038I46832270I47424570
1719I47925663I48029564I47806874I47551430I47457402I47490625I47513348I47467196
1711I47433895I47510214I47613332I47519225I47184014I46891586I46945888I47326310
1703I47759232I48017184I48040926I47871361I47587552I47311579I47209871I47409369
1695I47837119I48186121I48185808I47938668I47856865I48183457I48679691I48899403
1687I48703824I48365010I48203125I48285321I48497041I48754051I49031436I49255301
1679I49319241I49245507I49203899I49304745I49476503I49589415I49606497I49599288
1671I49689164I49935831I50241345I50430342I50439353I50346108I50238368I50137757
1663I50038714I49966234I49981670I50106728I50235390I50193391I49928073I49594274
1655I49421967I49508159I49748480I49950014I49994286I49901824I49769793I49647008
1647I49475093I49198571I48887024I48653363I48523996I48502605I48647722I48971101
1639I49359046I49671923I49834202I49858180I49862568I50007293I50338664I50765553
1631I51160942I51408237I51423281I51235615I51014649I50960113I51153890I51484399
1623I51717590I51692359I51452741I51170030I50989808I50969516I51073026I51169561
1615I51116749I50921013I50757090I50732095I50709214I50483938I50058382I49619032
1607I49339692I49326292I49633687I50174115I50666039I50829884I50682416I50560336
1599I50756620I51176534I51480638I51520365I51437542I51376110I51356834I51497407
1591I52058756I53067680I54080521I54585453I54527939I54243504I54046044I54099484
1583I54477948I55100337I55771151I56409995I57042100I57521018I57533711I56990071
1575I56204935I55610597I55414000I55568596I55880772I56073373I55960304I55665134
1567I55462111I55393313I55273349I55011637I54662557I54273044I53935795I53873735
1559I54270929I55074636I56015154I56733450I56952225I56699837I56328268
1552I56136059I55994860I55555512I54801797I54158016I54017836I54395986
1545I55040707I55695693I56197099I56429349I56324821I56033725I55965397
1538I56378182I57041943I57613635I58130164I58765639I59372199I59665725
1531I59691113I59780675I60103975I60444671I60480637I60212030I59971396
1524I60025462I60311621I60536036I60425395I59973041I59451027I59066686
1517I58742210I58430271I58337262I58582754I58976733I59363581I59788981
1510I60165956I60206388I59860285I59485426I59420233I59603823I59708508
1503I59512302I59059633I58566612I58253733I58179999I58171850I58039740
1496I57877542I57897836I58020151I58002051I57919463I58074139I58511841
1489I59004314I59364443I59511911I59501254I59665020I60353699I61363642
1482I61988068I61821558I61246733I60978439I61328068I62047227I62703859
1475I63053801I63113900I63019715I62861746I62658803I62447631I62287391
1468I62138827I61856663I61395063I60950152I60782390I60903295I61070430
1461I61173469I61421234I61930632I62356265I62274854I61784027I61378137
1454I61365209I61686002I62153401I62619547I62996287I63246872I63307991
1447I63035622I62400069I61701517I61393809I61649174I62188270I62554509
1440I62552630I62429766I62538839I62846547I63035464I63061480I63167418
1433I63354299I63375456I63249850I63221171I63215059I62889878I62247116
1426I61710058I61536575I61514244I61341075I61065807I61005864I61312866
1419I61749549I61918017I61686080I61368186I61395768I61733956I61828690
1412I61414574I61133664I61833391I63367855I64682528I65052137I64697729
1405I64214110I63865422I63611467I63635287I64396760I65840173I67021639
1398I67086127I66192153I65033253I64060922I63426701I63065554I62684113
1391I62212090I62150110I62774615I63536636I63854060I63870044I63955297
1384I64095713I64127682I64054340I63835568I63292006I62464635I61768512
1377I61638753I62180042I63196097I64330705I65142405I65314712I64819026
1370I63823501I62715299I62192736I62776339I64093049I65113021I65235023
1363I64794578I64480759I64569300I64822865I64948158I64936013I64919949
1356I64892446I64729307I64407416I64067191I63899194I64020882I64439935
1349I65086144I65803267I66356622I66623899I66718163I66765412I66716282
1342I66555650I66468517I66644507I67162603I68043100I69078587I69749636
1335I69680838I69011043I68086431I67135646I66432473I66311098I66705469
1328I67017408I66812113I66437253I66564426I67175767I67472424I66934036
1321I66036771I65686045I66302714I67654528I69199490I70422330I71050126
1314I70979291I70171196I68903302I67765873I67120917I66995076I67489352
1307I68594576I69787795I70594323I71266234I72320683I73693889I74629705
1300I74205403I72192724I69499834I67435677I66712991I67322057I68692679
1293I69795474I69952267I69668850I70012993I71287545I72787769I73646718
1286I73569928I72887831I72078874I71438776I71217026I71634825I72668431
1279I74048924I75253270I75486617I74352635I72559515I71246018I70915822
1272I71535782I72939155I74661362I76100857I77095911I77791643I77882614
1265I76551174I73514138I70102399I68793133I70791783I74376926I77016928
1258I78040113I78152398I78145189I78704031I80178003I81855781I82209091
1251I80532567I78055941I76807556I77539804I79266084I80650652I81239348
1244I81244284I80788717I79841460I78649024I77783885I77654048I78055471
1237I78283411I77725196I76480183I75410218I75275758I75765489I75869390
1230I75330060I74944935I75075556I74837663I73527223I72012976I71758864
1223I72992046I74601654I75437094I75204845I74546961I74532778I75563407
1216I76720347I76850498I76058309I75314075I75039199I74895884I74615288
1209I74313614I74151336I74163952I74363370I74741834I75108780I75045467
1202I74303976I73328902I73050656I73999872I75909509I78132966I79906810
1195I80347176I79194389I77650052I77375724I78545907I79927731I80802978
1188I81398177I81386894I79829942I76962940I74526744I73878889I74764949
1181I76355830I78319690I80199238I80831422I79495828I77279188I76157274
1174I76741738I78052571I79515887I81553167I83954807I85531897I85727868
1167I85235865I84898538I85080324I85929087I87190949I87992775I87769458
1160I87089476I86769075I86760377I86444597I85320020I83334690I81390890
1153I81037892I82732909I85255689I87258571I88312628I88508599I88092445
1146I87449527I86932998I86828234I87184758I87328935I86497333I85206403
1139I84675769I84922045I84847840I84063253I83303034I83335239I84500093
1132I86827137I89691867I91753986I91954893I90618751I89223292I88996527
1125I89804152I90388382I89500284I86983616I84227254I83111530I84091305
1118I86041139I87846169I89166562I89915498I90071663I89978182I90037108
1111I90193116I90145318I89794593I89197043I88481801I88008211I88101691
1104I88477021I88332766I87157804I85150691I82960064I81320839I80550982
1097I80133496I79288417I78088929I77480096I78109694I79761301I81707687
1090I83097896I83529564I83407798I83488270I84120689I84873777I85065203
1083I84744410I84699512I85404176I86422502I86926259I86459017I85172161
1076I83604630I82149934I80675021I78988467I77503994I76898452I77221361
1069I77905965I78554056I79157169I79904616I81020340I82451686I83771530
1062I84642546I85127340I85369777I85345251I85083069I84769719I84442187
1055I83914218I83250065I82749127I82420343I81984601I81416983I81053720
1048I81084750I81450128I82202590I83392675I84621155I85194257I84843453
1041I84143648I84145058I85346503I86878931I87652628I87769066I87825797
1034I87968014I87911988I87551391I87267503I87607729I88647839I89728930
1027I90358763I90799599I91212383I91170932I90484369I89728225I89557015
1020I89851402I89870599I89251501I88395922I87846953I87662579I87558991
1013I87457989I87511272I87793905I88262715I88833937I89327507I89539698
1006I89482340I89385178I89523399I90086943I90874665I91213167I90787610
999I90014306I89485553I89436345I89580992I89478501I88960875I88160067
992I87289443I86469438I85837801I85747849I86450632I87466295I88155836
985I88484073I88642903I88858933I89532646I90770685I91829993I92128219
978I92213628I92684318I93257813I93527909I93708678I94197469I94955024
971I95661725I96195492I96538461I96677779I96795391I97136167I97422170
964I97025919I96099113I95751287I96732081I97840753I97873193I97330101
957I96804482I96351188I95939500I95560880I95071540I94436614I93969529
950I93991233I94005886I92934042I90813703I88561332I86855111I85920233
943I85796509I86496941I87615565I88386205I88838403I89920199I91812676
936I93069286I93251387I93272150I93279361I92977765I92634797I92521101
929I92340880I91863608I91704230I92649528I93895325I94241035I94019834
922I93939910I94528840I95997014I97698457I98696881I99202048A000221001
915A001829121A002766661A002540602A001899250A001721223A002138317A002602739
908A002775124A002684385A002686659A003943896A007498167A010655638A011421261
901A011456602A012308733A013845862A014635229A014470680A014140562A014094488
894A014513619A016006241A019341190A023279566A025489702A026116792A026573222
887A027966486A030596615A034071667A038064031A041429696A040841862A032349695
880A011180942I71514390I20092496H82562425H70855194H76687143H90429617
873I05750749I18882900I28660984I35727525I41189866I45747418I49628280
866I52994964I56139742I59419606I63052469I66843220I70396942I73633946
859I76706713I79584449I82076357I84089816I85678266I86893898I87659053
852I87995753I88521606I90306185I93146781I95351666I96629746I98178158
845A000906703A004073107A006444265A007951853A008854212A009202351A009752104
838A012771902A018670533A022888879A024846078A026499018A028436001A030656948
831A033066661A035219439A036936396A038822918A041604275A045882721A053091715
824A063164575A070962424A073741823A072545704A068023961A061071350A053022918
817A042425848A024066740I92871591I51698079I11200943H80538700H65255102
810H65472778H75347710H89541755I03661907I14170279I20945568I25655604
803I29628457I34835117I44137653I55238637I62318264I66111680I69343825
796I73421442I78787168I84962869I90395826I93766113I95279108I95950157
789I96704264I97959777I99700946A001903090A004621292A007991109A011981515
782A016071042A019808589A023483608A027785638A033592201A041884715A051760039
775A060274225A066101082A068566424A063558556A043375142A005138369I54750003
768H97829176H38034217G90241738G80059176G99392416H17488480H17903302
761G97443445G65224482G39918173G34696937G46510890G65316475G84309648
754H00812715H15444618H30991417H48310337H63428210H73794754H81490502
747H88843908H95855757I01306735I05037074I07707713I09516113I10387285
740I10830942I11774280I13427142I15077026I16544181I18345842I20799903
733I23700676I26638591I29497287I32666669I36581459I40911463I44934622
726I48651169I52468092I56198509I59368517I62079667I64451845I65953945
719I66067878I64724919I62184666I59359898I57739633I58207111I60552961
712I63979980I67568884I70684982I73307824I75882790I78612118I81065239
705I82937891I84573200I86299403I87997006I89654412I91718334I94428700
698I97237875I99559669A001557925A003685161A006071757A008525426A010896272
691A013225040A015508517A017560686A019199442A020369938A021031819A021116602
684A020572491A019086530A015318188A006687799I91040232I69154671I45769201
677I27350227I17216873I12285168I05044439H89351034H65359787H39706589
670H20838474H13702194H17823143H29037274H42853638H56646731H69520227
663H81343504H92189749I02100412I11037726I19036245I26282381I32977275
656I39238543I45149085I50782086I56175786I61366854I66404185I71255029
649I75807252I80096824I84429337I89137883I94302154I99777736A005371716
642A010929887A016363156A021506741A025425606A025250399A016058661I93741980
635I59757481I22635962H92950047H76376537H72055308H76143816H85348876
628H97838422I12501512I28168981I43605218I57997114I71165937I83396044
621I95248235A007371385A020192381A033548948A046220126A055167861A054930752
614A038659465A001689410I45752041H80174967H18484240G72609939G48395531
607G44461229G54371031G70592952G87718488H03257216H16614174H27873908
600H37232153H44959403H51432704H57002158H61864206H66127606H69950720
593H73574258H77248336H81090803H84984124H88701847H92156917H95406536
586H98439028I01175409I03712763I06365537I09434935I13060197I17213193
579I21644826I25837627I28962893I29619916I25664380I14969677H97142767
572H74870281H53451962H38365510H32419943H34723636H42114339H51385611
565H60512784H68717381H76028632H82721097H88934959H94691058I00005305
558I04787977I08797658I11833361I13828408I14711883I14417574I13102745
551I11157299I08905164I06432846I03689178I00349448H95464912H88164162
544H79640886H73741158H74092119H80656312H90030075H98772985I05532681
537I10477082I13959499I16052961I16936357I17326967I18189912I19949417
530I22272621I24673478I27006085I29328506I31624365I33754028I35403363
523I35939089I34538851I30707275I24736869I17892704I12370656I10500432
516I13035434I18265134I23459259I27045734I29007478I29835711I29962100
509I29889777I30107296I30787121I31798239I32986050I34367562I36060307
502I38058252I40123663I41962857I43498496I44893798I46267395I47475580
495I48322148I48918680I49608456I50538083I51522166I52345699I53008754
488I53646265I54326797I54980137I55522289I56033725I56714411I57626564
481I58579463I59303481I59673169I59761634I59725668I59647311I59560492
474I59651934I60256928I61539083I63294513I65118190I66668014I67806227
467I68620745I69325803I70113212I71090636I72255412I73446202I74386248
460I74852866I74797703I74244111I73145466I71552549I69917868I68907455
453I68836072I69577172I71038294I73319891I75814306I75557216I67283508
446I47911088I22292759I01928106H95526971I02025190I13901123I24964887
439I33355583I39575399I44418563I48384913I51627871I54161699I56202819
432I58119584I60044738I61794291I63238722I64529967I65832024I67054627
425I68029074I68757872I69331445I69747520I69923118I69829481I69595116
418I69459793I69610082I70143066I71148855I72643357I74414694I76110573
411I77477980I78445453I79080301I79584371I80258395I81300780I82591553
404I83750531I84457545I84638236I84263769I83026824I80319672I75486617
397I67987310I57562782I44981949I32895079I25082814I23871730I28315038
390I35220713I41642534I46261205I49171381I51079843I52571367I53767799
383I54522298I54783461I54648139I54184344I53384712I52263032I50922188
376I49545379I48278269I47061229I45730493I44386907I43466213I43367483
369I44254327I46174697I49084405I52812863I57172251I61938155I66727252
362I71197202I75250606I78661405I80552158I79643609I75295896I68324088
355I60674492I54321310I50521158I49703033I51428218I54424117I57062473
348I57900030I55243730I45591096I23757799H88135483H47213653H16963019
341H07804739H14874963H22422146H16816335G96259550G71227644G56099036
334G58250639G74427114G96864074H20500364H43776370H65636230H84527617
327H99683650I11602444I21041869I28286359I33344378I36198451I36878274
320I35722197I33416231I30627508I27977241I26237090I25895454I26667427
313I27980454I29745992I32281387I35704488I39658066I43564628I47102288
306I50421801I53816144I57253350I60500148I63730491I67595839I72387914
299I77470771I81973787I85805596I89592510I93786722I98205269A002446652
292A006483052A010646862A015194776A020128991A025204874A029921100A033881965
285A037184788A039922109A041665394A042235127A042434467A042923649A042144155
278A035670618A019108000I94108377I70834409I59748235I59173174I55035927
271I35341696I02341595H68805298H44400248H27332149H07574761G75614614
264G28223870F69002641F06587896E52429464E17379820E07209404E19974806
257E47793790E81315591F13289451F40022447F61407895F79901620F98513115
250G18659387G39386991G58575976G74813649G88027997G98663384H06912645
243H13130111H18612276H25263761H34155312H44668933H55393804H65669453
236H75943850H86801691H98185857I09752516I21412654I33046151I43561260
229I48702963I38027928H97701611H24466400G38674491F75600057F57836621
222F79082085G16609336G53011930G82709050H05920410H23970714H38222117
215H49479657H58081917H64579430H69647948H73852425H78096079H83554894
208H89637664H94227578H97326828I00080763I02810640I05035820I06728408
201I08764121I11591708I14310068I15871173I16637504I17841850I19832430
194I21837740I23393831I25052020I27526689I30806162I34231456I37154092
187I39529482I41898056I44686465I47720524I50530090I52818426I54650724
180I56480516I58710711I60954932I62224549I62220396I62069951I63092195
173I63984681I59769705I46461328I27639679I13345416I11048226I19492674
166I31875028I42485106I49551961I54234571I58259922I62009694I64746154
159I66341501I67656879I69339828I71398657I73907803I77236641I81363779
152I85347523I87792887I88146120I87526473I87675586I88854936I88722592
145I82270447I62679803I25660305H75871840H26388496G89516858G69360712
138G63820563G71593963G93314426H26218305H62131403H92547605I14303721
131I29489452I41198015I50596067I57336252I61479688I64516960I68343048
124I73271388I77654205I79849217I80043543I79923265I81114760I83912965
117I87117528I89421849I90992200I93082920I96247130I99697107A002288527
110A003522022A003842502A004064801A002783038I93974385I70892001I36098859
103I06383873H99801888I16206933I39927849I58713767I70902971I79240619
96I85348307I89604969I92674288I95708426I99246711A002524225A004591124
89A005512210A005666652A005116508A004183903A003468505A003082597A002698961
82A002183843A001705709A001617792A002167309A002865548A002588243A000497601
75I96422101I90895586I85088084I79675343I73608323I64945494I53055848
68I38812751I23371656I07812317H92497457H76446901H58411721H38230031
61H16797058G95824747G77162085G60940084G45546238G29317419G11604130
54F92969833F74783580F58214380F43103755F28596360F15227923F04614398
47E96438910E87427001E73957914E55799596E36796903E21570819E12331753
40E08077559E06186336E05146109E05726733E09451783E16305390E25393541
33E37415571E52667865E66577083E73689581E72788202E68170471E67198649
26E73744431E85695391E98765092F09830580F17399938F21804930F24959541
19F28406423F31696591F33849762F35623880F38275440F42834285F50114545
12F58506103F63517969F62933504F61723047F66952667F76769693F83283505
5F84286004F85051159F92824167G08838914G23363312
$$ === CHEMSPECTRA INTEGRALS AND MULTIPLETS ===
##$OBSERVEDINTEGRALS= (X Y Z)
##$OBSERVEDMULTIPLETS=
##$OBSERVEDMULTIPLETSPEAKS=
$$ === CHEMSPECTRA SIMULATION ===
##$CSSIMULATIONPEAKS=
##END=


$$ === CHEMSPECTRA PEAK TABLE EDIT ===
##TITLE=ZZ-179
##JCAMP-DX=5.00
##DATA TYPE=INFRAREDPEAKTABLE
##DATA CLASS=PEAKTABLE
##$CSCATEGORY=EDIT_PEAK
##$CSTHRESHOLD=0.93
##MAXX=3997.453
##MAXY=0.8167752076724094
##MINX=373.96442
##MINY=0.3842551433179897
##$CSSOLVENTNAME=- - -
##$CSSOLVENTVALUE=0
##$CSSOLVENTX=0
##NPOINTS=19
##PEAKTABLE= (XY..XY)
385.29667513682534, 0.503360274842386
410.79424919468283, 0.43145734328771235
426.3761000078184, 0.3842551433179897
568.0292892181387, 0.58102393480931
688.4345000469116, 0.500403943687859
739.4296481626266, 0.3858246530139108
847.0860719624702, 0.5751503144623329
855.5852633150898, 0.6144818701501594
1000.0715163096165, 0.6812105219773755
1141.7247055199373, 0.664638463819418
1178.5545347146208, 0.6332061928209722
1232.3827466145422, 0.5662976535845825
1266.3795120250193, 0.6633560694352566
1320.207723924941, 0.618967953998212
1446.2790623221263, 0.558870140326515
1456.194785566849, 0.5933763422700995
1521.3552526035965, 0.6581832806429314
1613.4298255903045, 0.6624431652896009
3395.4269458561375, 0.5649334228359573
##END=


$$ === CHEMSPECTRA PEAK TABLE AUTO ===
##TITLE=ZZ-179
##JCAMP-DX=5.00
##DATA TYPE=INFRAREDPEAKTABLE
##DATA CLASS=PEAKTABLE
##$CSCATEGORY=AUTO_PEAK
##$CSTHRESHOLD=0.93
##MAXX=3997.453
##MAXY=0.8167752076724094
##MINX=373.96442
##MINY=0.3842551433179897
##NPOINTS=209
##PEAKTABLE= (XY..XY)
3990.370340539484, 0.7157753153896197
3979.0380854026585, 0.7158245489582801
3964.872766481626, 0.7156446022159737
3950.707447560594, 0.7160978358466866
3945.0413199921813, 0.715742234886029
3933.709064855356, 0.716700737304938
3926.62640539484, 0.7168995185135087
3919.543745934324, 0.7175915284484004
3905.3784270132915, 0.7152876297471304
3894.046171876466, 0.7169728915390526
3886.96351241595, 0.717125181434653
3871.381661602815, 0.7166783253550371
3864.299002142299, 0.7178731607701424
3854.383278897576, 0.7127354781754169
3841.6344918686473, 0.7157040281518988
3823.2195772713058, 0.7158042828900161
3817.553449702893, 0.7177261751044799
3809.054258350274, 0.7169675873091147
3801.9715988897574, 0.7166646163586309
3787.8062799687254, 0.7181524676894866
3772.2244291555903, 0.7194766447700524
3760.8921740187648, 0.7203612371224974
3752.392982666145, 0.7156733316231576
3745.310323205629, 0.7198160926656404
3736.81113185301, 0.7181727329970694
3726.8954086082877, 0.7200215503730159
3714.146621579359, 0.719963555278409
3704.2308983346365, 0.7218481938922737
3691.4821113057073, 0.7197130363387003
3677.3167923846754, 0.7218806194493599
3671.6506648162626, 0.7250919978787196
3658.901877787334, 0.7242070472454339
3650.4026864347147, 0.7227429192788508
3630.5712399452696, 0.7229227458335291
3620.655516700547, 0.7234761756299077
3613.572857240031, 0.7247209588933109
3600.8240702111025, 0.7260580705968315
3596.574474534793, 0.7263568091171742
3589.491815074277, 0.727438633170606
3575.3264961532445, 0.7279828237332509
3568.2438366927286, 0.7280885021282527
3554.0785177716966, 0.7284836813312261
3546.9958583111807, 0.7299103176039977
3537.0801350664583, 0.7313681288739792
3529.997475605942, 0.7323467178403914
3517.248688577013, 0.7328294560124209
3508.749497224394, 0.7349340364641997
3498.8337739796716, 0.736984613876257
3488.9180507349492, 0.7386070532907407
3471.919668029711, 0.7415468738600387
3447.838625863956, 0.7467220473878945
3395.4269458561375, 0.5649334228359573
3304.768904761532, 0.6970880074655124
3255.1902885379204, 0.705831531891571
3241.024969616888, 0.7084385202095904
3232.525778264269, 0.7089553521125557
3216.9439274511337, 0.7113003770423629
3208.444736098514, 0.7121609486041901
3205.6116723143077, 0.7121486111159695
3195.6959490695854, 0.7122281829325307
3174.4479706880375, 0.7145320215399865
3154.6165241985927, 0.7153446717082061
3148.95039663018, 0.7157319230918173
3139.034673385457, 0.7164176741418775
3124.869354464425, 0.717407946410687
3119.2032268960124, 0.7174801867819388
3110.7040355433933, 0.7184371990263967
3099.3717804065673, 0.7178463383907018
3090.872589053948, 0.7186792538665042
3080.9568658092257, 0.717905764326627
3045.543568506646, 0.7038275036042545
3035.6278452619235, 0.7055633111398898
2988.8822928225172, 0.7154461785275622
2976.1335057935885, 0.7154166739862456
2960.5516549804533, 0.7164119522979664
2944.969804167318, 0.714847509499452
2929.387953354183, 0.7157954620309368
2916.6391663252543, 0.7171896742679847
2905.3069111884283, 0.717692677747597
2891.1415922673964, 0.719113890363484
2884.05893280688, 0.719506566164661
2872.7266776700544, 0.7190313975311533
2861.394422533229, 0.719421569930534
2847.229103612197, 0.7201852246233057
2834.480316583268, 0.7191650910537017
2824.564593338546, 0.7194308084035865
2811.815806309617, 0.7200296554310952
2801.9000830648943, 0.7207130240276685
2796.2339554964815, 0.7206951426949351
2789.1512960359655, 0.7202826184394674
2776.4025090070363, 0.7205247318520265
2767.903317654417, 0.7210168880178693
2759.404126301798, 0.7212802814867187
2748.0718711649724, 0.7220415514439599
2740.9892117044565, 0.7223423164189927
2726.8238927834245, 0.7226214453389385
2716.908169538702, 0.7222074316697008
2698.4932549413606, 0.7215080902895
2675.828744667709, 0.7233774703993745
2664.496489530883, 0.723384623084604
2647.4981068256448, 0.7221346534968475
2638.9989154730256, 0.7230733675552798
2629.0831922283032, 0.7236792486017525
2617.7509370914777, 0.7257248800647124
2600.7525543862394, 0.72676545846266
2582.3376397888974, 0.7255938086102258
2563.922725191556, 0.7257034227697049
2552.59047005473, 0.7271848957887824
2532.759023565285, 0.7302321838752412
2518.593704644253, 0.7289891288795018
2505.8449176153244, 0.7298129245485173
2491.6795986942925, 0.728639428522835
2486.0134711258797, 0.728671317039001
2477.51427977326, 0.7298745556992123
2467.5985565285378, 0.7309982225428624
2446.3505781469894, 0.7308490917562441
2432.1852592259575, 0.7312924312067187
2418.0199403049255, 0.7313141866887527
2410.9372808444095, 0.7321022196923016
2385.439706786552, 0.7310190842244982
2378.357047326036, 0.7312946957546214
2371.27438786552, 0.7311162992805802
2359.942132728694, 0.7330011174152058
2341.527218131352, 0.7318894906334309
2323.1123035340106, 0.7315005109821561
2310.363516505082, 0.7319219154298359
2301.8643251524627, 0.7336623714882232
2287.6990062314308, 0.7332199859319609
2272.1171554182956, 0.7351744216090953
2256.53530460516, 0.7350546759368467
2250.8691770367473, 0.7351506396723712
2242.369985684128, 0.7345792098769935
2226.7881348709925, 0.7355749651358204
2208.373220273651, 0.7353603883823393
2201.290560813135, 0.7376088547239316
2188.5417737842063, 0.738786523085941
2175.7929867552775, 0.7385574028687882
2160.2111359421424, 0.7369427132742683
2151.7119445895232, 0.744056646361295
2141.7962213448004, 0.7430391348597528
2127.6309024237685, 0.7436830446409571
2119.131711071149, 0.7418739241735921
2113.465583502736, 0.7416222733402726
2106.38292404222, 0.7391986890605682
2097.883732689601, 0.7413087532630459
2083.718413768569, 0.7410185975085699
2072.3861586317435, 0.7401813309363606
2061.053903494918, 0.7434713288094316
2048.305116465989, 0.740811352200398
2036.9728613291632, 0.7425444768134761
2024.2240743002344, 0.7491937919151003
2005.8091597028927, 0.7462570711216515
1993.060372673964, 0.7506616753647185
1985.977713213448, 0.7490243357270852
1980.311585645035, 0.7479801220337305
1967.5627986161062, 0.7523110550642271
1959.063607263487, 0.7478344485431208
1949.1478840187647, 0.7530577815577966
1939.2321607740419, 0.7515592616732512
1922.2337780688035, 0.7435507226265943
1913.7345867161844, 0.7480598140379197
1905.2353953635652, 0.7490423965805794
1889.6535445504296, 0.7431082769765179
1858.4898429241593, 0.7462691111835268
1847.1575877873338, 0.7486195612915811
1832.9922688663014, 0.7509958190303686
1818.8269499452695, 0.7527374077430479
1807.494694808444, 0.7511407181475269
1796.1624396716184, 0.7526066945694019
1784.8301845347928, 0.7526456163438506
1773.4979293979668, 0.7498398468172603
1735.2515683111806, 0.7574492739391916
1719.669717498045, 0.7560939241434596
1708.3374623612194, 0.7498768615639657
1685.6729520875683, 0.7543707538044337
1678.5902926270523, 0.7560713935272929
1613.4298255903045, 0.6624431652896009
1521.3552526035965, 0.6581832806429314
1456.194785566849, 0.5933763422700995
1446.2790623221263, 0.558870140326515
1385.3681909616885, 0.7285345237406033
1320.207723924941, 0.6189679532375308
1266.3795120250193, 0.6633560694352566
1232.3827466145422, 0.5662976535845825
1178.5545347146208, 0.6332061928209722
1141.7247055199373, 0.664638463819418
1104.8948763252538, 0.6926005521092741
1093.5626211884282, 0.7073496621371946
1045.4005368569192, 0.7299196169315455
1014.2368352306485, 0.7369753761638858
1000.0715163096165, 0.6812105219773755
964.6582190070367, 0.7374498289963937
927.8283898123532, 0.7027718469837587
896.6646881860825, 0.7176018995757448
871.167114128225, 0.7224212332890493
855.5852633150898, 0.6144818701501594
847.0860719624702, 0.5751503144623329
818.7554341204063, 0.7043112557643103
739.4296481626266, 0.3858246530139108
688.4345000469116, 0.500403943687859
620.4409692259574, 0.7318285151899218
610.525245981235, 0.693017248701069
583.6111400312743, 0.7511928126381429
568.0292892181387, 0.58102393480931
542.5317151602812, 0.7454091953288854
517.0341411024233, 0.6844623716887679
426.3761000078184, 0.3842551433179897
410.79424919468283, 0.43145734328771235
385.29667513682534, 0.503360274842386
##END=

##END=

