##TITLE=X7496
##JCAMP-DX=4.24
##DATA TYPE=INFRARED SPECTRUM
##DATE=29/10/2018
##SAMPLING PROCEDURE=Diamant-ATR
##ORIGIN=ComPlat
##XUNITS=1/CM
##YUNITS=TRANSMITTANCE
##RESOLUTION=4
##FIRSTX=3997.453
##LASTX=373.96442
##DELTAX=-1.4165319
##MAXY=0.97221863
##MINY=0.54461378
##XFACTOR=1
##YFACTOR=9.0544916e-010
##NPOINTS=2559
##FIRSTY=0.96233761
##XYDATA=(X++(Y..Y))
3997+1062828985+1063472199+1063957686+1063833533+1063302492+1062766448
3989+1062388722+1062274444+1062583444+1063191176+1063680481+1063904694
3980+1064113635+1064398081+1064510253+1064286765+1063817668+1063263587
3972+1062813911+1062645126+1062673629+1062605628+1062361667+1062159111
3963+1062171619+1062381942+1062712732+1063092432+1063400643+1063421840
3955+1062966765+1062207035+1061730763+1061952080+1062572977+1062890075
3946+1062588908+1062052337+1062011984+1062825562+1063906077+1064456537
3938+1064486687+1064317046+1063788572+1062766580+1061897508+1061933845
3929+1062596017+1063057675+1063037729+1062871445+1062923976+1063008830
3921+1062563630+1061450596+1060300962+1059981889+1060731548+1062076167
3912+1063491552+1064729266+1065552718+1065530337+1064413024+1062690482
3904+1061474558+1061426173+1062142654+1063033647+1063912001+1064673377
3895+1065062491+1064805693+1064006531+1063451331+1063757830+1064325209
3887+1064166890+1063063007+1061734976+1060809094+1060337102+1060592517
3878+1061800805+1063348967+1064313359+1064112582+1062793109+1061117568
3870+1060324528+1061117239+1062665401+1063755329+1063953934+1063446657
3861+1062639991+1061902708+1061478573+1061429531+1061569549+1061386084
3853+1060624115+1060400560+1061409387+1062994808+1064303814+1064764353
3844+1064229428+1063006657+1061692583+1060820219+1060700542+1061398328
3836+1062546053+1063499320+1063757106+1063269380+1062587789+1062397346
3827+1062871445+1063663695+1064306447+1064472797+1064003766+1063185646
3819+1062585287+1062277406+1062219674+1062718656+1063648093+1064169128
3810+1063666920+1062354228+1061328549+1061627544+1062579758+1062542433
3802+1061032188+1059562099+1059922512+1061980847+1064558901+1066395788
3793+1066819726+1066256363+1065629146+1065501899+1065760211+1065934262
3785+1065700307+1065064071+1064143719+1063006262+1061899219+1061287077
3776+1061351458+1061894743+1062642229+1063281822+1063500374+1063260098
3768+1062908770+1062841361+1063251146+1063995801+1064522300+1064206058
3759+1062903701+1061361332+1060613385+1060810937+1061250081+1061070105
3751+1060048903+1059147443+1059061142+1059253493+1059082536+1058551034
3742+1058253027+1058190951+1057706780+1056473740+1055098510+1054765285
3734+1055682149+1057075350+1058733380+1060570925+1061962086+1062334611
3725+1061921601+1061562768+1061630769+1061797250+1061838723+1061935623
3717+1062184061+1062312888+1062033773+1061516622+1061379435+1061903696
3708+1062681595+1063318291+1063625317+1063545664+1063328495+1063366675
3700+1063581738+1063576208+1063392809+1063465879+1064103760+1065276962
3691+1066672796+1067641533+1067404351+1065997458+1064245424+1062769147
3683+1061859261+1061637484+1062022977+1062676460+1063079464+1062874276
3674+1062255485+1061437167+1060189842+1058848515+1058973128+1061202158
3666+1064001857+1065806028+1066097913+1065230552+1063815035+1062302289
3657+1061370285+1061844318+1063234557+1063863419+1062962947+1061193139
3649+1059655181+1058698096+1058496396+1059409376+1061053187+1062492271
3640+1063213557+1063524533+1063798512+1063778895+1062974730+1061399249
3632+1059517664+1057695391+1056403369+1056533381+1057992213+1059643003
3623+1060820614+1061551841+1062124749+1062562115+1062590290+1062201637
3615+1061676850+1061302876+1061358041+1061921074+1062871182+1064141217
3606+1065422180+1065972311+1065363461+1063943928+1062492337+1061603977
3598+1061323744+1061271871+1061085838+1060840824+1060764265+1060595940
3589+1059883541+1058920334+1058931459+1060352374+1061966167+1062531110
3581+1061952804+1061219866+1061186030+1061520440+1061514911+1061265419
3572+1061160488+1060980841+1060392398+1059724696+1059524181+1059517138
3564+1059201686+1058824290+1058781567+1059101955+1059659789+1060287137
3555+1060536365+1059917772+1058650436+1057641082+1057297522+1057098982
3547+1056519096+1055680766+1055056446+1055017607+1055747846+1056947708
3538+1057682752+1057221160+1056011556+1055113124+1054812023+1054576883
3530+1053992455+1053127925+1052252599+1051649212+1051612480+1052205926
3521+1052893508+1052786931+1051548757+1049896388+1048917975+1048825024
3513+1048723253+1047774331+1046274355+1045245714+1045064422+1045072584
3504+1044562279+1043550293+1042524614+1041725979+1040980994+1040121863
3496+1039250882+1038502671+1037698046+1036497131+1034923229+1033516731
3488+1032840537+1032814469+1032622447+1031426139+1029189935+1026669481
3479+1024507531+1022714091+1021167443+1020033410+1019384338+1018739742
3471+1017375242+1014972359+1011773144+1008247353+1004765009+1001421234
3462+998006299+994287366+990337834+986368423+982335749+978048253+973594473
3452+969380112+965774734+962913879+960771810+959281379+958454899+958531523
3442+959907412+962695393+966322890+969888508+973035191+976199648+979886193
3432+984009381+988126908+991979868+995553649+998819285+1001622407+1003789097
3422+1005321789+1006514673+1007819137+1009587759+1011898614+1014455669
3414+1016702472+1018282758+1019369987+1020416402+1021751805+1023428992
3405+1025190834+1026602665+1027443035+1027864406+1028081246+1028168140
3397+1028230743+1028485501+1029090467+1029996008+1030917414+1031536864
3388+1031898856+1032377498+1033053691+1033524367+1033684331+1034150531
3380+1035357305+1036761762+1037554539+1037750709+1037949380+1038370355
3371+1038669481+1038525185+1038079063+1037864395+1038274969+1039072683
3363+1039749206+1040385309+1041504333+1042960664+1043767265+1043349515
3354+1042317714+1041621311+1041530270+1041826236+1042416458+1043258935
3346+1044023536+1044318779+1044176918+1044058162+1044359461+1044962453
3337+1045324050+1045116097+1044665302+1044586044+1045138742+1046072392
3329+1046926587+1047443475+1047782888+1048254025+1048846945+1049235664
3320+1049165030+1048667628+1048054761+1047785982+1048150674+1049001116
3312+1049850835+1050199003+1049878219+1049252714+1048944833+1049247184
3303+1049934240+1050562378+1050781588+1050505634+1049953264+1049437166
3295+1049135275+1049137711+1049501152+1050119350+1050731953+1051143647
3286+1051301965+1051202169+1050932995+1050830762+1051330337+1052441199
3278+1053477278+1053676608+1053122263+1052608535+1052551725+1052639409
3269+1052640594+1052785220+1053110809+1053224956+1053085004+1053271563
3261+1054034322+1054706105+1054524220+1053571150+1052519601+1051799960
3252+1051368716+1051125741+1051245945+1051991851+1053290061+1054636195
3244+1055534626+1056061191+1056746206+1057704344+1058196678+1057511400
3235+1056022813+1054790366+1054355435+1054452730+1054592023+1054478074
3227+1054147876+1053970468+1054242604+1054706368+1054862514+1054757385
3218+1054924261+1055448325+1055725530+1055427523+1055084752+1055275261
3210+1055769240+1055992334+1055893064+1055809132+1055769833+1055446876
3201+1054768115+1054238457+1054505393+1055693866+1057240514+1058329718
3193+1058475134+1057821388+1056924338+1056158552+1055499737+1054985416
3184+1054968301+1055603286+1056487564+1057122746+1057413117+1057496259
3176+1057392447+1057104578+1056837115+1056802818+1056925721+1057015511
3167+1057083315+1057223135+1057422136+1057711388+1058144344+1058486456
3159+1058365924+1057783799+1057065804+1056472753+1056178366+1056294686
3150+1056683866+1057070215+1057325367+1057389090+1057229192+1057080287
3142+1057222016+1057478222+1057506528+1057429772+1057555702+1057759772
3133+1057731334+1057530227+1057464859+1057687426+1058143817+1058612189
3125+1058755893+1058462165+1058078515+1058011370+1058189305+1058202602
3116+1057890639+1057478090+1057100035+1056472160+1055204363+1053273933
3108+1051026866+1048830159+1046932973+1045650891+1045423057+1046452685
3099+1048313469+1050193605+1051627357+1052795950+1054000881+1055111347
3091+1055771742+1055999246+1056293303+1057098390+1058278305+1059268173
3082+1059707778+1059702578+1059447952+1058927707+1058134272+1057362890
3074+1057080550+1057517390+1058418850+1059208532+1059406743+1058945744
3065+1058243745+1057973979+1058453344+1059222027+1059587640+1059463751
3057+1059184176+1058764385+1058069365+1057443991+1057399886+1057853907
3048+1058290681+1058542871+1058875439+1059314385+1059421620+1058982081
3040+1058511405+1058601656+1059059167+1059271991+1059186348+1059265211
3031+1059666635+1060031327+1059986234+1059477575+1058720280+1058036055
3023+1057693614+1057825996+1058366187+1058915002+1058897820+1058174427
3014+1057309305+1056942639+1057101154+1057348408+1057356241+1057131107
3006+1056845870+1056560832+1056104572+1055312256+1054243197+1052933006
2997+1051184526+1048930219+1046429316+1043767199+1040552975+1036379165
2989+1031219042+1025365610+1019383877+1014019750+1009724420+1006181711
2980+1002406165+997405084+991007379+984123726+977971826+973076137+969179334
2970+965848199+962885770+960348070+958343385+956788969+955461728+954250807
2961+953101107+951745823+949729816+946667986+942460077+937429900+932236138
2951+927476056+923402240+919963145+916860370+913510868+909201846+903464733
2941+896269578+887894243+878819544+869759524+861356805+853595851+845927716
2931+838251813+831352821+826204350+823341784+823002239+825401304+830634168
2921+838254446+846790337+853789849+856748130+854275402+846828649+836909958
2911+828395396+824765134+827338646+834920282+844884000+854736664+863304285
2901+870892372+878387773+886221467+894097490+901416733+907770727+913105560
2891+917516288+920950775+923160582+923979032+923654035+922872252+922413096
2881+922755669+923940851+925657074+927421682+928808958+929626091+929950825
2871+930015995+929929364+929413135+927949497+925291461+921739931+917904349
2861+914263423+910921492+907730242+904676970+902064225+900107200+898369188
2851+895870984+891942847+886922478+881923636+878000436+875506643+873953412
2842+872366082+870208345+868303983+868590997+872599708+880197275+889898072
2832+900156308+910178548+919782840+928868336+937051647+943630908+947902803
2822+949701510+949775962+949664975+951090037+955139101+961677812+969488466
2812+977130073+983779770+989394507+994294936+998696975+1002550462+1005722686
2802+1008229908+1010231368+1011931858+1013575998+1015367924+1017299539
2793+1019187641+1020885564+1022363157+1023655377+1024847339+1026044766
2785+1027271156+1028425267+1029377349+1030102454+1030683064+1031192711
2776+1031635278+1032004380+1032325032+1032652464+1033067713+1033615408
2768+1034275013+1035111039+1036300566+1037784216+1039076106+1039715172
2759+1039768164+1039680217+1039774023+1040030426+1040249834+1040331659
2751+1040395974+1040589905+1040820635+1040855920+1040689175+1040568248
2742+1040591288+1040529211+1040226004+1039958936+1040140624+1040780151
2734+1041463915+1041831239+1041860072+1041698726+1041467667+1041282622
2725+1041237990+1041257936+1041160575+1040944854+1040808589+1040844926
2717+1040952161+1041030366+1041040635+1040928858+1040735190+1040725710
2708+1041179271+1042042747+1042926631+1043427588+1043406984+1043005428
2700+1042471359+1041991664+1041666536+1041535931+1041519474+1041415465
2691+1041141485+1040894166+1040832024+1040725118+1040250953+1039545926
2683+1039105729+1039161025+1039470816+1039724125+1039840313+1039822868
2674+1039639074+1039407291+1039435334+1039855585+1040408745+1040737625
2666+1040733017+1040526644+1040315202+1040196052+1040089409+1039903443
2657+1039770008+1039941097+1040497548+1041296512+1042063154+1042484656
2649+1042481431+1042419881+1042749486+1043444243+1044081729+1044388755
2640+1044453004+1044454781+1044417259+1044235637+1043874434+1043525278
2632+1043539431+1044104769+1045000963+1045822572+1046425564+1046907760
2623+1047197933+1047098137+1046777485+1046671171+1046785648+1046709089
2615+1046423655+1046419376+1046861943+1047360794+1047712978+1048174438
2606+1048843522+1049433875+1049804425+1050143839+1050488716+1050546711
2598+1050205652+1049867226+1049977358+1050426639+1050748081+1050796005
2589+1050830828+1050970385+1050988817+1050746831+1050481080+1050510110
2581+1050800415+1051021666+1051031474+1051067615+1051315131+1051596878
2572+1051753090+1051922994+1052115609+1052026806+1051750391+1052079008
2564+1053448050+1055029917+1055560826+1054795566+1053494065+1052329290
2555+1051522426+1051211253+1051422234+1051849727+1052119954+1052075717
2547+1051681337+1051084138+1050778955+1051191504+1052118045+1052935178
2538+1053227326+1053059134+1052903383+1053290719+1054225489+1055143537
2530+1055684848+1056098318+1056660167+1057212603+1057453339+1057196540
2521+1056362094+1055225297+1054556278+1054966984+1056172837+1057266582
2513+1057643584+1057450508+1057258617+1057455511+1057899000+1058129927
2504+1057893338+1057287845+1056427594+1055315350+1054163346+1053458122
2496+1053453843+1053847302+1054180725+1054330683+1054384333+1054342071
2487+1054281641+1054552263+1055406063+1056563201+1057393895+1057442938
2479+1056757396+1055872986+1055357810+1055188564+1054844345+1054169797
2470+1053697146+1053893909+1054527380+1055012275+1055114902+1055126158
2462+1055397176+1055845075+1056074686+1055933022+1055617702+1055254854
2453+1054805967+1054415141+1054389863+1054756398+1055159599+1055252155
2445+1054964285+1054433968+1053881730+1053510258+1053349505+1053214819
2436+1052949200+1052670546+1052625519+1052899828+1053440414+1054200737
2428+1055036039+1055655093+1055904058+1055880293+1055653381+1055247218
2419+1054945919+1055080671+1055453130+1055525410+1055212328+1054955333
2411+1055068887+1055470311+1055947570+1056343202+1056597762+1056746140
2402+1056759371+1056487630+1055951059+1055442071+1055142813+1054949869
2394+1054843687+1055070599+1055776152+1056704207+1057310556+1057022687
2385+1055613884+1053569899+1051790481+1050671457+1049801990+1048756496
2377+1047699352+1046860232+1045882410+1044189425+1041783119+1039317895
2368+1037329602+1035604558+1033693086+1031960801+1031275589+1031598940
2360+1032010831+1032215032+1032872464+1034360920+1036198992+1037778883
2351+1039020941+1040127524+1041044914+1041377679+1040819451+1039758290
2343+1039126070+1039327770+1039928326+1040448900+1040990737+1041942029
2334+1043190539+1044056912+1044181657+1043885625+1043398163+1042569641
2326+1041622760+1041241808+1041686548+1042546338+1043502435+1044608491
2317+1045738574+1046498436+1046688945+1046481518+1046257306+1046371584
2309+1046900321+1047645504+1048445982+1049284444+1050131529+1050961301
2300+1051845974+1052789499+1053620193+1054152221+1054263603+1053914645
2292+1053391043+1053257608+1053717948+1054383873+1054963956+1055615859
2283+1056310287+1056593219+1056363148+1056164476+1056371771+1056730472
2275+1056877863+1056715529+1056251765+1055621257+1055207457+1055357481
2266+1056092986+1057241436+1058493039+1059249807+1058947389+1057743907
2258+1056397115+1055301329+1054266039+1053358523+1053005220+1053063347
2249+1053046824+1053437320+1055206601+1057782812+1059266988+1059117228
2241+1058861351+1059591722+1060418927+1060137179+1059045277+1058176337
2232+1057791040+1057565445+1057437342+1057543590+1058010316+1059018682
2224+1060442428+1061723917+1062642756+1063447381+1063935107+1063537435
2215+1062441188+1061609375+1061752684+1062742816+1063820367+1064370630
2207+1064583718+1064849535+1064708925+1063417495+1061276940+1059480537
2198+1058872015+1059161465+1059196617+1058280675+1057119455+1056729748
2190+1056837378+1056231490+1054281904+1051716423+1050399123+1051943862
2181+1055823944+1059669334+1061809758+1062282211+1061423211+1059268766
2173+1056697361+1055549306+1056658390+1058560184+1059069831+1057774122
2164+1056186200+1056164476+1058656755+1062545658+1064737297+1063789230
2156+1062043582+1061991050+1063826160+1066507434+1068444907+1068135644
2147+1065856255+1063476346+1061998884+1060939501+1059588299+1057344392
2139+1054271174+1052438302+1054405860+1059452494+1063854928+1065444035
2130+1065241019+1064697866+1063901798+1062455868+1060499501+1058820537
2122+1058389161+1059283906+1060246258+1060245468+1060004074+1060667957
2113+1061645186+1061365611+1059778676+1058486719+1058493566+1059146851
2105+1059412667+1059214391+1059147246+1059484223+1059974977+1060386210
2096+1060779405+1061191955+1061350207+1060959645+1060200441+1059668807
2088+1059775779+1060403062+1061120267+1061470345+1061219339+1060743463
2079+1060883217+1061906724+1063020613+1063435664+1063361936+1063298279
2071+1063069985+1062395437+1061795341+1062112439+1063411702+1064767249
2062+1065001665+1063566795+1061000458+1058735421+1058288180+1060149753
2054+1062953731+1064051295+1061920087+1058123147+1056100886+1057667941
2045+1061468041+1065147871+1067819600+1069725080+1070485535+1069149407
2037+1066205214+1063982175+1063964138+1065066112+1065803855+1066358134
2028+1067065465+1067156901+1066693993+1067575309+1070704745+1073741823
2020+1073560596+1070026313+1065926165+1064051427+1065269325+1068114513
2011+1069450574+1067377691+1063913976+1062423480+1062738602+1062030284
2003+1059754714+1058258623+1059189047+1061627478+1063322570+1062904228
1994+1061160686+1060206629+1061171350+1063137854+1064517100+1064264975
1986+1061783887+1057303051+1052446597+1049500033+1050114479+1054500456
1977+1060824103+1065762778+1067313442+1066447332+1065057357+1063626765
1969+1061676784+1059478825+1058142040+1058084439+1058676438+1059600938
1960+1061267197+1063477531+1064778308+1063769613+1060505557+1056539701
1952+1053992981+1054202975+1056634692+1059221896+1060220716+1059531752
1943+1058075421+1056680574+1055949611+1056331550+1057721130+1059333146
1935+1060334403+1060451644+1059926330+1059344600+1059431955+1060334534
1926+1061234612+1061285761+1060665653+1060142380+1059909938+1059730160
1918+1059839370+1060550255+1061180829+1060675593+1059118215+1057821190
1909+1057851603+1058875307+1059898747+1060543343+1060937131+1061040943
1901+1060803959+1060565264+1060710088+1061166676+1061534396+1061469555
1892+1060852212+1059829430+1058878664+1058731010+1059907108+1062098483
1884+1064033982+1064456471+1063553102+1062668626+1062596741+1062975520
1875+1063187094+1063140356+1063166095+1063445604+1063568046+1062902187
1867+1061728854+1061069908+1061299124+1061943785+1062370356+1062301762
1858+1061886646+1061511883+1061569483+1062121721+1062681068+1062625509
1850+1061922654+1061144163+1060782631+1060880848+1061253768+1061738136
1841+1062255682+1062742355+1063034898+1062903570+1062233037+1061135803
1833+1059857802+1058688090+1058047444+1058361645+1059494493+1060703636
1824+1061303995+1061205449+1060643930+1059698694+1058528587+1057467294
1816+1056482166+1055090611+1052873760+1049652953+1045461040+1040450677
1807+1034506533+1027293538+1019041041+1011146125+1005948545+1005265308
1799+1008477556+1013077674+1017061831+1019649628+1020644762+1020248078
1790+1019132345+1017802866+1016220934+1014126195+1011425963+1008606844
1782+1006575301+1005862902+1006272423+1007310082+1008644696+1010149411
1773+1011767352+1013142252+1013648476+1013245669+1012301157+1010857531
1765+1008833888+1006368204+1003765398+1001352048+999085694+996440758+993067163
1755+989154956+984734288+979208683+972026760+963660905+955205654+946628950
1745+936616255+923939271+907356466+884014688+852208377+815563385+775939639
1735+726998154+668175632+621563302+601836381+601484658+612586292+630955296
1725+654254154+680795016+707023388+729923916+751278717+775832009+803968166
1715+828657592+846357973+859786524+871499840+882138633+891773799+901026368
1706+910109427+917867287+923928739+930054768+937639235+944956898+950654382
1696+955567844+959469716+961515280+962154610+962521737+963371258+964958983
1686+968123440+974153162+981395648+986858452+990671718+993705044+996214504
1676+998350057+1000224598+1001708248+1002916865+1004619593+1007337599
1667+1010167382+1012137639+1013353365+1014390630+1015581407+1016739402
1659+1017564171+1017917079+1017760209+1017309150+1017458647+1018536331
1650+1019359849+1019675564+1020338724+1022259938+1024744383+1026551055
1642+1027509062+1027940043+1028075124+1027970653+1027713460+1027391162
1633+1026640319+1024871630+1021453732+1015564358+1006374194+992240814+969077760
1623+934583725+897766656+872990534+866892153+881746885+913467355+944784097
1613+964798822+976846219+985486975+992269449+997578477+1001840103+1005475631
1604+1008780106+1011799410+1014331647+1016268923+1017828079+1019391842
1595+1021162835+1022944623+1024380481+1025372917+1026104736+1026812066
1587+1027693843+1028859672+1030212519+1031472680+1032378880+1032848239
1578+1033064158+1033596581+1034873595+1036225192+1036857741+1036833911
1570+1036907968+1037624120+1038488452+1038867824+1038626824+1037729051
1561+1036008220+1034033421+1034142500+1036215778+1037824964+1038665005
1553+1039141869+1039438757+1039642695+1039713263+1039369044+1038403138
1544+1036987884+1035459668+1034305558+1034811452+1036953588+1038666256
1536+1039100660+1038870588+1039138512+1040093819+1040827482+1040898906
1527+1040599780+1040214879+1039510050+1038335466+1037340266+1037151864
1519+1037418800+1037908040+1038854921+1039990995+1040556399+1040019630
1510+1038223491+1035556173+1034104253+1036229339+1039474173+1041301844
1502+1041748624+1041465692+1041086715+1040995213+1041022137+1040671072
1493+1039599050+1037709039+1035428268+1033830208+1033263553+1032713883
1485+1031244057+1028700761+1025600224+1022605013+1019665427+1015970126
1476+1010855030+1004382873+997423055+991659940+988070163+985789853+983476826
1466+980004751+974656226+968017785+961496651+955589765+949435825+941352704
1456+931614187+923100547+916554990+911424687+907895934+906606150+907453366
1446+909031349+910325148+912443125+917361459+925479468+935596172+946521188
1436+956544547+963257308+966783429+969417700+972763581+976561246+979444350
1426+980987114+982075331+983648968+985811774+988372120+991747361+996277502
1417+1000977680+1004756714+1007495654+1009537269+1011200960+1012546304
1408+1013454017+1013965705+1014380163+1014885070+1015254370+1015175375
1400+1014586141+1013509511+1011652744+1008340962+1003064190+995965803+987231702
1390+976343418+962901964+948522779+936109834+926478157+918991249+914550963
1380+915053171+920263785+927509431+934623617+941332956+947664634+952946146
1370+956892188+960064282+963116632+966225859+969259316+972133731+975056926
1360+978445793+982377814+986198650+988608050+988276932+984835401+979429736
1350+974294826+971586167+972156179+975116501+978466661+980337713+979962489
1340+977884537+975668739+974998338+976481461+979402944+982587742+985558596
1330+988814226+992744865+996622972+999135921+999816854+999696651+1000491666
1320+1003163657+1007121944+1010748848+1012790265+1013183329+1012695406
1312+1012014473+1011055215+1008919202+1004356936+996446880+985321679+972451092
1302+960106083+950462886+945139704+945078154+950157045+958947562+969354505
1292+979559551+988288847+994607359+997854037+997784851+994837497+990397475
1282+986491193+984543911+984101673+982884696+978310383+969435803+957922080
1272+946823803+937646213+928533728+915983793+898431264+877989640+859056746
1262+845682569+840004110+842101811+850550544+863341544+878845414+896157537
1252+914523579+932559686+948365514+960535023+968987246+974932378+980035559
1242+985254138+990319731+994413494+997027687+997953241+997058100+994791746
1232+992623082+992231663+994080926+997050662+999573485+1000973862+1001640773
1222+1002194328+1002876512+1003668103+1004503998+1005155176+1005084805
1214+1003606093+1000378177+996031500+992170508+990163849+989694423+988830881
1204+985752002+980238904+973353473+965944177+957967173+949555172+942384900
1194+938998337+940051137+942593643+942111842+936835597+929749059+925938295
1184+928012166+934227525+940538665+943832937+943549478+941181023+938700593
1174+937121162+935898458+933271362+927310892+917471327+905991703+897562982
1164+896549811+903857797+916465331+929877294+940889730+948610134+953893159
1154+958144121+962140917+965477056+966987564+965657888+961103784+953455003
1145+943299987+931961500+921364312+912967056+906827203+902223267+899188954
1135+898783317+901608229+906622936+911837763+915842722+918280363+919162601
1125+918476928+916615947+914573411+913218127+912490916+911453125+908878363
1115+903693159+895319339+884239098+872427632+862844668+857867878+857804090
1105+860799235+864171711+865999448+865905444+864812554+864019449+864281777
1095+865534960+867237096+868793749+869754653+869831277+868730422+865831716
1085+860091904+850778246+838943213+828097257+822357051+823098349+827778448
1075+832549655+835694692+838288545+842169351+847871970+854222410+859329738
1065+861915428+862105410+861297822+861316649+863370311+867317341+871656118
1055+874309217+873578122+868352960+857659266+840735600+817940925+791097185
1045+762619310+734954554+711226294+695341406+690098602+694993633+706296177
1035+719380575+731104687+740470548+747569988+752266610+754166693+753811876
1026+753332905+755266100+760531879+767727956+774386014+778675485+779802606
1016+777126138+769787015+758177577+745872921+738925150+741962229+754828009
1006+773340520+792942366+811209533+827517240+841493421+852252482+858934963
996+861907134+863351286+866294361+872675938+882237442+893174570+903606989
986+912297709+918312883+920671990+918906000+914202071+909821426+909661923
976+915619102+926222478+938050336+948299553+955915223+961003725+963958188
966+964948780+963722257+960025048+954475218+948488877+942723655+936154466
956+927910000+920039112+917095115+922166765+933874617+947694455+959622768
946+968156684+973494610+975879193+975004460+970796353+964583627+959295269
936+958019902+961877207+969226994+977166213+983796227+988880911+992697731
926+995177108+996367819+996850608+997111356+996918346+995725264+993407564
916+990222963+986010577+979627947+969720842+956703062+943586934+933030889
907+922375837+903392782+870431175+829851727+798829964+792339638+811491149
897+844823503+878578610+903995708+917991836+922226932+922432384+925181527
887+933120943+943843601+953392005+959744551+963123873+964508187+964477050
877+962932641+959397172+953150347+942675271+925222999+898093628+862001730
867+824033184+796007751+787373710+798349282+820193126+842263421+858901259
857+870748602+881301422+892913230+905341973+916829101+925746997+931320854
847+933507226+932920033+931104211+930292015+931936419+935232863+937655627
837+937315555+934593336+931411566+929297605+928342824+927510287+925253083
827+920044180+911278218+900071652+888775823+879463086+872913383+868685132
817+865681692+862693327+858790008+853545558+847111581+840101668+833188392
807+826590172+819933694+812716421+804943947+797265476+790481685+785115518
798+781667470+781078303+784365530+791610979+801653428+812923584+824423285
788+836018768+848079726+860808846+873853220+886614465+898723412+910041492
778+920441062+929682901+937352946+943113691+947221738+950477697+953515104
768+956458377+959278286+962107542+965148043+968395576+971489926+973964036
758+975742072+977185895+978543351+979551915+979709640+978778953+976805076
748+973572354+968234493+959914784+949053293+938132227+930522153+927930604
738+928960693+930639262+931203218+931090848+931718855+933881068+937216285
728+940879198+944494121+948242019+952209719+956135025+959734677+962871551
718+965410503+967055236+967192621+964695404+957862242+945198753+927746547
708+911055980+902759509+906329866+917949508+930370088+938926781+943311704
698+945405521+947009572+948847447+950545238+951545770+952082340+952937917
688+954407743+956029173+957341338+958392098+959329829+959945724+959947765
679+959411589+958583726+957426258+955724254+953395954+950302461+946162684
669+941574284+938618702+937853969+938069887+939310695+942553619+947934138
659+954256403+960039859+964458026+967465810+969251219+969844074+969561997
649+969352596+970010752+971266634+972207460+972407053+972112469+971476036
639+970247670+968288868+965811269+963049289+960185867+957585893+955606881
629+954186888+952967540+951714950+950300091+948398165+945617687+942050358
619+938438660+935528829+933325407+931140483+928071741+923222461+916105972
609+907234486+897837817+889056648+881885652+877233793+875183292+874633226
599+874206326+873259642+871943922+870558357+868949500+866805983+864670101
589+863768312+864469389+865914660+867270734+868543863+870194060+872561659
579+875522508+878366707+880447359+882197549+884762767+888281119+891266456
569+892066342+890739891+889135972+888886086+889440628+888132939+882341846
560+871832539+859179780+848465614+843467956+845826932+853766809+862642376
550+867977735+868997226+868541691+869307741+871624981+874844602+878503829
540+881415108+881997430+880726604+880492649+883574162+889469066+896079661
530+901964165+906938519+911053215+913889976+915274093+915674200+915223207
520+913695781+912032090+912339642+915199970+918440722+919377993+917180759
510+913109576+909291109+907571858+908847687+912327661+915405487+915883470
500+915103860+916491202+920929710+925841593+928529910+928979586+928930741
490+929752812+931977233+935501510+939255793+941626421+942301232+942798963
480+944091907+944741506+942367653+936240307+927201155+916425636+906523074
470+901854362+905095576+914885637+926977469+937180277+943318550+945130488
460+943854199+941438479+938571832+933368854+923745537+910727692+898558116
450+891598167+891087072+895907519+904372380+914286661+923392958+930185044
441+934149913+935956453+937289552+939818301+943915223+948633569+952908821
431+956457850+960023336+964398253+968710172+970571087+968795684+964532873
421+958896939+952880054+949591839+949910384+950020911+947246292+942651178
411+938258092+932875533+923913072+913217074+906666580+907175635+911151563
401+912208906+907050033+900427720+901380856+908462522+912395333+909930571
391+905139286+901899719+899253993+895379111+893613714+899285656+909880475
381+917199520+917249023+911243329+902570909+896805951+898351545
##END=
