##TITLE=YCW-33
##JCAMP-DX=4.24
##DATA TYPE=INFRARED SPECTRUM
##DATE=15/7/2022
##SAMPLING PROCEDURE=Diamant-ATR
##ORIGIN=Angelika Moesle
##XUNITS=1/CM
##YUNITS=TRANSMITTANCE
##RESOLUTION=4
##FIRSTX=3997.453
##LASTX=373.96442
##DELTAX=-1.4165319
##MAXY=0.9098053
##MINY=0.7002241
##XFACTOR=1
##YFACTOR=8.4732221e-010
##NPOINTS=2559
##FIRSTY=0.87176496
##XYDATA=(X++(Y..Y))
3997+1028847048+1028655359+1028342254+1028217604+1028399163+1028685818
3989+1028920418+1029252726+1029800149+1030258234+1030212088+1029743099
3980+1029326025+1029176191+1029101063+1028976201+1028969800+1029193074
3972+1029431894+1029438858+1029298661+1029306329+1029603535+1030067177
3963+1030405817+1030325413+1029830186+1029340235+1029257721+1029501676
3955+1029618097+1029254696+1028521071+1027979698+1028150987+1028890170
3946+1029596853+1030046496+1030401455+1030586251+1030287989+1029506811
3938+1028596621+1027917865+1027716046+1028153027+1029206932+1030439301
3929+1031159772+1031068816+1030456395+1029849179+1029650244+1029957088
3921+1030608128+1031338306+1031874685+1031986041+1031614410+1031054114
3912+1030787015+1030934387+1031050737+1030744316+1030267097+1030197808
3904+1030762887+1031571851+1031971620+1031578956+1030646818+1029820971
3895+1029418669+1029398762+1029801345+1030593286+1031187417+1031105395
3887+1030682694+1030428890+1030263439+1030003023+1029990713+1030301918
3878+1030309163+1029884703+1029679226+1030029262+1030615163+1031196773
3870+1031633403+1031257621+1029946747+1028876382+1029191878+1030588361
3861+1031707265+1031974363+1031674836+1031019786+1030135834+1029745702
3853+1031003395+1032930489+1033604251+1033181338+1032535292+1032172032
3844+1032134257+1032190392+1032135453+1032143331+1032762998+1034041865
3836+1034994051+1034971963+1034333233+1033486564+1032459601+1031445793
3827+1030972373+1031174474+1031460917+1031373971+1031198109+1031332538
3819+1031626579+1032076996+1032975721+1033963571+1034270556+1033813104
3810+1032880755+1031667731+1030558606+1030155952+1030553541+1031367077
3802+1032242307+1032630680+1032258978+1031774584+1031759742+1032006300
3793+1032097115+1032114420+1032286131+1032534518+1032752095+1033138006
3785+1033879791+1034673631+1034959160+1034529424+1033674525+1032816882
3776+1032052094+1031301657+1030747200+1030775197+1031543361+1032595718
3768+1033217566+1033313305+1033254919+1033135966+1032824128+1032463681
3759+1032415566+1032683931+1032799507+1032417957+1031530559+1030538206
3751+1030546084+1032065530+1033628309+1034315999+1034776475+1035570667
3742+1035851272+1034864828+1032997176+1030965198+1029674161+1030136537
3734+1032246809+1034326480+1035125666+1034676445+1033541855+1032388975
3725+1031813415+1031900502+1032194402+1032413455+1032701517+1033163682
3717+1033603969+1033710049+1033242679+1032192291+1031235955+1031566153
3708+1033138358+1034559813+1034842810+1034223777+1033742689+1034065149
3700+1034661180+1034793710+1034490172+1033980032+1033249150+1032373640
3691+1031800753+1032021705+1032868304+1033545724+1033732489+1033660878
3683+1033526660+1033342990+1033010260+1032598321+1032744990+1034099196
3674+1035429978+1034934891+1033530881+1033165722+1034118471+1034759874
3666+1034426018+1033813245+1033536368+1033713637+1034111295+1034442549
3657+1034616582+1034574797+1034091458+1033258436+1032807034+1033687187
3649+1035782686+1037033204+1036473330+1035196785+1034097930+1033483539
3640+1033418259+1033786232+1034258738+1034431434+1034088996+1033375349
3632+1032804783+1033192664+1035040057+1036975803+1037119447+1035992102
3623+1034755231+1033780535+1033053311+1032612460+1032290493+1031727242
3615+1031059390+1030791095+1031074303+1031664495+1032421475+1033131816
3606+1033291990+1032863169+1032443985+1032435473+1032654316+1032742176
3598+1032599306+1032282473+1031884885+1031594994+1031537593+1031689538
3589+1032044497+1032490764+1032582072+1032088885+1031423002+1031074373
3581+1031308832+1032019173+1032605074+1032514681+1031919846+1031348788
3572+1030885779+1030317534+1029809083+1029866273+1030455762+1030556988
3564+1029621895+1028374402+1027726246+1027924970+1028492651+1028849792
3555+1028903043+1028972051+1029287547+1029607404+1029524679+1029128779
3547+1028942225+1029189979+1029434849+1029251882+1028816097+1028512207
3538+1028371659+1028075015+1027493334+1027004017+1026938807+1027015764
3530+1026780250+1026478330+1026942043+1028360896+1029728116+1029941331
3521+1029119775+1028264524+1027840978+1027460554+1026885415+1026533973
3513+1026708991+1027031099+1026993746+1026577657+1026052112+1025589032
3504+1025224576+1024828114+1024182701+1023420797+1023062109+1023375354
3496+1024007120+1024360814+1024206477+1023795242+1023519280+1023579143
3488+1023893443+1024283012+1024692770+1025133550+1025480068+1025522275
3479+1025207272+1024640293+1023924043+1023203643+1022704477+1022469948
3471+1022226203+1021764038+1021264028+1021042934+1021167234+1021515651
3462+1022028605+1022657838+1023152221+1023146312+1022577575+1021859637
3454+1021438131+1021274720+1021020424+1020567686+1020161093+1020001129
3445+1019965394+1019816896+1019509068+1019141868+1018726483+1018174277
3437+1017486516+1016779200+1016176979+1015818010+1015801198+1016010332
3428+1016202866+1016330682+1016542279+1016893862+1017289833+1017620101
3420+1017766488+1017620523+1017227085+1016773502+1016405599+1016162136
3411+1016063654+1016164387+1016487059+1016894917+1017092164+1016901811
3403+1016539325+1016389420+1016444992+1016198575+1015280014+1014064386
3394+1013347152+1013441343+1013924049+1014303277+1014526903+1014730199
3386+1014927375+1015078335+1015135666+1015017487+1014780074+1014644238
3377+1014642972+1014545052+1014338661+1014367572+1014729636+1015009327
3369+1014927868+1014790203+1014912814+1015068487+1014964095+1014836279
3360+1015055121+1015479159+1015682526+1015548238+1015235134+1014790414
3352+1014178697+1013576546+1013314512+1013522099+1013981098+1014324873
3343+1014280837+1013807839+1013144981+1012673320+1012587499+1012759844
3335+1012961733+1013114522+1013304241+1013610452+1013905196+1013874596
3326+1013412854+1012921214+1012948367+1013587801+1014452478+1015147906
3318+1015539656+1015604443+1015293238+1014667522+1014024360+1013673340
3309+1013632118+1013738057+1013941705+1014255372+1014570165+1014823336
3301+1015166407+1015659734+1015985079+1015789520+1015197077+1014690806
3292+1014557292+1014652398+1014708814+1014715779+1014879611+1015247514
3284+1015558227+1015536772+1015168728+1014617929+1014093509+1013824019
3275+1013863130+1013968858+1014002835+1014237153+1014834661+1015359855
3267+1015321376+1014915909+1014708041+1014819185+1014900293+1014724290
3258+1014437636+1014336058+1014611668+1015245123+1016001047+1016570980
3250+1016796575+1016728833+1016448721+1015934219+1015223597+1014629325
3241+1014525426+1014874898+1015234712+1015340088+1015380747+1015536490
3233+1015637646+1015544158+1015498786+1015793671+1016353544+1016883944
3224+1017216885+1017351173+1017340551+1017246289+1017102294+1016897731
3216+1016678467+1016630843+1016920452+1017442129+1017870810+1018004254
3207+1017949947+1017940873+1018071362+1018229357+1018266850+1018256228
3199+1018489562+1019119217+1019909751+1020430091+1020416304+1019987975
3190+1019585040+1019526091+1019660731+1019713419+1019787844+1020143859
3182+1020729619+1021303984+1021742583+1022009401+1022138835+1022302386
3173+1022606487+1022893423+1022998307+1023051276+1023285735+1023691765
3165+1024090760+1024417300+1024661256+1024670260+1024342805+1023904417
3156+1023665175+1023644212+1023718426+1023932063+1024386560+1024985123
3148+1025498991+1025837982+1026152353+1026606006+1027072392+1027222226
3139+1026928888+1026396660+1025956232+1025896861+1026337219+1027075065
3131+1027745239+1028232587+1028701224+1029176965+1029360072+1029016579
3122+1028364483+1027828597+1027531813+1027351590+1027354193+1027738204
3114+1028365117+1028786833+1028807022+1028707344+1028860695+1029353671
3105+1030018217+1030643723+1031039341+1031033362+1030627684+1030137030
3097+1029980794+1030259641+1030684312+1031026750+1031394793+1031840427
3088+1032019736+1031673077+1031170323+1031073810+1031384593+1031697909
3080+1031897477+1032246809+1032875761+1033530951+1033905959+1034038137
3071+1034205346+1034481309+1034631565+1034470757+1034095116+1033736710
3063+1033542347+1033496623+1033481710+1033409536+1033278273+1033088413
3054+1032785438+1032309626+1031602943+1030551290+1029065609+1027328024
3046+1025793525+1024731390+1023922988+1023102347+1022443217+1022237669
3037+1022404527+1022723540+1023199000+1023868963+1024598368+1025267979
3029+1025888701+1026504288+1027144847+1027784280+1028321292+1028740617
3020+1029120478+1029341150+1029086994+1028318759+1027457459+1026981999
3012+1027046294+1027499525+1028112649+1028737803+1029311816+1029755761
3003+1029954907+1029841793+1029451731+1028890029+1028256575+1027568111
2995+1026744093+1025705734+1024488489+1023288760+1022406215+1022018123
2986+1021927308+1021718877+1021275072+1020947899+1021053416+1021349778
2978+1021219218+1020313811+1018850360+1017229547+1015499278+1013302694
2969+1010297778+1006477357+1002085032+997407812+992728762+988318148+984364775
2959+981030083+978609029+977420625+977414787+978026082+978510265+978361978
2949+977399381+975600456+973022040+969918220+966707335+963546184+960055609
2939+955809461+951060489+946737313+943810410+942755802+943346909+944787569
2929+946238217+947270174+947744509+947553382+946771149+945817134+945166093
2919+945036237+945464496+946533806+948403358+951126050+954420715+957703422
2910+960501735+962790893+964798461+966630941+968265893+969697267+970837696
2900+971455323+971476918+971197580+970954187+970740550+970378767+969953674
2890+969836620+970286756+971189420+972233195+973229135+974185472+975157214
2880+976131558+977003481+977591141+977799221+977821801+977997522+978425078
2870+978915310+979293343+979507120+979468431+979036233+978151155+976882981
2860+975432895+974063142+972793772+971223115+968935223+966044618+963122709
2850+960742244+959324657+959174330+960301393+962292149+964544798+966594995
2840+968227766+969465833+970516221+971628863+972961825+974572157+976458099
2830+978586237+980876873+983128748+985042054+986503325+987805194+989371560
2820+991293589+993339636+995355012+997385723+999389211+1001101543+1002346363
2810+1003292429+1004173497+1004850916+1004930758+1004277818+1003132817
2802+1001731339+1000108275+998271504+996266187+994067070+991643625+989108612
2792+986638809+984387567+982638445+981836445+982216377+983508117+985197938
2782+987011847+988999296+991181952+993321909+995175492+996851596+998678308
2772+1000738423+1002750141+1004397404+1005628155+1006658987+1007752425
2764+1008932950+1009982775+1010801587+1011589941+1012540368+1013579782
2755+1014520220+1015243083+1015722552+1016074698+1016521739+1017132612
2747+1017712745+1018071996+1018271493+1018510947+1018896436+1019398275
2738+1019956812+1020508948+1020927780+1021055667+1020877343+1020622977
2730+1020630433+1021074730+1021821932+1022545990+1022991202+1023126193
2721+1023096297+1023072380+1023135268+1023292488+1023560713+1023932485
2713+1024310517+1024638464+1024999403+1025398258+1025649459+1025704890
2704+1025807664+1026083204+1026302750+1026226918+1025915854+1025604157
2696+1025477114+1025562512+1025745057+1025941882+1026241831+1026746836
2687+1027347580+1027785687+1027912870+1027816076+1027724065+1027801655
2679+1028024015+1028243068+1028356112+1028391988+1028434336+1028494058
2670+1028493777+1028414710+1028403595+1028642908+1029120830+1029613384
2662+1029909113+1029982342+1029924729+1029781719+1029554997+1029336085
2653+1029313434+1029577367+1029950616+1030092994+1029833633+1029386381
2645+1029158746+1029348325+1029801485+1030260344+1030621775+1030893939
2636+1031021263+1030895838+1030535814+1030132457+1029910309+1029999365
2628+1030396531+1030975187+1031557219+1032010099+1032277690+1032394321
2619+1032545352+1032994784+1033839272+1034866727+1035690605+1036007930
2611+1035789931+1035276696+1034774857+1034461753+1034377058+1034523515
2602+1034889519+1035331143+1035525506+1035275078+1034892192+1034956558
2594+1035590997+1036330390+1036780878+1036961664+1036934933+1036602624
2585+1036026430+1035578827+1035622441+1036211578+1037071050+1037745515
2577+1037904212+1037666307+1037472437+1037505710+1037473140+1037125074
2568+1036719185+1036710744+1037168125+1037712312+1037927989+1037712101
2560+1037314372+1037115437+1037323657+1037904986+1038748912+1039677392
2551+1040323930+1040362690+1039927186+1039491963+1039330452+1039380185
2543+1039574689+1039958630+1040476086+1040911449+1041060791+1040850812
2534+1040349325+1039801480+1039612886+1040047546+1040842722+1041342381
2526+1041193321+1040671363+1040187461+1039857685+1039743164+1040004424
2517+1040562328+1041060228+1041377413+1041759877+1042276700+1042532332
2509+1042160701+1041372137+1040779834+1040803329+1041406676+1042252290
2500+1042909521+1043070399+1042782337+1042329036+1041864831+1041432633
2492+1041209429+1041320644+1041596255+1041915409+1042486538+1043409601
2483+1044291724+1044560652+1043951678+1042718957+1041561646+1041083372
2475+1041188396+1041341748+1041353777+1041440231+1041706696+1042112445
2466+1042717128+1043474459+1043971163+1043778981+1042970369+1042041959
2458+1041420956+1041211469+1041318886+1041577262+1041800958+1041968238
2449+1042314897+1042999070+1043758159+1044171153+1044163556+1043997543
2441+1043876479+1043813450+1043803461+1043842151+1043798045+1043558169
2432+1043296065+1043258149+1043329057+1043234443+1043056823+1043092206
2424+1043372389+1043747819+1044190779+1044664410+1044958100+1044880298
2415+1044473354+1043999301+1043771033+1043900467+1044176077+1044250784
2407+1043953436+1043472349+1043273133+1043671073+1044448523+1045128123
2398+1045548362+1045868431+1046153045+1046326375+1046432103+1046606910
2390+1046819702+1046851639+1046596217+1046240273+1046033670+1045975073
2381+1045890519+1045734213+1045631580+1045670199+1045800618+1045936032
2373+1046069828+1046229792+1046298307+1046076440+1045709100+1045775083
2364+1046707995+1048275205+1049653047+1049894681+1048700861+1046975235
2356+1046113512+1046553026+1047447388+1047821763+1047550443+1047087786
2347+1046788891+1046631390+1046380611+1046020235+1045778952+1045668370
2339+1045422938+1044913994+1044363687+1044149909+1044465194+1045075013
2330+1045430042+1045180811+1044531600+1043938734+1043630062+1043556340
2322+1043676137+1044040805+1044580208+1045109130+1045629751+1046295916
2313+1046995494+1047346162+1047276310+1047225521+1047571195+1048179325
2305+1048621512+1048629461+1048335631+1048135782+1048153931+1047949579
2296+1047154965+1046205874+1045849930+1046121179+1046432455+1046494850
2288+1046518064+1046664522+1046889695+1047251689+1047879516+1048640083
2279+1049223944+1049589033+1049972342+1050449912+1050860233+1051185999
2271+1051572754+1051892542+1051740456+1050986502+1050014971+1049338676
2262+1049235410+1049786210+1050903424+1052200159+1053211786+1053912350
2254+1054619595+1055273661+1055333524+1054535393+1053335312+1052506932
2245+1052525292+1053221564+1053936970+1054213566+1054236357+1054267168
2237+1054044879+1053353601+1052771640+1053045070+1054043754+1055139373
2228+1056204462+1057281158+1057782364+1057153272+1055860406+1054718992
2220+1053839543+1053059279+1052614912+1052692080+1052969379+1053056747
2211+1053024740+1053392783+1054579710+1056106964+1056728600+1055900080
2203+1054609606+1054201044+1054933896+1056058145+1056678937+1056295207
2194+1055182986+1054497196+1055317134+1057223405+1058394293+1057560497
2186+1055479419+1054055009+1054283910+1055446990+1056351553+1056914803
2177+1057801357+1058675883+1058045313+1055394442+1052180463+1049884903
2169+1048239259+1046362673+1044933268+1046016647+1050558454+1056680766
2160+1060877180+1061152721+1059046318+1057653985+1058226943+1059656770
2152+1060170357+1059044419+1057170787+1056045413+1056201296+1056938087
2143+1057536439+1057987208+1058401398+1058620311+1058699308+1059089580
2135+1060116332+1061582949+1062877995+1063489572+1063518414+1063390597
2126+1063037396+1062057917+1060680778+1059667744+1059270788+1059062920
2118+1058699941+1058291449+1058154840+1058484053+1059116030+1059555051
2109+1059332410+1058432842+1057464828+1057234309+1057848840+1058504805
2101+1058542298+1058287228+1058383038+1058811297+1059075441+1058992012
2092+1058825366+1058679752+1058115658+1056752729+1055176585+1054607707
2084+1055473721+1056897357+1057799106+1057913417+1057574144+1057258226
2075+1057644700+1059264457+1061520624+1062801882+1062388396+1061638310
2067+1062358359+1064417490+1065893462+1065460491+1063695260+1062046450
2058+1061438602+1061871011+1062648883+1062825377+1061969212+1060845385
2050+1060949284+1062772408+1064732986+1064873886+1063315751+1061754660
2041+1061239526+1061705419+1063016293+1065056431+1066979304+1067452864
2033+1065909782+1063284095+1061276668+1060825899+1061561353+1062767062
2024+1064123027+1065263314+1065625941+1065117420+1064235930+1063566178
2016+1063622242+1064664329+1066236745+1067498518+1068266120+1069011492
2007+1069578400+1069126013+1067856995+1067294378+1068406809+1070618658
1999+1072705927+1073741823+1073331924+1071846173+1070180199+1068785756
1990+1067471857+1066336353+1065934825+1066566099+1067994870+1069463035
1982+1069878139+1068838515+1067389273+1066837489+1067217209+1067828997
1973+1068433962+1069177928+1070090299+1070961448+1071392169+1071101926
1965+1070292540+1069523813+1069435741+1070465377+1072197194+1073267629
1956+1072654083+1070815623+1069026968+1067889424+1067078630+1066270299
1948+1065582187+1065220193+1065290890+1065978580+1067351357+1068929189
1939+1069916758+1069870542+1069014658+1068005914+1067284740+1066840162
1931+1066687654+1066981977+1067450473+1067479384+1067026294+1066753708
1922+1067031429+1067494719+1067809301+1067974189+1067887524+1067560703
1914+1067542202+1068270059+1069221331+1069327621+1068262884+1066707914
1905+1065474771+1064962520+1065099833+1065417862+1065476459+1065256210
1897+1064952883+1064647728+1064396667+1064380559+1064741005+1065296588
1888+1065518525+1065040462+1064060209+1063019107+1062164559+1061575703
1880+1061390767+1061672568+1062172930+1062545335+1062738783+1063014183
1871+1063642783+1064614947+1065517048+1065877354+1065690940+1065304536
1863+1065091603+1065256421+1065675042+1066055466+1066318837+1066615621
1854+1067024184+1067488107+1067970812+1068466602+1068918215+1069270713
1846+1069518256+1069612729+1069504046+1069323471+1069217602+1069150423
1837+1069040615+1068960563+1069066854+1069425401+1070000398+1070580250
1829+1070784883+1070556333+1070282621+1070231129+1070306820+1070472552
1820+1070944424+1071726306+1072319523+1072233703+1071639430+1071167347
1812+1071214126+1071577597+1071791727+1071737350+1071593214+1071406519
1803+1071052685+1070564774+1070282551+1070440475+1070769970+1070855016
1795+1070646163+1070456302+1070493093+1070497313+1070201303+1069692781
1786+1069143459+1068676089+1068419752+1068443529+1068620516+1068691072
1778+1068529983+1068260070+1068138796+1068418838+1069026687+1069349991
1769+1068930948+1067967577+1066978952+1066386860+1066261225+1066290277
1761+1066051808+1065550180+1065116786+1064825278+1064451747+1063919308
1752+1063426332+1063100988+1062673433+1061793069+1060548530+1059222532
1744+1057999589+1057000975+1056253070+1055579730+1054822329+1054141744
1735+1053837151+1053877670+1053736558+1053259340+1052756586+1052327483
1727+1051845762+1051218428+1050474040+1049644113+1048633471+1047254362
1718+1045377495+1043040854+1040329909+1037327597+1034320712+1031713596
1710+1029774895+1028536687+1027817483+1027215824+1026355931+1025307865
1701+1024445790+1023939449+1023514989+1023040443+1022588127+1021961144
1693+1020970972+1019573363+1017652249+1015211287+1012477902+1009426348
1684+1005758433+1001980641+998971504+996727438+995135185+994360127+994538802
1674+995290928+995953364+996403148+996839637+997167233+997285201+997593592
1664+998674861+1000766280+1003231370+1005158885+1006417001+1007244888
1656+1007882563+1009055772+1011731474+1014386847+1015580245+1016532220
1647+1018486748+1021206767+1023194920+1024230324+1024943127+1025596489
1639+1026269266+1027297213+1029085306+1031081197+1032385528+1033292061
1630+1034404633+1035947855+1037739465+1039470930+1041125438+1042794437
1622+1044155818+1044857577+1045191926+1045825098+1046995846+1048044263
1613+1048582893+1048958885+1049444967+1049870975+1049855147+1049257991
1605+1048195504+1046721994+1044737921+1042105129+1038721196+1034538358
1596+1029561610+1023728274+1016656800+1007478854+995090234+978868460+959461477
1587+939196007+921794341+911089915+908925759+913824636+922638970+933718264
1577+946819405+959017321+966618279+970856759+974832573+980067697+985458776
1567+989398080+991662196+992347142+991565260+989532368+986187407+982776883
1557+982542987+985816127+991382294+997853727+1004035199+1009255832+1012907286
1547+1014575159+1014136208+1011248065+1005538395+997901913+992500142+992689088
1537+996148360+1001335509+1008631101+1016830904+1022936544+1026437108
1528+1028922036+1031394371+1033674666+1035260165+1036142781+1036569070
1520+1036643002+1036334751+1035643333+1034633464+1033398070+1032069047
1511+1030842306+1029944918+1029798179+1030989889+1032259682+1031385648
1503+1028326708+1022965948+1014030902+999282850+977339307+952397531+932244542
1493+920150737+916186882+920975529+933219801+947198915+958501202+966430388
1483+971021718+971755202+968096362+960336284+949788164+939031963+932138744
1473+932880669+940073417+947822029+953191582+956843880+959794560+962290953
1463+963891366+964401224+964332568+964569841+965861721+967280434+966887277
1453+964620489+961287345+957859869+955715340+956274932+959798640+965052757
1443+970546610+975065343+977534513+976941648+971795299+961519694+950267141
1434+943504973+943309556+950045766+961739169+973705580+982913845+989469410
1424+994024653+996483201+996183813+991425697+980344152+964207706+946411195
1414+930414032+920027774+916948927+917965759+917673336+913657286+908244260
1404+905917186+908708746+915630315+924822048+933742533+939808428+942047431
1394+941315916+939734285+939569397+942439180+949086897+958364029+967400372
1384+974509409+980028093+984686813+988796703+992413125+995617679+998601773
1374+1001438635+1003853428+1005655449+1007122277+1008591356+1010058536
1366+1011407818+1012717637+1014071351+1015271220+1016032280+1016308805
1357+1016254007+1016045997+1015764196+1015394675+1014886365+1014104624
1349+1012792061+1010654145+1007487858+1003226446+997774167+990785419+982024054
1339+972291299+963292732+956178841+951217639+948555232+948407438+950629768
1329+954420504+958569577+962057690+964521866+966269862+967895739+969842529
1319+972206745+974762298+977009812+978156642+977246452+973683210+967785016
1309+960783536+954374499+950079954+948615025+949728089+952597732+956329519
1299+960250393+963974302+967342759+970322210+972902103+975041567+976703180
1289+977926123+978872822+979791383+980829671+981872883+982684380+983212528
1279+983651831+984261087+985249922+986731101+988585599+990401266+991658397
1269+992007096+991413527+990159421+988695688+987352597+986168765+985079196
1259+984171819+983624186+983506006+983813272+984578834+985803676+987360194
1249+989055502+990718240+992221436+993532521+994744349+995944149+997093934
1239+998115339+999011038+999817189+1000518103+1001094438+1001593463+1002069486
1230+1002504568+1002845459+1003065778+1003119803+1002906729+1002360010
1221+1001488298+1000249598+998482749+995990999+992588706+988083549+982381054
1211+975624936+968165722+960469799+953101119+946654236+941648787+938566563
1201+937816618+939378693+942560103+946359492+950029727+953163796+955409621
1191+956349568+955668138+953435397+950379059+947876405+947384133+949615960
1181+954187663+960018256+966061712+971694002+976509661+980008467+981763005
1171+981845590+980835299+979428615+978255054+977914375+978710888+980184751
1162+981236264+981058995+979963587+979128173+979492910+980917532+982311412
1152+982414960+980529370+976842532+972225457+967441664+962221664+955246140
1142+945472585+933664450+922457551+914818044+912376520+914904709+920842507
1132+928107569+934654763+938656534+938586400+933772429+925400915+916757519
1122+911630444+911889382+916565759+923190473+929689411+935035047+938749459
1112+940440265+939873990+937179857+932859847+927748952+922975359+919672885
1102+918466966+919160987+920817886+922101748+921910832+920191537+918172995
1092+917488260+918955791+922215284+926297670+930297752+933704125+936487525
1082+938929823+941220458+943248637+944854115+946088946+947080173+947803458
1072+948146881+948039816+947370486+945872706+943214590+939268462+934432685
1062+929767353+926657905+926130742+928363975+932752783+938341600+944228117
1052+949786968+954746904+959124174+963015082+966461270+969554819+972522663
1043+975427126+977634051+977493784+972363965+959072471+935466541+903249292
1033+869903573+846250442+839818894+849764583+868520596+888120183+904605116
1023+917614669+927976235+936442926+943607677+949896917+955473213+960274592
1013+964170423+967136016+969303407+970785078+971427325+970677451+967556889
1003+960849238+949737234+934797563+918759037+906119427+901082182+904810241
993+914364321+924581188+931367203+933738171+933578489+933966229+937283123
983+944005195+952776759+961598339+969036730+974608947+978583283+981684149
973+984626739+987513827+989737001+990595347+989810300+987280423+982631129
963+975416504+965862847+955357004+946208180+940802470+940568363+945286031
953+953173996+961738255+968881058+973690808+976561927+978643779+980931882
943+983489968+985312600+985129352+982721733+979513381+977636373+978374781
933+981529742+985964625+990429334+994107237+996854339+999015189+1000886428
924+1002409673+1003404277+1003853147+1003781606+1002974119+1000947910+997168710
914+991235273+982888169+971902223+958106568+941697466+923709125+906275592
904+892244845+883998474+882179782+885553937+892192298+900698522+910416856
894+920923474+931615168+941709354+950485491+957506387+962747490+966626087
884+969759171+972505921+974870489+976901622+978831670+980687294+982162141
874+983065860+983598721+984082904+984645380+985160092+985253299+984282612
864+981375476+975481714+965334628+949638189+928243475+904187550+884271130
854+875827935+881516994+897374945+916267638+932798225+945076474+953520092
844+959420677+964102822+968132590+970969311+971567593+969170245+963551601
834+955122474+945237775+936172028+930316323+928950650+931504938+936093313
824+941006540+945646267+950057303+954119921+957641870+960874843+964361831
815+968256045+972078014+975175433+977286830+978636956+979590057+980291745
805+980652754+980583254+980068260+979010838+977242231+974805420+972080476
795+969591961+967791277+966903034+966805748+967132991+967568777+967952578
785+968150739+968050568+967743021+967493860+967355421+966950658+965881840
775+964208480+962222367+959973165+957391092+954579694+951598415+948312543
765+944867269+942010429+940610358+940997958+942874825+945634589+948670879
755+951617338+954544100+957802186+961436757+964852556+967284303+968386464
745+968100724+966257270+962700219+957661426+951809801+946082263+941538416
735+939094008+939093796+941077447+944014972+946886585+949222663+951130904
725+952789140+954152350+955319862+956764390+958755920+960869849+962413986
715+962874603+961549379+956949186+946918873+930312806+909798737+892435339
705+885427457+890604547+903708432+918781407+932217670+943186523+951869453
696+958057397+961286501+961954635+961876412+963325443+967225706+972456609
686+977259817+980826928+983150484+984136506+983344987+980100970+973408303
676+961475447+942322267+916555770+887769092+859419185+836234549+826396488
666+829430949+835426922+837719667+835903789+835307758+841762449+855248305
656+871139741+885757233+898273669+908863786+917450555+923992403+928928914
646+932958260+936392207+939051519+940844817+942121785+943423303+945026530
636+946731475+948164115+949177501+949742651+949800052+949474637+948916593
626+947735927+945118329+940575256+934246060+926751885+919272624+913685213
616+911956140+914683053+920333563+926386796+931178890+934570209+937195896
606+939548927+941720187+943603526+945117485+946218028+946866747+947188082
596+947525596+948101086+948745655+949180174+949497429+950105770+951171844
586+952397249+953411620+954109581+954503019+954636603+954850803+955667364
577+957128424+958596589+959476883+959801524+959827973+959498127+958683324
567+957656150+956836142+956261426+955689382+955004506+954264761+953641929
557+953472257+953994778+954915239+955558823+955542643+955049386+954350582
547+953317710+951594405+949065794+946006220+943084382+941366072+941672986
537+943450315+944929946+945101236+944835122+945254095+945881288+945440579
527+943680413+941499867+939871387+939411473+940473116+942824669+945536036
517+947565974+948214341+947068004+944087779+939787536+935027238+930428593
507+925985902+921526820+917547490+914901965+913270742+910531448+904211045
497+893261749+879428319+867704878+863953816+870526335+884066709+898665208
487+910679875+919741542+926679430+931516263+933366892+931415318+925081409
477+914215049+900441764+888089301+882827164+887186286+897349340+907799540
467+916204609+922233644+925833394+927512031+928350610+929399520+931732081
458+936033379+940885406+943808792+944482624+944911235+947043172+950554780
448+953175684+953045757+950619920+947851222+945827756+944237895+942856184
438+942352727+943390593+945286102+946428148+946243071+945643875+945690021
428+946725777+948636832+951026090+953473242+955903090+957216074+954248019
418+947429294+942901345+941941351+941222428+938840485+935850483+933514968
408+930756188+925502985+917634717+909813088+905073964+904223496+906139968
398+909379624+912538242+914087163+912931540+909075031+904504805+902564908
388+904669060+908538090+911484127+914817200+921361792+930424091+939783386
378+948287922+954717218+956077896+951198224
##END=
