##TITLE=CML-15
##JCAMP-DX=4.24
##DATA TYPE=INFRARED SPECTRUM
##DATE=3/11/2020
##SAMPLING PROCEDURE=Diamant-ATR
##ORIGIN=Angelika Moesle
##XUNITS=1/CM
##YUNITS=TRANSMITTANCE
##RESOLUTION=4
##FIRSTX=3997.453
##LASTX=373.96442
##DELTAX=-1.4165319
##MAXY=0.92567903
##MINY=0.47654694
##XFACTOR=1
##YFACTOR=8.6210578e-010
##NPOINTS=2559
##FIRSTY=0.79512197
##XYDATA=(X++(Y..Y))
3997+922302100+921896534+921900129+922063019+922097381+922024785+922023472
3988+922159536+922425581+922850298+923377548+923758985+923774195+923522324
3978+923327215+923389232+923650299+923930656+924054828+923915583+923569062
3968+923199309+922884591+922581212+922407052+922592135+923052943+923424078
3958+923545416+923519558+923402784+923214450+923126714+923407554+924151968
3948+924981283+925235367+924782234+924258303+924223249+924461086+924541908
3938+924395542+924014866+923456228+923265544+924053169+925327736+925724798
3928+924785414+923444889+922905471+923431753+924230440+924597012+924628193
3918+924789701+925215732+925507219+925347717+925010805+924875156+924669815
3908+923782768+922398617+921727628+922693700+924575302+926075468+927022112
3898+927589462+927340494+925983307+924196147+923471092+924588923+926042766
3888+926309571+926109899+926460777+926428282+925108774+924114702+924879719
3878+925690920+924817149+923420414+923181886+923861863+924395750+924778362
3869+925034451+924773038+924555114+925295172+926579695+927137573+926580732
3859+925031063+922555976+920210040+921145898+927219571+932544268+933020009
3849+931088212+928912633+927050527+925633190+924853654+924727269+925240829
3839+926610323+928426728+929409600+929221958+928862992+929021664+929172870
3829+928663112+927837461+927200834+926456836+925618186+925879945+927311940
3819+927676438+926920893+927449871+929521051+930647040+929709592+927519424
3809+925432688+924995387+926337641+927383775+927487966+928570052+930965007
3799+931965233+931003310+930066553+930048647+930087018+929604363+928958817
3789+928553321+928437237+928554496+928771521+928777536+928606281+928999886
3779+930445156+931955346+932081662+930662043+928549380+926953941+926974683
3769+928379921+929552094+929897925+930108244+930120689+929428959+928661660
3759+928931093+929822633+929642873+927733131+924952245+923431269+925655936
3750+929933116+931301020+929597173+928581391+930479517+932360221+931450981
3740+928917957+926949447+927126165+929585350+932405438+933387342+932222359
3730+929990363+928102261+927707757+928938767+930726687+932123007+933023604
3720+933410849+933131460+932190348+930738648+929324629+929243391+931446142
3710+934385839+935756992+935282703+933623311+931674506+930802878+931794945
3700+933404765+933916666+933197971+931939306+930527914+929238759+928976724
3690+930985196+934595743+936855187+936707024+935335041+933762279+932398109
3680+931249858+930210292+930042977+932396104+936114023+937420671+936642241
3670+936925017+938826186+939452373+937778946+935412614+933877464+933446593
3660+933331547+932916785+932664845+933064880+933061630+931578957+929604916
3650+929625312+933071241+937208001+938898435+938336547+936561902+934477033
3640+932989381+932496562+932608843+932844398+933003554+932705360+931684808
3631+931165094+933616812+938190804+940307823+939296880+937394675+936016469
3621+935459282+935532154+935657986+935399339+935129838+935260578+935397818
3611+935123200+935005388+935678105+936528577+936554297+935772134+934892071
3601+934466662+934536768+934854736+935240805+935517566+935361659+934617038
3591+933689684+933480540+934780343+936970856+938199861+937820429+936531896
3581+935094370+934073471+933914591+934626994+935649759+936265990+936001258
3571+934795208+933278863+932836032+934336405+936317083+936850417+936118241
3561+935222898+934684932+934319259+933820701+933246092+933000374+933357889
3551+933942938+934078173+933736352+933655391+934433544+935717030+936626961
3541+936684277+935988122+935007947+934362401+934402709+934845679+935051573
3531+934629345+933687057+932727139+932317217+932621979+933261855+933739740
3521+933934227+934048098+934225299+934457812+934650847+934529509+933776245
3512+932618799+931902455+932083460+932626750+932979079+933354293+934010832
3502+934525706+934438315+934010694+933798992+933963265+934233942+934335852
3492+934232006+934005439+933731029+933531288+933559496+933852643+934298725
3482+934722889+934986099+935101214+935183558+935209693+935005596+934542645
3472+933975710+933421773+933028306+933069512+933587843+934154917+934305707
3462+934035445+933725014+933735246+934111567+934576039+934846024+934958443
3452+935144149+935442482+935611733+935416347+934895320+934337304+934004610
3442+933935402+933943560+933770922+933351666+932941468+932856289+933105257
3432+933424676+933643707+933840060+934102510+934300315+934230623+933968519
3422+933873385+934121938+934421929+934408102+934118550+933847043+933753430
3412+933832731+934085018+934476963+934801776+934765616+934263740+933547812
3403+933111548+933331201+934119863+934988311+935517981+935680525+935647892
3393+935519225+935355644+935200359+934977526+934670551+934601897+935163715
3383+936203143+936993326+936925916+936113747+935231609+934767967+934611507
3373+934470050+934368969+934433475+934519691+934444468+934365651+934616623
3363+935258643+935968694+936337340+936195676+935655359+934957545+934407548
3353+934275079+934525499+934848721+935157770+935754158+936756527+937717344
3343+938120282+937995971+937774521+937716307+937726539+937679179+937693560
3333+937936789+938278471+938421104+938355353+938375403+938578463+938708650
3323+938604735+938446478+938388194+938293405+938015814+937665628+937427308
3313+937334455+937376699+937639978+938152155+938701253+939012376+939046323
3303+938954438+938840567+938772465+938882465+939187019+939448432+939461706
3293+939297433+939067410+938698211+938170753+937793188+937926073+938453944
3284+938793345+938619600+938398979+938858888+940020552+941155736+941684922
3274+941715066+941633275+941625394+941755581+942079771+942405690+942251097
3264+941403114+940316465+939660203+939652114+940069986+940640517+941123933
3254+941274240+941041865+940703778+940625237+940983651+941689623+942451321
3244+942978640+943217998+943295502+943271787+943135999+942953612+942801300
3234+942654104+942540026+942664268+943157501+943843078+944463734+944942310
3224+945180630+944912511+944119978+943305527+942977672+943096176+943326891
3214+943546129+943802010+943998501+943929639+943639051+943493929+943709987
3204+944015233+944100895+944180266+944667900+945493966+946182861+946465637
3194+946438189+946239140+945897388+945445500+945010481+944767459+944832103
3184+945159474+945515952+945633072+945484148+945391088+945745146+946551853
3174+947224570+946826886+944481779+939566797+931772683+921603802+911023547
3165+902945066+899470099+900674076+905032701+910607126+915872087+920082410
3155+923271697+925834382+928012243+929773476+931097684+932185232+933294696
3145+934495976+935688269+936714491+937389766+937611216+937541594+937563580
3135+938004337+938879976+939840101+940478387+940797392+941139212+941572226
3125+941691213+941171500+940205428+939205134+938346296+937629883+937256536
3115+937595453+938648016+939858354+940701497+941153524+941396061+941508135
3105+941653326+942036560+942496745+942641176+942410046+942020589+941496727
3095+940735582+939852477+939099767+938611995+938372015+938199308+937749078
3085+936793723+935528421+934402778+933574430+932623362+930952009+928461505
3075+925579469+922661205+919800533+917337407+916048736+916509267+918495891
3065+921157859+923600520+925281897+926117020+926407955+926603686+926919925
3055+927112406+926768443+925900548+925073168+924834502+925191671+925789581
3046+926433743+927199659+928128534+929075039+929888038+930621182+931489422
3036+932630345+933948746+935211214+936230798+936921698+937289861+937452474
3026+937588470+937840479+938295617+938935978+939497105+939595904+939193726
3016+938748474+938717224+939048258+939285749+938991219+937895375+935772756
3006+932465381+928192971+923695931+919847270+917137113+915635633+915271758
2996+915934519+917439939+919615588+922321942+925289572+928086498+930302177
2986+931621408+931837120+931073486+929840540+928552906+927158038+925445064
2976+923452494+921399290+919528058+918118879+917341970+917041494+916869201
2966+916588361+916144631+915610813+915136177+914805350+914559148+914311632
2956+913997744+913502229+912749726+911774321+910460345+908457405+905688203
2946+902719606+900293607+898646177+897430101+896076508+894139388+891567783
2936+888776527+886281044+884238902+882462805+880783709+879157711+877448885
2927+875379434+872812600+869968037+867263134+865015167+863389792+862575064
2917+862845465+864375568+867026888+870399046+874072095+877747079+881211399
2907+884341365+887160969+889763132+892126768+894142845+895837151+897462457
2897+899342954+901664138+904337030+907017666+909340164+911229164+912946010
2887+914770159+916665312+918315923+919504275+920337600+921017646+921501615
2877+921582576+921275256+920941870+920977615+921462621+922132987+922624769
2867+922712713+922357964+921606152+920479541+918944461+916937787+914412644
2857+911372143+907922964+904331499+901012370+898448994+897081505+897070166
2847+897940964+898545926+897728295+895268003+892180419+890082344+890212463
2837+892824305+897246261+902437936+907554664+912135984+916002620+919142127
2827+921632287+923587521+925169271+926553215+927801025+928859673+929762413
2817+930678221+931694141+932698999+933559220+934264847+934840562+935255670
2808+935535058+935848117+936309962+936725069+936765238+936436554+936153294
2798+936287284+936829744+937515736+938119038+938583648+938956719+939260859
2788+939495653+939738675+940095014+940520492+940861829+941077195+941260066
2778+941467067+941705525+942065806+942667448+943412622+943974579+944174597
2768+944242629+944494777+944869231+945044220+944933460+944765247+944699703
2758+944660364+944570345+944513583+944568893+944652689+944661954+944657183
2748+944770155+945035924+945453036+946055785+946736937+947144784+947004018
2738+946487070+946072032+946034697+946225865+946371402+946450496+946664134
2728+947129574+947776018+948506535+949272589+949970126+950430450+950572391
2718+950469098+950240803+949966669+949700694+949490513+949386321+949467905
2708+949794930+950279106+950702925+950918291+950927970+950764873+950443033
2698+950073696+949870982+949937355+950129352+950236793+950182727+949965701
2689+949587791+949171577+948933257+948910995+948945011+948993684+949228202
2679+949759323+950457898+951059955+951403850+951591561+951845368+952160017
2669+952292901+952127176+951789089+951453491+951286591+951443881+951865418
2659+952228049+952297533+952167691+952057692+952069930+952209451+952454270
2649+952744168+953028050+953323755+953608606+953716462+953507525+953069879
2639+952590266+952164857+951879661+951871779+952135058+952444245+952576714
2629+952520574+952462221+952638317+953135699+953801917+954392497+954802004
2619+955119004+955472785+955875448+956280115+956754335+957405135+958127010
2609+958639740+958797445+958713649+958606623+958586227+958581457+958533475
2599+958574681+958769444+958799865+958311056+957461414+956753091+956437889
2589+956398549+956491264+956726473+957105005+957479183+957694203+957788370
2580+957911436+958103157+958286166+958438548+958676246+959164985+959943138
2570+960815665+961438603+961532631+961099202+960528879+960332526+960575064
2560+960688105+960044910+958664492+957244250+956474739+956379190+956502741
2550+956697642+957254137+958217789+959157311+959713599+959899927+959869990
2540+959744642+959566818+959289573+958966143+958808991+958859877+958938142
2530+959080636+959561494+960392676+961260018+961904388+962219867+962180458
2520+961982238+962054488+962720084+963934431+965376728+966737580+967911689
2510+968881839+969487976+969527730+969076948+968513400+968239197+968422207
2500+968846371+969035534+968729873+968168400+967742853+967575538+967630019
2490+968003090+968789332+969755887+970476517+970825735+971034741+971227153
2480+971252527+971015659+970659941+970423765+970477001+970758464+970915546
2470+970657176+970131032+969697811+969473249+969302408+969023642+968639716
2461+968337028+968337512+968645593+968992530+969098104+968963215+968845749
2451+968956163+969282012+969753675+970387398+971177581+972009731+972707684
2441+973071352+973014313+972751448+972655692+972865181+973141113+973079372
2431+972485196+971671091+971264488+971591997+972391583+973109240+973306906
2421+972917934+972296379+971920128+972013326+972493769+973087599+973444699
2411+973409093+973207209+973175405+973392638+973743861+974192916+974787437
2401+975416320+975760215+975637217+975262003+974946110+974754804+974673704
2391+974770429+974930761+974854363+974556860+974454466+974737381+975058460
2381+975032256+974732334+974496502+974472788+974586451+974837355+975327546
2371+975988856+976534911+976749655+976722967+976818793+977367269+978224447
2361+978779628+978652690+978121016+977647487+977451341+977659102+978188910
2351+978505218+978158074+977350744+976691924+976651133+977237357+978113687
2342+978981997+979685065+980155967+980433143+980634889+980903838+981264533
2332+981454595+981130128+980355155+979587235+979122417+978875385+978717888
2322+978798780+979378782+980362691+981223810+981558786+981565285+981729558
2312+982149851+982486002+982494713+982209448+981688006+981007407+980455613
2302+980331994+980578680+980854542+980918910+980764040+980448077+979971852
2292+979365508+978805763+978534394+978653520+979073259+979572093+979831639
2282+979649597+979246451+979080865+979330524+979881557+980662890+981578076
2272+982361829+982850638+983126708+983247285+983150353+982839023+982450603
2262+982197556+982173219+982141416+981892587+981821789+982443482+983338340
2252+983550181+983012422+982596347+982830380+983453248+984136129+984904533
2242+985804301+986589990+986891295+986595245+985961453+985356768+985041289
2232+985276706+986298295+987894356+989295792+989833758+989598480+989264887
2223+989439669+990319525+991694343+993099443+994026105+994016357+992738056
2213+990462780+988460600+988176925+989748580+991874448+993244219+993491527
2203+992966490+992390705+992422301+992838376+992599503+991232982+989517381
2193+988522064+988705281+989953368+991692199+993091008+993930487+995036909
2183+997181584+999839473+1001689963+1002129199+1001699366+1001243328+1001120677
2173+1001076083+1000423554+998637432+996338648+995149882+995715780+996638847
2163+996487157+995842787+996123835+997681247+1000138773+1002787397+1004053045
2153+1002986170+1001222933+1001302165+1003301580+1004944724+1004716982
2145+1003300957+1002091519+1001486281+1000810868+999600254+998568846+998769901
2135+999969107+1000727971+1000214756+999165995+998802396+999274957+999579719
2125+999031383+998320501+998677532+1000299935+1002015743+1002381001+1001039508
2115+999080333+997904357+997780323+997877185+997500450+996759563+996215720
2105+996244550+996613611+996719670+996375499+996033333+996170918+996948034
2095+998293191+999808222+1000907938+1001328853+1001089357+1000144580+998795620
2085+998082112+998792578+1000253681+1000938566+1000286591+999357992+999656878
2075+1001619165+1004175766+1005603751+1005037093+1003268117+1001844141
2067+1001558531+1002090551+1002739968+1003102254+1003176370+1002935146
2058+1001930772+999824055+997198039+994964729+993128135+991190531+989406828
2048+988501530+988468481+988707631+989023456+989676468+990840898+992503608
2038+994718043+997656150+1001246371+1004890796+1007744485+1009203029+1009307705
2028+1009187680+1010616357+1014071066+1017662739+1019148939+1018644090
2020+1018006288+1017801016+1016703236+1014287608+1012329469+1012351732
2011+1013856737+1015640647+1017223987+1018509270+1019260044+1019274149
2003+1018526140+1017474890+1017252748+1018501665+1020217335+1021063036
1994+1021366554+1022284713+1023409802+1022873288+1020005841+1016342886
1986+1013922350+1013275629+1012988635+1011344385+1008570620+1006970549
1977+1008340942+1011824275+1015113881+1016807635+1016708352+1015240889
1969+1013533723+1013297822+1015489995+1018977821+1021336064+1021038216
1960+1018547780+1015406060+1012702817+1010756501+1009623391+1009107756
1952+1008632291+1007747250+1006738244+1006370013+1007034986+1008398880
1943+1009911422+1011384070+1012911684+1014419455+1015649359+1016560327
1935+1017466386+1018522406+1019238750+1018962887+1017776748+1016419215
1926+1015381793+1014627838+1014119118+1013985611+1014168552+1014451466
1918+1014675060+1014554344+1013794651+1012660573+1011872810+1011858291
1909+1012420663+1013254749+1014331580+1015560447+1016554450+1016927797
1901+1016563645+1015510045+1013838208+1011701416+1009417911+1007424996
1892+1006208021+1006184514+1007290107+1008696244+1009650355+1010312770
1884+1011122727+1011965317+1012415408+1012422322+1012319098+1012324076
1875+1012332373+1012202808+1012046970+1012120533+1012497476+1012887002
1867+1012876009+1012370468+1011562309+1010740806+1010248471+1010338697
1858+1010982653+1011990553+1013330110+1015054768+1016899658+1018332898
1850+1019052560+1019144721+1018906816+1018732449+1018786169+1018530219
1841+1017293885+1015118652+1012489456+1009934790+1007811134+1006195369
1833+1005187676+1005248518+1006699803+1008817168+1010671530+1012456546
1824+1014550818+1016531219+1018018249+1019317291+1020695358+1021905765
1816+1022636489+1022982250+1023316880+1023889969+1024532611+1024835713
1807+1024688241+1024348287+1024111488+1024185190+1024700548+1025515828
1799+1026082625+1025922708+1025150916+1024395786+1024409198+1025387092
1790+1026458600+1026797724+1026580214+1026364295+1026425483+1026628127
1782+1026751056+1026702866+1026432535+1025963361+1025525162+1025532836
1773+1026377915+1027848144+1028986854+1029373753+1029357713+1029120153
1765+1028740445+1028650496+1029220957+1029984937+1030235633+1030061542
1756+1029719307+1029007665+1027855265+1026804223+1026638152+1027495538
1748+1028532407+1028983052+1028719012+1027953442+1027049872+1026269783
1740+1025447934+1024250042+1022807537+1021717224+1021378031+1021139573
1731+1020357686+1019441809+1018890292+1018815830+1019237229+1020107751
1723+1021004407+1021512920+1021938398+1023137466+1025208439+1026817498
1714+1027401026+1027542760+1027592609+1027590050+1027748516+1028488850
1706+1029746478+1030727207+1031164024+1031859141+1033408188+1035057347
1697+1036427948+1037930671+1039089224+1039457110+1039535720+1039743758
1689+1039832117+1039636317+1039777221+1040916899+1042129587+1042259014
1680+1041668848+1040975736+1040627624+1040921254+1041612708+1042133251
1672+1042649785+1043924628+1045700034+1046509853+1046038674+1045119202
1663+1044327982+1043476404+1042161183+1040406381+1038490416+1036891797
1655+1036655551+1038635192+1040428643+1040392899+1040100236+1041108343
1646+1043342897+1044818588+1044819971+1044064011+1043142949+1042491181
1638+1042830305+1044814647+1047220803+1047917304+1046730404+1043986853
1629+1039386243+1032527364+1023406829+1011389601+994340409+971148888+943222008
1619+911017117+875995111+848921399+840832340+845542465+853406893+862109486
1609+873425443+888557012+906043090+923560972+939930603+954632200+967083341
1599+977157088+985416365+992550830+998947241+1004642520+1009657476+1014324943
1589+1018960329+1023359470+1027020765+1029651136+1031171698+1031392734
1581+1029684254+1024221004+1010489626+983410313+949467697+922366882+899574775
1571+868338583+825503312+790134923+780410602+792678595+813328794+831614043
1561+846700810+868109734+900059020+925199553+941014210+954802972+967942801
1551+979598712+989500926+997237171+1002775574+1007248071+1011855871+1016936578
1541+1022744483+1028748396+1032275009+1033186392+1033825577+1036481322
1533+1041780300+1047629688+1052532778+1056964483+1061244014+1064816535
1524+1067459766+1069769267+1072113198+1073741823+1073467413+1070777236
1516+1066007859+1059594924+1051232146+1040455192+1025697178+996954118+931453056
1506+839117914+767902076+720158668+681418950+648135638+624947229+619278983
1496+632832191+657386914+686894852+724098383+772336477+821198891+850561432
1486+855219910+844979471+832462234+826636767+826813969+822386275+802750544
1476+767567446+730165696+711703797+721368867+743502569+761644840+772267684
1466+777364017+781223462+788316098+798702765+809657958+818872244+822604199
1456+813724404+789055395+751252849+706144376+664965523+640378167+636629205
1446+646131522+659653894+674872992+692333005+710674603+728897144+749115849
1436+772248187+792989027+807899076+820014550+832683891+845860225+856769925
1426+861839362+856977478+840882258+820068201+805619029+805537445+817591317
1417+830806506+840165984+847708365+855399255+863423186+871200776+878481122
1407+885852593+893889660+901861252+908777654+915064827+921521596+927662195
1397+932200580+934142817+932234458+925400746+914584591+903301337+897254420
1387+901072106+912760235+925904834+936179705+942039118+943149550+939726161
1377+932219663+921920317+912356674+907933888+909682123+914845934+919447166
1367+919920695+914039987+900774742+880752735+857591773+835797333+818160602
1357+807272059+806258628+816350627+835019250+857548424+879604553+898311477
1347+912444618+922135891+928068867+930868698+931029790+929049181+925350828
1337+919900922+912143105+901725810+889560142+878316503+871568800+872015434
1327+880229910+894625362+912233469+929947359+945744178+959016130+969942077
1317+978874072+986225769+992340510+996978317+998670826+994008199+977387664
1307+944150260+898238052+856091677+837219649+848354878+878676646+910488553
1298+931536506+937782610+930497217+914462700+896988306+885249084+882893883
1288+888707665+898258379+906853808+911844082+913778160+916038434+922341923
1278+933797609+948540205+963913897+978226728+990495136+999442549+1003376388
1268+1001085624+992958885+981190417+967736630+950778908+924119196+882480642
1258+828072012+770757355+721717186+686980999+665633332+653132273+646257008
1248+645241711+651852797+666101675+684872830+703074353+715562759+718504530
1238+710616388+694523104+676629938+664319770+662301274+671135991+688524999
1228+711216233+735789692+758728028+776747717+787270587+788416280+778790273
1218+758205618+729648817+700582534+680886584+677664180+691089827+715123246
1208+741995558+766126117+785321989+800179009+812691960+824584324+836360743
1198+847584469+857474169+864943332+868452315+866479796+858601471+845800697
1188+828615993+805006531+772411492+733598281+698456735+677330587+672969334
1179+680172522+691849105+703672953+714399574+724605583+735719517+748913619
1169+764009029+779451444+793449489+805166725+815032641+824121857+833195516
1159+842226931+850726050+858295603+864795860+870134730+874015125+875960127
1149+875597773+872662155+866808549+858470246+850431382+847291391+851993358
1139+863182446+876652203+888822988+898237223+904693439+908257041+908482778
1129+903274995+889980158+870357287+853111810+847368480+853591562+864108762
1119+871974158+876005067+877800869+877471079+873228744+864000976+852256844
1109+843995977+844704092+854981728+870680647+886829796+900612750+911219416
1099+917956749+918608586+910237443+893409908+875513078+866787600+871522131
1089+885037658+899793114+911872152+921171686+928588719+934801154+940302568
1079+945381547+950174500+954712055+958877991+962628475+966196502+969888979
1069+973846325+977992211+982002240+985451557+988165586+990356860+992441660
1060+994758973+997306517+999723735+1001564200+1002471020+1002109218+1000054839
1050+995584278+987238854+972416818+947863478+912404172+871064988+835496305
1040+817123249+818133362+829421249+837255187+831673364+810385916+778518836
1030+746750416+727617115+729615561+752112586+784099206+806887097+801558805
1020+761811740+703614324+657895704+648401821+675984669+722545465+763987389
1010+778382771+752194100+689919590+617103266+565739804+552770850+573023676
1000+610158587+650151300+685767343+714570623+736649705+753503444+767214909
990+779722329+792257058+805019183+817395102+828709330+838819444+848004969
980+856548544+864609186+872207915+879045084+884356921+886603920+882879156
970+869912035+848134603+824750256+809597254+806535804+811389253+819218905
960+830002219+845460813+863053710+873384306+861911889+818529733+752669358
950+694664008+672742007+689379480+725001815+760120752+787527851+807914909
941+822895064+833576192+841584151+848961637+857014260+865622825+873878300
931+881130576+887152810+891445132+892109483+885008413+865643359+834786875
921+802449792+783002187+784098239+801222585+823443954+842605879+856596318
911+866776261+874804547+881460643+886971045+891632151+895840331+899712429
901+903120056+906092524+908888137+911678703+914339841+916587117+918293038
891+919638403+920921820+922235796+923360056+924034294+924335392+924651424
881+925260119+926118472+927034142+927747719+927784086+926541323+923927544
871+921024975+919718880+921183440+924860568+929166855+932697824+934342558
861+933169832+929494571+925840951+925552989+929952890+937361972+944935880
851+950826890+954511830+955698730+953433616+946608823+935552550+922342753
841+908050801+889169924+858028383+809160023+747631378+691147005+660621072
832+665267313+696520651+736355383+769898517+790837024+799998281+803141453
822+808404754+821497362+841989164+864894037+885385701+901555314+913793371
812+922905955+929064807+931940551+930998540+924970912+910731644+883133724
802+837792807+776391930+709690763+653648460+621125464+616440228+635743403
792+670438729+711193210+751254854+787491069+819235221+846806316+870557788
782+890078818+903628500+907856384+897349209+865191194+807324259+729446725
772+649003187+587359634+557414533+556489634+569452088+580106390+582848559
762+584388825+594160575+614587526+640976076+667550886+691183233+711144398
752+727851286+742029782+754261685+764941430+774393553+782867989+790503845
742+797331681+803306002+808440430+812980336+817329766+821693646+825829783
732+829176084+831149502+831557557+831145354+831518356+833859245+837851298
722+842359608+846738491+850969279+855099402+859109915+862965143+866471983
713+869329060+871359448+872442502+872151360+869720591+864956745+859533734
703+856649762+858448329+864072188+870771772+876504385+881015322+884925861
693+888659060+892385000+896361773+900758010+905283052+909418221+912943244
683+916056410+918574432+917312794+904221362+872401365+828293946+792990755
673+783772666+798769968+826017563+855767210+879144782+891682208+897803172
663+902369973+906757221+910437114+913165939+915282267+916846524+917542126
653+916965166+914307000+907470315+893180437+869753985+840382525+812763656
643+795244530+793065908+806342424+829097197+850945288+863405901+866594220
633+868446370+875933232+888667979+901937097+912910127+921710828+928818466
623+934223917+938296931+941740233+944774857+946556278+943982461+929458343
613+891919698+826778985+748712012+688584734+670010417+690856900+730581079
603+770131376+801487800+824331346+840508910+851724478+859338833+864144161
594+865462355+861717471+853912018+847398694+847756900+855772534+867460110
584+878203186+886149473+891763584+895832311+898984125+901898172+904793344
574+907244163+908836767+909433985+909254778+909298335+910739526+913455768
564+916263203+918535092+920447254+921966709+922729928+922816351+922900562
554+923545140+924689657+925592744+924143256+916208100+898003535+870271279
544+838051039+806584685+781229547+770093764+779496937+803879298+824923171
534+826453343+810710314+796059810+797942035+815635667+837371408+852405838
524+856836643+851539464+838000015+817226542+792449678+771950685+764862266
514+772931275+790245337+809742860+827666446+843128151+855584477+864374185
504+870389160+875974992+882127207+887146864+889207674+888404838+885562212
494+880662785+873195350+863769846+854784753+849023516+848102800+852379219
484+861039085+871852129+882071550+889984375+895131455+897926929+899629671
475+901638281+904267615+906726109+908653066+910898959+914337905+918467959
465+921541231+922400415+921698798+920693387+919664883+918679730+918789038
455+920568937+922720111+922974402+919946208+914298289+907741960+901038781
445+893514929+885362747+879715865+879982187+886040857+895372817+905732520
435+915574792+923422073+928141255+930112876+931507813+934491897+938874030
425+941368130+936775955+918385822+874888482+799044032+720346448+682037601
415+684885759+711962928+750061801+787270725+815026695+831273260+837939380
405+838183439+836090826+836376575+842858926+856692628+874474273+889644767
395+899716785+906134284+909832499+911416115+911477994+910180473+907942945
385+906414640+907707944+911961202+917072607+920608070+920697881+915722057
375+905437991+895699289
##END=
