##TITLE=X8567
##JCAMP-DX=5.0
##DATA TYPE=LINK
##BLOCKS=1


$$ === CHEMSPECTRA SPECTRUM ORIG ===
##TITLE=X8567
##JCAMP-DX=5.00
##DATA TYPE=INFRARED SPECTRUM
##DATA CLASS=XYDATA
##ORIGIN=ComPlat
##OWNER=
##XUNITS=1/CM
##YUNITS=TRANSMITTANCE
##XFACTOR=1
##YFACTOR=8.291367e-010
##FIRSTX=3997.453
##LASTX=373.96442
##MAXX=3997.453
##MAXY=0.8902787517742041
##MINX=373.96442
##MINY=0.4028565263013459
##NPOINTS=2559
##XYDATA= (X++(Y..Y))
2559A072533463A072070436A071986759A072305149A072626631A072446552A071791225
2552A071286430A071390236A071814085A071918754A071509713A071005637A070838858
2545A071012251A071365147A071867857A072352811A072438500A072101995A071814013
2538A071792591A071644574A071001108A070085836A069496645A069631864A070375255
2531A071303971A072078200A072554959A072654092A072337427A071812144A071597057
2524A071983237A072458054A072346844A071925583A072127371A073054074A073741823
2517A073525298A072587093A071398000A070383594A070004171A070460586A071223169
2510A071451556A070878324A069999139A069446180A069294784A069290184A069439135
2503A069975847A070988959A072182725A073014392A073181819A072796285A071951534
2496A070510907A068660520A067262594A067111918A067928057A068910977A069818414
2489A070506953A070459579A069414045A067948330A067379195A068481592A069928474
2482A070078862A069373933A069243169A069648327A069424973A068944979A069415196
2475A070165487A069701308A068259315A066976481A066130005A065639084A066260768
2468A067934743A068961226A068802498A068747792A069535392A070006687A069043034
2461A066877564A064239361A061928102A061723439A065598180A070716146A072967450
2454A072575447A071048409A069300104A067735758A066510865A065599617A065115671
2447A065577980A067057427A068380805A068573823A068024962A067688744A067909439
2440A068246663A068309277A068025106A067214788A065967395A065453902A066609639
2433A067941932A068364343A069244823A071275144A072735612A072425274A070795582
2426A068819535A067633390A067641585A067495366A066271623A065407103A066435958
2419A067954225A068476919A068780860A069640708A070492576A070809959A070882494
2412A070939141A070630600A069781392A068993863A068763751A068640176A068270386
2405A068314022A069177248A069911364A069685493A068815222A068050266A067860555
2398A068189441A068580653A068870144A069267467A069542940A069185731A068495466
2391A068519549A069442729A069892530A068781938A066573695A065117252A066492389
2384A069509369A070450809A068986890A067762428A068564622A069465589A068235521
2377A065280293A061940324A059768959A060161537A062778749A065588404A067316078
2370A067888304A067555032A066776706A066213035A066137769A066215767A066203905
2363A066321154A066815525A067438647A067484583A066519132A065250316A065342044
2356A067095743A068554558A068384400A067000204A065624563A065368067A066334381
2349A067501836A068107705A068195192A067854732A066987768A065630242A064266319
2342A064030887A065663958A067688672A068232789A067295518A065773658A064329724
2335A063131933A062048657A061379672A062338652A064845229A066190031A065401999
2328A064568894A065826136A068108567A069313835A069211395A068625511A068139335
2321A067611536A066762903A066071560A066241718A066494475A065246650A062359213
2314A059686360A060127534A063852534A067560209A069424398A069747964A069381840
2307A068944979A068468149A067593277A066213466A064694913A063334152A062002003
2300A061003700A061842485A064746456A066719267A066222884A064297518A062281143
2293A061163219A061545373A062720879A062981544A061903877A060596529A060017834
2286A060050399A060395172A061138849A061934142A061975693A061068974A059802818
2279A058896603A058579435A058522069A058335017A057952431A057565820A057263461
2272A056930405A056604108A056631137A057096106A057419097A057181293A056534952
2265A055823696A055374614A055382090A055730314A056048920A055988894A055285833
2258A053731551A051508068A049713466A049873343A051633655A052673150A051884256
2251A050179944A049075463A049175962A049783197A049987429A049753867A049701029
2244A049976359A049959106A049256908A048282759A047759633A048044811A048968782
2237A050001232A050539023A050380655A049913241A049615842A049503770A049251444
2230A048695250A048065299A047765959A047874006A048004051A047829795A047502131
2223A047447209A047943306A048894810A049836681A050209346A049755736A048640543
2216A047350880A046501383A046302759A046193921A045542619A044475304A043539040
2209A042877387A042299842A041876854A041805111A041913086A041725243A041026353
2202A040140698A039566747A039430305A039412620A039180208A038660892A037930657
2195A037047878A035980491A034724111A033610932A033154877A033261846A033073141
2188A032096979A030927296A030385839A030503950A030704660A030545860A030004690
2181A029273665A028523518A027822974A027144786A026408442A025637591A025050197
2174A024753373A024447132A023826167A023143235A022865533A022902842A022783581
2167A022389637A021923518A021403987A020689640A019883780A019357706A019382148
2160A019870840A020470382A020845707A020907315A020786616A020644350A020535584
2153A020414741A020210652A019914763A019657190A019607731A019693781A019562083
2146A019035650A018426402A018077172A017830454A017351251A016741645A016389467
2139A016391193A016541006A016774568A017243132A017924124A018454295A018504904
2132A018166960A017777257A017494308A017271959A017132138A017218834A017616876
2125A018233528A018797055A018971095A018600083A017861366A017152267A016851992
2118A017097201A017667988A018220948A018732859A019476824A020470239A021268263
2111A021489677A021270779A021032256A020992646A021058782A021080564A021064246
2104A021100980A021174090A021172580A021117946A021241449A021705339A022319475
2097A022709393A022764962A022753748A022938427A023239852A023376654A023271195
2090A023237408A023697992A024699242A025817166A026623817A027069375A027263903
2083A027154994A026686431A026067622A025651321A025641185A026005799A026574430
2076A027178430A027727363A028122889A028211022A028020090A027973722A028569742
2069A029814620A031158630A032007263A032169801A031858742A031423895A031101480
2062A030973088A031126856A031674424A032454332A032984072A033015055A032908158
2055A033158759A033758661A034282937A034402486A034141462A033810779A033765993
2048A034077194A034472216A034713472A034895994A035255073A035817737A036389603
2041A036826464A037185399A037551307A037826564A037840870A037631317A037447284
2034A037498110A037834400A038415180A039096171A039588960A039654091A039409313
2027A039301985A039690538A040572670A041693326A042669416A043057825A042731238
2020A042244704A042420469A043469165A044804046A045704509A045898606A045556709
2013A045006769A044533461A044301624A044333686A044489969A044537128A044333901
2006A043957353A043629690A043534296A043649819A043757578A043721347A043729542
1999A044031973A044470703A044601467A044292710A043897184A043810200A044104435
1992A044569908A044901094A044923451A044800236A044900735A045370305A045992420
1985A046477661A046667373A046488732A045980559A045401287A045081101A045091597
1978A045241410A045422639A045721835A046121674A046394487A046442868A046477374
1971A046698428A047038672A047298618A047324785A047073466A046662628A046284068
1964A045990263A045718097A045519184A045560088A045891706A046355165A046718629
1957A046864704A046881310A046940402A047044495A046976058A046560548A045905580
1950A045329041A045112731A045315814A045735709A046057622A046121674A046049858
1943A046089109A046338559A046622873A046630998A046258188A045791422A045590065
1936A045597182A045399921A044801746A044056775A043446665A042860349A041993385
1929A040816657A039570917A038324026A036890588A035284547A033924865A033248474
1922A033301240A033720273A033975042A033748165A033269106A033105921A033434232
1915A033738820A033467013A032684373A031822224A031079410A030382963A029688816
1908A029038665A028433443A027826784A027241906A026888938A027077715A027888607
1901A029051102A030267224A031447115A032556988A033498715A034211049A034725261
1894A035148823A035581443A035924346A035892357A035310067A034186967A032532402
1887A030451975A028346963A026716336A025818460A025517826A025247816A024362304
1880A022874232A021506283A020748444A020317909A019726993A018871530A017957408
1873A017268653A016949903A016730143A016090917A014911171A013635597A012654979
1866A011891029A011127367A010412589A009946254A009795721A009877745A010057823
1859A010160407A010047256A009760424A009419462A008937383A008040370A006599886
1852A004735122A002572598A000128924I97493525I94973074I92957490I91607225
1845I90662118I89623415I88168985I86354901I84404591I82366578I79999319I76918720
1837I72792659I67396920I60578094I52199738I42103988I30207166I16738377I02294578
1829H87559634H73057174H59151669H46108958H34247792H24278564H17362043H14509040
1821H15870088H20606258H27246300H34117963H39699963H42855110H42970346H40021229
1813H34456913H26905121H17984733H08352801G98716270G89682227G81744686G75504915
1805G71711406G70866440G72800503G76740016G81816286G87477147G93458483G99543696
1797H05502171H11195741H16571279H21545614H26035785H30093552H33863338H37419689
1789H40776121H44009264H47264120H50674252H54278265H57893492H61096012H63500796
1781H65124521H66382698H67656762H68922128H69922947H70647861H71305705H71799932
1773H71630924H70454699H68353064H65395250H61273647H55576051H48276010H39926769
1765H31578462H24571219H20092334H18409086H18364659H17948790H15659601H11322407
1757H05759960H00094786G95457892G92905595G93162881G96361735H02064506H09500559
1749H17796603H26170143H34099991H41386950H48051577H54184523H59897574H65351471
1741H70738799H76161208H81516403H86579518H91266446H95764956I00320473I04915241
1733I09262140I13125451I16504959I19411590I21611207I22762055I22749547I21764471
1725I20116664I18058881I15690544I12927185I09619134I05793851I01770374H97977800
1717H94664573H91846004H89502324H87708585H86581028H86246247H86850750H88437238
1709H90814848H93694090H96958864I00688969I04934722I09572622I14374426I19133960
1701I23742098I28223283I32674205I37101258I41383602I45461355I49426315I53314356
1693I56950430I60139939I62924002I65522810I68104222I70700371I73245695I75555084
1685I77381748I78704695I79860504I81192436I82681877I84082605I85264295I86289556
1677I87283330I88293063I89225373I89981343I90653205I91420173I92285628I93104643
1669I93801450I94393660I94868693I95182842I95396923I95713301I96269998I96922090
1661I97384040I97608473I97857492I98376377I99138097I99920738A000538899
1654A000946502A001158211A001212701A001278766A001601182A002214527A002871077
1647A003347188A003658533A003921283A004166275A004360803A004524635A004725345
1640A004951576A005103115A005170617A005255588A005351989A005343722A005285709
1633A005400801A005714519A005943121A005830186A005446450A005101749A005037841
1626A005238838A005491380A005592884A005514096A005382828A005306269A005277730
1619A005323881A005583539A006055049A006422683A006388034A006045777A005730837
1612A005644284A005805169A006151308A006528718A006767600A006891247A007064927
1605A007277858A007322069A007166073A007087069A007306469A007704727A008022182
1598A008163298A008190687A008164735A008112114A008073582A008072360A008061433
1591A007972436A007851306A007882217A008172787A008542649A008690162A008578089
1584A008475218A008599943A008923437A009332046A009758051A010124751A010365574
1577A010558952A010890713A011391698A011816913A011938475A011891604A012004468
1570A012312794A012559727A012681505A012921682A013394199A013894752A014221122
1563A014325215A014076124A013296360A012203668A011415349A011263738A011430445
1556A011482132A011389541A011254321A010962816A010510284A010342930A010904587
1549A011958603A012806086A013185220A013491247A013979220A014297251A014119041
1542A013764348A013805468A014356486A015005703A015274491A015014258A014441745
1535A013848456A013376011A013127208A013245966A013671397A014017177A013943707
1528A013540418A013171778A013033754A013013985A012938575A012818738A012839802
1521A013124261A013513316A013711798A013717909A013854495A014227232A014529663
1514A014609674A014800320A015377721A016028304A016174092A015706248A015181181
1507A015234162A015864544A016441586A016434541A015924642A015323734A014858333
1500A014515717A014276187A014138738A014028103A013945792A014163684A014954663
1493A016103139A016988003A017225520A016976717A016583995A016192064A015838089
1486A015649960A015739316A016013855A016256116A016326781A016219094A016015005
1479A015812713A015556578A014992691A014015092A012998529A012515445A012737505
1472A013348047A014003877A014603923A015083701A015268596A015089308A014743385
1465A014492066A014438438A014599179A015020943A015675264A016354242A016785784
1458A016825394A016543594A016200977A016077403A016204285A016309960A016122045
1451A015688779A015355580A015447380A015938229A016414844A016483712A016172798
1444A015751896A015344725A015025041A014982843A015171979A015109148A014472513
1437A013648825A013355451A013909848A014999808A015992287A016420882A016265892
1430A015798623A015278157A014871489A014605145A014257927A013590452A012755262
1423A012128474A011698802A010989343A009609676A007534569A004816499A001381206
1416I97221862I92575479I87801783I83199395I78955152I75163009I71835548
1409I68828921I65770176I62376147I58990385I56400346I55014138I54674325
1402I55239362I56798316I59486553I63598811I69242203I75253587I79469939
1395I80352287I77822131I73310178I69253130I67299297I67141503I67817606
1388I68866446I70077752I71105314I71555042I71393655I71229823I71923395
1381I73738341I76068361I78039663I79229690I79963735I81009124I82808974
1374I85149850I87630044I89997086I91960840I93202914I93842713I94554257
1367I95883962I97638019I99223356A000477148A001792044A003404770A004993127
1360A006159431A006958030A007666195A008306642A008706840A008880880A009085975
1353A009549866A010303248A011221684A012132284A012907520A013460767A013637754
1346A013296719A012633484A012166862A012189938A012470586A012628596A012550454
1339A012369513A012277928A012359736A012475547A012431121A012232351A011921581
1332A011349572A010542274A010093336A010669946A012181742A013791090A014668766
1325A014555758A013773693A012910395A012421991A012343921A012329615A012070029
1318A011684496A011488530A011483570A011543453A011898505A012672375A013163296
1311A012587117A011409095A010973671A011805914A013025128A013582760A013574421
1304A013829981A014342684A014005171A012290220A010312090A009572007A010228700
1297A011175891A011449136A011097318A010820551A011250654A012666840A014846112
1290A016940341A018016284A017809104A016594850A014860131A013546456A013604829
1283A014741084A015679505A015995739A016516708A017632332A018304409A017264196
1276A014638789A011842361A010152068A009914264A010734860A011799085A012368794
1269A012410057A012329615A012035164A011138725A010166733A010362196A011870325
1262A013069554A012529463A011130961A010749453A011684207A012887463A013421588
1255A012976891A012085844A012020642A013343518A014846472A015094700A014300054
1248A013615828A013533589A013808127A014127668A014312850A014287402A013996042
1241A013309803A012262041A011292565A010870944A010867350A010669083A009992549
1234A009235573A008925666A009191794A009907147A010874035A011675078A011809508
1227A011182936A010153506A009101718A008226990A007629317A007300287A007068522
1220A006776442A006628210A007171249A008630783A010369528A011408591A011422466
1213A010833778A010025546A008913948A007465557A006285378A006131826A006900161
1206A007707315A007976390A007857057A007701132A007726293A007976174A008192556
1199A007973514A007181313A006011774A004885439A004404870A004982200A006369271
1192A007827583A008700945A008818984A008536107A008235617A007813133A007078442
1185A006484147A006715338A007524289A007749513A006865367A005668654A005135536
1178A005467441A006469123A007987676A009658991A011039161A012062769A012564400
1171A011903250A010145526A008806692A009485023A012196192A015100666A015816811
1164A013750977A010835575A009113939A008508574A007853894A006889809A006092072
1157A005716316A005810489A006392706A007242776A007818381A007609979A006731656
1150A006065905A006560204A008357682A010706897A012518823A012968121A011908210
1143A010065444A008694547A008679594A009930511A011490614A012224731A011778309
1136A010954262A010840823A011350434A011073955A009145282A006622531A005360975
1129A006169280A008130661A009390563A008980588A007854540A007505886A008154959
1122A008905681A008801444A007598405A006046208A005048696A004628872A004388839
1115A004496096A005238120A006130604A006476958A006380126A006426709A006649632
1108A006488029A005836871A005332580A005311517A005299512A004809310A004098989
1101A003725892A003731787A003670323A003246330A002753469A002858496A003826750
1094A004992120A005446881A005115336A004569421A004021278A003116357A001759838
1087A000458816I99755971I99689332I99887670I99982345I99792490I99324071
1080I98731214I98246260I98049000I98052595I97898180I97376923I96717067
1073I96188406I95719770I95150277I94564321I94170377I94014022I93927541
1066I93675215I93105147I92117699I90689867I89184469I88293638I88304565
1059I88758032I89107909I89430181I90297361I91862354I93453945I94408541
1052I94730094I94936052I95413242I95993159I96301269I96326430I96379914
1045I96610889I96887584I97127689I97379224I97608976I97799119I98169628
1038I98819707I99406741I99694004I99830735A000018649A000149197I99844681
1031I98975416I98079193I98044400I99020921A000213680A001087905A001626774
1024A001800958A001633244A001379912A001254828A001189913A000989994A000613806
1017A000206563I99921888I99765389I99651591I99543400I99403866I99146293
1010I98786352I98532229I98594771I98923729I99224866I99187269I98682905
1003I97962520I97638379I97964604I98461923I98759753I98948674I99155638
996I99255202I99130981I98898281I98627408I98124554I97193322I95951464
989I94923112I94739439I95335963I96057714I96530950I96554242I95960522
982I94980838I94217248I93927900I93750338I93484354I93218226I92759871
975I91801321I90497640I89525072I89481005I90105421I90702232I90961315
968I90958367I90937089I91167560I91546983I91431747I90477799I89377272
961I89458720I90718550I91789676I92376782I92795671I93051662I93120890
954I93121896I92926290I92163347I90811213I89665252I89971423I91602480
947I93138287I93857666I93761265I93114061I92365136I91981830I92014468
940I91936758I91424846I90913725I90902295I90847229I90360838I90243948
933I90668876I90714668I90024260I88979661I87823062I86445911I85172854
926I85190969I86710026I88035777I88349926I87855627I87006850I86408745
919I86347713I86384447I86156923I86010775I86321474I86579119I86230105
912I85556949I85303833I85799785I86455832I86500185I85577581I83874995
905I82619119I83905763I86344909I86851573I85928608I85122173I85375792
898I85993451I85934718I84979764I83088688I80251357I76825553I73691111
891I71378415I68900593I65073010I59319270I51360019I41163482I28051401
884I09084864H80534346H43888207H04533558G61712992G09942564F54928496
877F16870412F03006062F06813696F23419732F49562303F80264417G10303799
870G37050802G60443816G81086627G99270739H15281832H29572583H42663242
863H55010584H66715682H77670273H87903975H97329014I05664525I12886641
856I19210449I24803304I29679871I33481287I35749844I36632048I36579067
849I35221182I31784164I25950773I17646750I08703429I03477704I04190973
842I09468170I16412583I21997243I25341598I28983135I35405790I40880605
835I43632822I45140664I46080307I46701631I47012689I46536506I44947071
828I42271486I38511981I33818871I28178282I21191383I13676973I05630378
821H94269694H75881709H49802974H19902335G86873004G45785217F93650031
814F36812678E84619624E39431332E03801755D85874677D89173707E10609150
807E43310387E78713159F12748521F44703277F73926519G03676051G41660450
800G80709793H04862803H17958926H27485973H36083370H43977491H50525301
793H54819435H56595777H56321957H54594570H51843000H47908520H42378280
786H35551474H27940518H19904348H12264278H06317161H03001417H02611930
779H04949715H09306606H14148883H16236427H12932257H05387654G96574810
772G89659079G87080328G87777134G88120541G86161029G81932600G76652025
765G72845649G71512062G71360451G71420262G71054426G69363773G65683128
758G60827265G57060067G56728665G61080094G69482028G80687651G94901626
751H11636915H26434258H36286381H42920600H48762186H54659053H60215461
744H65150904H69698514H73877915H77303071H80063195H82962135H86121379
737H88467143H89648616H90292728H91014480H92129743H93579214H95001797
730H96227696H97408450H98436443H98902706H98786679H98494097H98327030
723H98271389H98254495H98214382H97930282H97127729H95695944H93713787
716H91260551H88060619H83445363H76751262H67935830H58184205H49574444
709H43767651H41194650H40997750H41359417H40660525H38271557H34183883
702H28569463H21415928H12261546H00715678G87272698G72683614G56892425
695G39574847G21061203G02380061F84610741F68437542F54349370F42844120
688F34284607F28773848F26121986F25977564F28260786F33269051F40971735
681F50541268F61005442F71807991F82670783F93364062G03598412G13100802
674G21801286G29777646G36974313G43108913G47909855G51432562G54169395
667G56869925G60253674G64832482G70755014G77670457G84873235G91626643
660G97384407H01966236H05590665H08606278H11238011H13633737H16016954
653H18629853H21509022H24403002H26980028H29063905H30677998H32012160
646H33360915H34937051H36739416H38674487H40706893H42841163H45079887
639H47428239H49864654H52342547H54875435H57546922H60388495H63303537
632H66139862H68795605H71244888H73486559H75483740H77180718H78583533
625H79732297H80542254H80780274H80308762H79261505H77865448H76170266
618H74065038H71467667H68370318H64732231H60413008H55226533H49076766
611H42024880H34154482H25418342H15764125H05439126G95046983G85243887
604G76435931G68843091G62789365G58720455G56870859G57123903G59282832
597G63246426G68813330G75525331G82806466G90124695G96988595H02952821
590H07732124H11314642H13985411H16204078H18352582H20569380H22777336
583H24661438H25507770H24247078H19832101H11617577G99614289G84750738
576G68979822G54946428G45320895G42124485G46147674G56489280G70546468
569G84830390G96300559H03183868H04687541H00234607G89189941G71307111
562G47499448G20382872F94053536F73024905F60875398F59229675F67343484
555F82472013G01005858G19704756G36295982G49491957G58849421G64593814
548G67388589G68089061G67481684G66116970G64381100G62641061G61166071
541G59932121G58656619G57091051G55247565G53381651G51874599G51175708
534G51784740G54198006G58750576G65331454G73178201G81053775G87728969
527G92371470G94699263G95043748G94292091G93538062G93575372G94640027
520G96544761G98947819H01517514H04046375H06538933H09158015H12098936
513H15582825H19858484H25012321H30747513H36374227H40995090H43760031
506H44069076H41608363H36319737H28495634H18865284H08435616G98202776
499G88969605G81277992G75379399G71201076G68273238G65735391G62598216
492G58150890G52219804G45138660G37475154G29733220G22307087G15619096
485G10113082G06097009G03672528G02727350G02929785G03899046G05473888
478G07690182G10465618G13494387G16529840G19618563G22917269G26387140
471G29850971G33315737G37034483G41222942G45841864G50636695G55254682
464G59375064G62875702G65862991G68455833G70592188G72119225G73020120
457G73493859G73855813G74423869G75515914G77516330G80749187G85045405
450G89507828G93025504G95101905G96069943G96612695G97308567G98514122
443H00372991H02830469H05699071H08801956H12124600H15821348H19995429
436H24528374H29201858H33902516H38615323H43299232H47846697H52099783
429H55839376H58792374H60750880H61754647H62109771H62169222H62135867
422H62101432H62169510H62463386H63074215H64038444H65306541H66658100
415H67583293H67169004H64070434H56654869H43423813H23711371G98444247
408G70575654G44787776G26177587G18195692G21058975G31882084G46476703
401G61468790G75323542G87941757G99573313H10055675H18857880H25673543
394H30910483H35634001H41076755H48065954H56593620H65762596H74282139
387H81216919H86362632H90028973H92598379H94289319H95234066H95644185
380H95741089H95499763H94631864H92940492H90630313H88231423H86275937
373H85049750H84571770H84724459H85373245H86469674H88158098H90682215
366H93998246H97566243I00727141I03245292I05328019I07181713I08730028
359I09803525I10443181I10861783I11176866I11380452I11551832I11861739
352I12358123I12945445I13584238I14382262I15499827I16962811I18485606
345I19599864I20095816I20180212I20131544I20067277I20069649I20162528
338I20097901I19466656I18016252I15632747I12145911I07461068I01807396
331H95549868H88744917H81126125H72518664H62925552H52120415H39523264
324H24658346H07468153G88081433G66566195G43083681G18175851F92821455
317F68192405F45455868F26105021F12418629F06840942F10400457F21920084
310F38741279F57845767F76588014F93250696G07376608G19516914G30699892
303G42152377G54988986G69464990G84533566G98665733H11166554H22286631
296H32188572H40408056H46431518H50426024H53286503H56132030H59751211
289H64343750H69652290H75280370H80798246H85621040H89114563H91062357
282H91874759H92115007H91959946H91317127H90286474H89177177H88097496
275H86842915H85321054H83809761H82572432H81524454H80612848H80102804
268H80011868H79705554H78525951H76409580H73645502H70567131H67584515
261H64934163H62355052H59472575H56477953H54144338H53210303H53851396
254H55716520H58402312H61798139H65971070H70822764H75784446H79811301
247H81965844H82204295H81359113H80308404H79575869H79590678H80600627
240H82323773H84217939H85945398H87159723H87190204H85432480H81934501
233H77381213H72721890H69088404H67817430H69916691H75180662H82053260
226H88633778H93760370H97252526H99529925I01100453I02342096I03662095
219I05360153I07135777I08377994I09111320I09941406I11075289I11978916
212I11758221I09683689I06240920I04808703I08836709I14723800I17881678
205I18134147I16975679I15618657I14586206I13938428I13362249I12378898
198I10937265I09518850I08503798I07778955I07057850I06223164I05103802
191I03293744I00851794H99077249H99596277I02364956I05485812I07289616
184I07690030I07321678I06620918I06182763I06873603I08995581I11922125
177I14845074I17383497I19286146I20080720I19529342I18308187I17500315
170I17247486I16684965I15364534I13904928I12957018I12326852I11528971
163I10611614I09969226I09566799I08687470I06605749I03524215I00725703
156H99592108I00215733I01039637I00250454H97414417H93496112H89583342
149H85687178H80829877H74487018H67489120H60914712H54687521H48214833
142H41976140H37331770H34854955H33652060H32258375H29564315H24804925
135H17733774H09354268H01536636G95320012G90324902G86090076G83108897
128G82269969G84063924G88592843G95607347H04206685H13092711H21468191
121H29373382H37047886H44377474H51106800H57228244H62849854H67831665
114H71951758H75448299H78983084H82931870H87025509H90796731H94003853
107H96464926H97988943H98917874I00416371I03546285I07786863I11323876
100I13231413I14341142I15884353I18145362I20577966I22697356I24511799
93I26355644I28566690I31109068I33498683I35534540I37779087I40643879
86I43160448I43575527I41454556I38162176I35083446I32851767I31990194
79I32331732I32115207I29691444I25866305I23278783I23879907I27260709
72I31367360I34806103I37887349I40905406I42939250I43722034I44889201
65I47934287I52054382I55166036I56306317I56165777I55699658I55113918
58I54535798I54774752I56728441I60186882I63441376I64304388I61753025
51I57168537I53569413I52818331I53888665I55080562I57004202I61534559
44I68129383I73657970I76470860I77413953I76978026I74578347I70857733
37I68441663I69506462I73310609I76708664I76922170I75767728I77172411
30I79984798I81147076I80383630I79687183I79632189I78733235I76745039
23I75813232I78028161I83433030I89958841I94045149I93005367I89446212
16I88240801I90173570I94184683I99298047A003744511A005456514A003703246
9I99438660I94324288I89777901I86835111I85733721I85129577I83694270
2I84496535I92385192
##END=


$$ === CHEMSPECTRA PEAK TABLE EDIT ===
##TITLE=X8567
##JCAMP-DX=5.00
##DATA TYPE=INFRAREDPEAKTABLE
##DATA CLASS=PEAKTABLE
##$CSTHRESHOLD=0.93
##MAXX=3997.453
##MAXY=0.8902787517742041
##MINX=373.96442
##MINY=0.4028565263013459
##$CSSOLVENTNAME=- - -
##$CSSOLVENTVALUE=0
##$CSSOLVENTX=0
##NPOINTS=31
##PEAKTABLE= (XY..XY)
441.95795082095356, 0.7900166466648477
478.78778001563705, 0.7655243233166361
553.8639702971068, 0.6486087406057622
698.3502232916339, 0.7195392809418176
735.180052486317, 0.7074279750354201
815.9223703362, 0.5031540960747714
899.4977519702888, 0.733430918290959
946.2433044096947, 0.5954824060190964
970.3243465754495, 0.7147999363937544
1055.3162601016415, 0.582657035978745
1113.394067677873, 0.6579515300510754
1130.3924503831117, 0.6228273476512836
1161.556152009382, 0.5465915172715725
1184.2206622830336, 0.6153226464820994
1222.4670233698198, 0.6275494063574253
1342.8722341985927, 0.5190209716889987
1443.4459985379199, 0.6274315080935055
1453.3617217826427, 0.6395632588526516
1464.6939769194682, 0.6525971857928375
1477.442763948397, 0.665475007020831
1519.9387207114933, 0.4028565263013459
1568.1008050430023, 0.7491065220181368
1613.4298255903045, 0.49997445632667536
2331.6114948866298, 0.8052822903838041
2341.527218131352, 0.80189251423046
2359.942132728694, 0.7915555194052275
2797.6504873885847, 0.7348192886249649
2857.1448268569193, 0.6574271284498365
2927.97142146208, 0.639153656202348
2953.4689955199374, 0.675339337545768
3396.8434777482457, 0.8439982490237508
##END=


$$ === CHEMSPECTRA PEAK TABLE AUTO ===
##TITLE=X8567
##JCAMP-DX=5.00
##DATA TYPE=INFRAREDPEAKTABLE
##DATA CLASS=PEAKTABLE
##$CSTHRESHOLD=0.93
##MAXX=3997.453
##MAXY=0.8902787517742041
##MINX=373.96442
##MINY=0.4028565263013459
##NPOINTS=62
##PEAKTABLE= (XY..XY)
2953.4689955199374, 0.675339337545768
2927.97142146208, 0.639153656202348
2857.1448268569193, 0.6574271284498365
2797.6504873885847, 0.7348192886249649
2359.942132728694, 0.7915555194052275
2341.527218131352, 0.80189251423046
2331.6114948866298, 0.8052822903838041
1899.5692677951524, 0.8275190542983
1875.4882256293977, 0.8194305256423146
1830.159205082095, 0.82751524026948
1801.8285672400311, 0.8279197171967043
1791.9128439953088, 0.8271785933574093
1772.0813975058636, 0.8247749758123113
1749.4168872322125, 0.8204150151983834
1742.3342277716965, 0.8216223078810663
1735.2515683111806, 0.8203290063610824
1718.2531856059418, 0.8205677811479484
1706.9209304691162, 0.822488540986161
1695.5886753322907, 0.8210475992396916
1685.6729520875683, 0.8168429690951418
1674.3406969507428, 0.8178170878093671
1670.0911012744327, 0.8175377201479425
1663.0084418139168, 0.8169515685909711
1654.5092504612976, 0.8147255736845673
1647.4265910007816, 0.8168009476180491
1613.4298255903045, 0.49997445632667536
1568.1008050430023, 0.7491065220181368
1519.9387207114933, 0.4028565263013459
1477.442763948397, 0.665475007020831
1464.6939769194682, 0.6525971857928375
1453.3617217826427, 0.6395632588526516
1443.4459985379199, 0.6274315080935055
1374.035935824863, 0.697302099142425
1342.8722341985927, 0.5190209716889987
1222.4670233698198, 0.6275494063574253
1184.2206622830336, 0.6153226464820994
1161.556152009382, 0.5465915172715725
1130.3924503831117, 0.6228273476512836
1113.394067677873, 0.6579515300510754
1055.3162601016415, 0.582657035978745
970.3243465754495, 0.7147999363937544
946.2433044096947, 0.5954824060190964
899.4977519702888, 0.733430918290959
855.5852633150898, 0.7628615458297658
815.9223703362, 0.5031540960747714
735.180052486317, 0.7074279750354201
716.7651378889755, 0.7292886334222923
698.3502232916339, 0.719539280112681
668.6030535574664, 0.7502101021367
640.2724157154025, 0.7454579432809383
628.9401605785765, 0.7513493857107021
593.5268632759967, 0.7458848317731636
553.8639702971068, 0.6486087406057622
485.870439476153, 0.7727472738855198
478.78778001563705, 0.7655243233166361
454.7067378498823, 0.7914406615855866
441.95795082095356, 0.7900166466648477
424.95956811571523, 0.8029705246023321
417.87690865519926, 0.8090448339604176
405.12812162627006, 0.8090825629968144
395.2123983815477, 0.8193867165464966
376.7974837842062, 0.815617020836709
##END=

##END=

