##TITLE=X7889
##JCAMP-DX=4.24
##DATA TYPE=INFRARED SPECTRUM
##DATE=30/10/2018
##SAMPLING PROCEDURE=Diamant-ATR
##ORIGIN=ComPlat
##XUNITS=1/CM
##YUNITS=TRANSMITTANCE
##RESOLUTION=4
##FIRSTX=3997.453
##LASTX=373.96442
##DELTAX=-1.4165319
##MAXY=0.92253494
##MINY=0.42455801
##XFACTOR=1
##YFACTOR=8.5917762e-010
##NPOINTS=2559
##FIRSTY=0.86675841
##XYDATA=(X++(Y..Y))
3997+1008823306+1009265913+1009606609+1009437059+1009004026+1008686917
3989+1008508071+1008468527+1008848489+1009725239+1010597479+1010929781
3980+1010748714+1010349605+1009812927+1009190503+1008777103+1008785498
3972+1008981896+1009001737+1008826290+1008695519+1008718274+1008794724
3963+1008831562+1008847726+1008888518+1008985434+1009173784+1009359082
3955+1009231781+1008620595+1007876905+1007654076+1008285866+1009350896
3946+1009949456+1009712335+1009350757+1009754931+1010615932+1010968214
3938+1010712848+1010258101+1009479863+1008274558+1007499164+1007956686
3929+1008887131+1009039545+1008339422+1007587477+1007299019+1007224442
3921+1006927036+1006409158+1006068115+1006287823+1007072652+1008148227
3912+1009395920+1010842300+1012051004+1011978508+1009992051+1006923220
3904+1004692011+1004365676+1005374514+1007187882+1009650107+1011887767
3895+1012759244+1011960610+1010334482+1009306358+1009212426+1009016374
3887+1008223845+1007415845+1006932100+1006312659+1005822323+1006650233
3878+1008608941+1009956879+1009747993+1008240287+1006155041+1004465366
3870+1004370255+1005959198+1007561462+1008003236+1007700348+1007571382
3861+1007781100+1007862406+1007526844+1006800567+1005858606+1005099445
3853+1005413363+1007212094+1009548057+1011585296+1012780542+1012635481
3844+1011044109+1008571340+1006096004+1004265569+1003631351+1004631725
3836+1006702888+1008552401+1009398834+1009238371+1008565582+1007978330
3827+1007803924+1007865597+1007611272+1006860783+1006324730+1006674445
3819+1007133285+1007153542+1007847768+1009967909+1012145839+1012820987
3810+1011812011+1009944669+1008677205+1008799789+1008871660+1007304084
3802+1005031667+1004527248+1006197498+1008594095+1011075119+1013236052
3793+1014353321+1014318149+1013681989+1012950439+1012376993+1012097901
3785+1012052045+1011869383+1011201658+1010226813+1009688679+1010142385
3776+1011234263+1012260028+1012850402+1012973124+1012796151+1012444771
3768+1011840940+1011150737+1010899256+1011085178+1010962733+1010159173
3759+1009248847+1008887963+1008782514+1008133798+1006537292+1004471333
3751+1003515913+1004462175+1005507157+1005371253+1004742377+1004699018
3742+1004974364+1004424644+1002501525+999324332+995944427+994403629+995883031
3733+999193007+1002470723+1004663707+1005531299+1005507157+1005361124
3724+1005559326+1006071445+1006742639+1007447341+1008115205+1008684420
3716+1008857300+1008260891+1007182818+1006896858+1008193876+1010062050
3707+1011243906+1011301626+1010426610+1009382531+1009085471+1009555064
3699+1010005094+1010009672+1009690621+1009276180+1008928269+1008890322
3690+1009601267+1011100233+1012358748+1012516504+1011734173+1010459771
3682+1008984879+1007499233+1006071723+1004793853+1004477160+1005876712
3673+1007505615+1007883773+1007825291+1009227688+1012055444+1014452388
3665+1015250952+1014391755+1012587613+1010715484+1009241979+1008614213
3656+1009376495+1010743511+1010722907+1008426417+1005092855+1003562879
3648+1005069753+1007794628+1010341280+1012327113+1013529574+1014022199
3639+1014183841+1014059175+1013147323+1011116119+1008298630+1005189632
3631+1002199332+1000632519+1001977057+1004684866+1006447175+1007028738
3622+1007148894+1007460384+1008281495+1009244615+1009494639+1008905098
3614+1008380700+1008738948+1009777824+1011168844+1013134558+1015153898
3605+1015819681+1014770676+1012985959+1011415815+1010213979+1009207223
3597+1008379243+1007819186+1007685156+1007805936+1007394478+1005959059
3588+1004526901+1005065383+1007563473+1010054002+1011382030+1011731120
3580+1011854398+1012216808+1012620010+1012844227+1013153011+1013570504
3571+1013345386+1011866192+1009849488+1009118632+1010286059+1011894358
3563+1012878498+1013377714+1013809984+1014354848+1014871893+1014919067
3554+1014171700+1013085718+1012570130+1012699166+1012677799+1012077852
3546+1011329445+1011157328+1012015762+1013841133+1015828006+1016805625
3537+1016342415+1015192886+1014292064+1013767180+1013264218+1012631596
3529+1011995089+1011501839+1011297324+1011660636+1012824594+1014487630
3520+1015782705+1016039666+1015521858+1015131768+1015251716+1015279535
3512+1014619857+1013698083+1013420726+1013864720+1014262996+1014175863
3503+1014012972+1014320299+1014904568+1015114910+1014756107+1014328208
3495+1014386898+1014882368+1015315123+1015387411+1015275996+1015286125
3486+1015396222+1015281061+1014792112+1014270003+1014209370+1014590511
3478+1014903527+1014925102+1015038113+1015554533+1016131587+1016217819
3469+1015658317+1014618677+1013418367+1012573252+1012475504+1012898339
3461+1013236330+1013294049+1013455898+1014038432+1014785452+1015172074
3452+1015085287+1014952852+1015156118+1015541907+1015649992+1015327472
3444+1014932387+1014959859+1015544335+1016244181+1016439816+1016041817
3435+1015548983+1015310892+1015150915+1014889722+1014751529+1014991008
3427+1015468371+1015732478+1015382000+1014498521+1013737835+1013633774
3418+1014000346+1014436640+1014901376+1015365905+1015530669+1015278633
3410+1014905955+1014748684+1014933358+1015425151+1016067763+1016639336
3401+1016906426+1016637324+1015803239+1014798425+1014157756+1014049602
3393+1014243849+1014444895+1014512327+1014492971+1014489850+1014484508
3384+1014406601+1014433032+1014945568+1015965644+1016901570+1017194814
3376+1017020338+1016940835+1017108512+1017211672+1016988495+1016490667
3367+1016012055+1015773131+1015561471+1015082373+1014802865+1015612738
3359+1017350350+1018625099+1018535953+1017694931+1017125717+1017005561
3350+1016949785+1016844544+1016907050+1017233455+1017618897+1017804126
3342+1017802322+1017813839+1017732463+1017081526+1015778889+1014595298
3333+1014420684+1015347035+1016715508+1017768815+1018155159+1018052763
3325+1017912211+1018038264+1018371814+1018562385+1018295295+1017687231
3316+1017242127+1017332591+1017918246+1018679211+1019155047+1018998262
3308+1018387701+1017934133+1018010375+1018432516+1018763361+1018723402
3299+1018359396+1017908812+1017532388+1017297487+1017316426+1017635200
3291+1018111523+1018603732+1019075059+1019384329+1019250575+1018607062
3282+1017871766+1017680918+1018261162+1019144849+1019695333+1019830196
3274+1019957567+1020296944+1020651515+1020822869+1020828558+1020640069
3265+1020169782+1019693321+1019768175+1020420083+1020937822+1020803236
3257+1020327330+1020043521+1019909976+1019443574+1018445004+1017404115
3248+1017139106+1017973191+1019310584+1020215499+1020463165+1020678641
3240+1021288161+1021818595+1021679916+1021175290+1021047780+1021412479
3231+1021778566+1021777179+1021407068+1020912778+1020674686+1020894325
3223+1021292324+1021389933+1021079623+1020721514+1020665043+1020868309
3214+1021116460+1021412618+1021838228+1022183572+1022191550+1022060156
3206+1022199944+1022544109+1022542028+1021904203+1021082814+1020868171
3197+1021588759+1022804678+1023754201+1024007000+1023750316+1023502720
3189+1023476289+1023363139+1022953763+1022630757+1022849424+1023444238
3180+1023876577+1023931174+1023819829+1023726382+1023604284+1023433623
3172+1023365290+1023495020+1023746986+1024051955+1024361571+1024521825
3163+1024462926+1024347627+1024245924+1023958230+1023388253+1022752925
3155+1022378860+1022561938+1023417390+1024608820+1025513180+1025766118
3146+1025409813+1024687976+1023951223+1023446805+1023108120+1022893269
3138+1023105831+1023881086+1024713644+1025023191+1024884513+1024804455
3129+1025091247+1025698895+1026368910+1026779535+1026767672+1026486637
3121+1026254928+1026250974+1026383062+1026449730+1026388404+1026295651
3112+1026177437+1025843609+1025256566+1024872303+1025229857+1026114446
3104+1026600688+1026190271+1025392816+1024804386+1024247451+1023368828
3095+1022425965+1021785781+1021121802+1019786976+1017729480+1015571669
3087+1013911409+1012804129+1011887906+1010862488+1009766031+1008780988
3078+1007868997+1006761648+1005384226+1004117802+1003345322+1002795116
3070+1001739729+999857125+997525324+995400604+994021656+993508288+993342622
3060+992852564+991968530+990969821+989718729+987949274+986020467+984579290
3050+983775522+983417067+983565180+984473079+986112457+988104603+990116104
3040+992143839+994288815+996388560+998135052+999451495+1000460610+1001188690
3030+1001516414+1001311136+1000553293+999476469+998496838+997903620+997827586
3020+998425660+999651777+1000981609+1001938555+1002766049+1004068061+1005975085
3010+1008129774+1010242630+1012246015+1014107113+1015772437+1017181147
3002+1018298624+1019225601+1020130030+1020982499+1021602287+1022001604
2993+1022454686+1023201983+1024203606+1025132594+1025648044+1025752382
2985+1025701739+1025545370+1025058503+1024103499+1022767979+1021306060
2976+1020113519+1019385924+1018653057+1017103726+1014467164+1011186048
2968+1007754183+1004277987+1000668107+996944593+993219414+989531350+985908497
2958+982541774+979657339+977249920+975164467+973361643+971918454+970891995
2948+970256182+969746768+968727386+966481608+962744636+957807838+952126796
2938+946023682+939747549+933459067+926958648+919734449+911651538+903479759
2928+896456328+891327018+887923110+885694537+884531412+884808700+886630185
2918+889451143+892642628+896075118+899970818+904449053+909305654+914087192
2908+918442704+922452664+926410593+930299842+933768545+936563626+938742458
2898+940566718+942404090+944592287+947191386+949972593+952734097+955488802
2888+958287976+961036160+963551525+965696294+967450764+968956875+970390005
2878+971641305+972244720+971816335+970515572+968933427+967586321+966600932
2868+965776421+964738099+963044748+960394104+956847077+952692056+948039137
2859+942733617+936737963+930475636+924789390+920571447+918292856+917826870
2849+918797275+921006492+924411440+928830777+933856234+939034314+944113814
2839+949095774+953987270+958616462+962837597+966734754+970397289+973667652
2829+976357978+978580584+980647168+982694328+984573255+986095738+987212314
2819+987921733+988256601+988465972+988930848+989744536+990630513+991393142
2809+992196493+993283238+994617301+995920632+996935505+997543361+997747876
2799+997735874+997898279+998541237+999543068+1000460055+1000961213+1001076374
2789+1001120843+1001448358+1002159095+1002997134+1003606932+1003893308
2781+1004073472+1004378996+1004782545+1005078564+1005157234+1005068366
2772+1004922333+1004894306+1005167640+1005724367+1006391121+1007130926
2764+1007981452+1008752337+1009159771+1009224358+1009232128+1009372818
2755+1009587184+1009683198+1009549306+1009331610+1009324257+1009614865
2747+1009982478+1010227784+1010397335+1010556132+1010584228+1010429940
2738+1010368683+1010695712+1011264996+1011631222+1011584811+1011291289
2730+1010981256+1010773897+1010734007+1010849445+1010984933+1011044456
2721+1011126040+1011374607+1011763518+1012148197+1012435475+1012614322
2713+1012737183+1012928101+1013276566+1013712999+1014099274+1014385442
2704+1014555547+1014530364+1014250786+1013789449+1013303414+1012962371
2696+1012918527+1013184438+1013543657+1013753374+1013787160+1013685457
2687+1013314722+1012597880+1011872297+1011622550+1011867371+1012147920
2679+1012147989+1012010975+1011936953+1011802853+1011456122+1011136099
2670+1011231280+1011741318+1012305746+1012665728+1012847141+1012988664
2662+1013153636+1013267132+1013226478+1013097096+1013096263+1013368140
2653+1013884977+1014472922+1014841992+1014798356+1014521207+1014401467
2645+1014597934+1014974844+1015383734+1015761129+1016034949+1016157741
2636+1016182091+1016219414+1016403048+1016877497+1017640473+1018414965
2628+1018925350+1019287691+1019778651+1020257817+1020322682+1020066137
2619+1020054829+1020453036+1020834455+1020996513+1021235021+1021629828
2611+1021796673+1021599304+1021446889+1021651542+1022071394+1022497004
2602+1022833191+1022841308+1022285691+1021430933+1020930815+1021091139
2594+1021572595+1021927235+1022117736+1022314481+1022467659+1022394608
2585+1022161234+1022066330+1022258011+1022539461+1022626387+1022571373
2577+1022750913+1023247909+1023532135+1023164730+1022486251+1022078332
2568+1021976491+1022048778+1022625346+1023937279+1025301451+1025658935
2560+1024774347+1023281486+1021800211+1020604827+1019898044+1019798006
2551+1020140922+1020605728+1020912778+1020877189+1020577701+1020416337
2543+1020714923+1021388129+1022160054+1022791289+1023064692+1022930037
2534+1022658993+1022579143+1022790803+1023243400+1023817331+1024332156
2526+1024721345+1025049415+1025183446+1024779064+1023826211+1022945508
2517+1022885013+1023728671+1024715032+1025008762+1024656827+1024496365
2509+1025102417+1026171818+1026969758+1027057655+1026510780+1025636736
2500+1024667788+1023775984+1023232577+1023267889+1023784864+1024396744
2492+1024675697+1024370451+1023702240+1023410799+1024076790+1025452894
2483+1026801596+1027641577+1027860868+1027516357+1026883110+1026323123
2475+1025890298+1025414114+1025007721+1025073349+1025773472+1026777176
2466+1027552986+1027827569+1027848034+1028129693+1028800540+1029397989
2458+1029527441+1029381132+1029322649+1029402707+1029604585+1030088192
2449+1030838958+1031477893+1031699890+1031579249+1031330890+1031080102
2441+1030906043+1030844369+1030804965+1030637149+1030309912+1029970325
2432+1029846146+1030113860+1030807879+1031733467+1032494570+1032763325
2424+1032533558+1032003124+1031388123+1031007815+1031185620+1031778214
2415+1032192654+1032151169+1032015750+1032135629+1032309480+1032151862
2407+1031708978+1031472205+1031768640+1032285962+1032415068+1032028307
2398+1031555176+1031298353+1031145314+1030980828+1030921860+1031110211
2390+1031556563+1031977942+1031565998+1029425808+1025618421+1021247369
2381+1017164012+1013133864+1008592152+1003598329+998555390+993513629+988320009
2371+983139154+978326328+973781495+968840257+963272919+958295746+955684159
2361+955736329+957133037+958944532+961588309+965666602+971093319+977284052
2351+983158024+987289874+988639199+986972696+983030584+978637402+975802847
2342+975194783+976026439+977218494+978424423+979909028+981512471+982491894
2332+982693079+982980079+983925440+985021897+985767668+986568314+988064088
2322+990230849+992660051+995238477+997914235+1000252487+1001821868+1002817385
2312+1003931602+1005714793+1008290514+1011510997+1014978312+1017970138
2303+1019887360+1020956692+1022130432+1024104887+1026670756+1029007899
2295+1030335511+1030415221+1029789606+1029435105+1029924608+1031046109
2286+1032259115+1033203296+1033713889+1033744483+1033386304+1032785317
2278+1032107394+1031582163+1031280385+1030914992+1030244839+1029538749
2269+1029292818+1029708438+1030639855+1031736659+1032496929+1032487980
2261+1031721951+1030780268+1030365203+1030535932+1030676137+1030476132
2252+1030283203+1030196207+1030000711+1030274045+1031920222+1034253342
2244+1035262249+1034200479+1032343265+1030860464+1029367118+1027075207
2235+1024404305+1022709011+1022788028+1024255498+1026190063+1027989072
2227+1029785166+1032147977+1035068626+1037547708+1038609825+1038146753
2218+1036567591+1034657445+1033786940+1034925923+1037403202+1039553173
2210+1040428050+1040288608+1039841076+1039531112+1039340126+1038919164
2201+1037880911+1036204418+1034525427+1033699320+1033833906+1034134643
2193+1033737962+1032372680+1030533435+1029132426+1028502648+1028082865
2184+1027721704+1028384226+1030639369+1033663523+1036455483+1038631261
2176+1039595630+1038558557+1036002262+1033767029+1032977344+1032827843
2167+1032173299+1031559963+1032431232+1034897827+1037563733+1039009350
2159+1038810940+1037890554+1037711777+1038778681+1040595796+1042420889
2150+1043485504+1043477387+1043164024+1043399480+1043593519+1042520788
2142+1040034629+1036863888+1033864222+1032335426+1033544616+1037068611
2133+1040886890+1043493690+1044748597+1044940347+1044288370+1043144946
2125+1041932981+1041009890+1040670720+1040836385+1040925392+1040627986
2116+1040482647+1041011416+1041716326+1041727287+1041122207+1040801074
2108+1041248814+1042101213+1042738414+1042817986+1042358106+1041592840
2099+1040718796+1039875138+1039448349+1039876803+1040853035+1041444033
2091+1041306325+1040985262+1040871766+1040800172+1040755495+1040965005
2082+1041265395+1041314442+1041339278+1041774531+1042388422+1042651697
2074+1042703172+1042996347+1043347796+1043261356+1042913931+1043083065
2065+1044232523+1045970691+1047272564+1047196322+1045555071+1043132875
2057+1041428701+1041724790+1043499309+1044188540+1041911475+1038060729
2048+1035909162+1037006729+1040292562+1044272691+1048512279+1052916422
2040+1056155914+1055788092+1051171109+1045348197+1041925974+1041124704
2031+1041273511+1042232330+1044310361+1046108329+1046508825+1046865685
2023+1048716169+1050921085+1051081339+1048760152+1045963545+1045254750
2014+1047781978+1052050148+1054645779+1053624731+1050761247+1048756268
2006+1047568930+1045745364+1043677323+1043189276+1044998483+1047773168
1997+1049166060+1047845941+1044998066+1043430420+1044707042+1047561230
1989+1049716127+1050156514+1048989573+1046577367+1043584015+1041215237
1980+1040992893+1044087185+1049847105+1054959350+1056232156+1054096891
1972+1051134619+1048436245+1045770616+1044061655+1044830181+1047435524
1963+1049413101+1049453408+1048566183+1048492438+1049613939+1050517744
1955+1049487401+1046596098+1044157738+1044503776+1047355397+1050030322
1946+1050353952+1048575062+1046280862+1044592159+1043858528+1044143031
1938+1045130085+1045859484+1045356036+1043651516+1041758089+1040710957
1929+1040829379+1041482952+1041471991+1040275635+1038928044+1038856380
1921+1039958040+1041121097+1042106902+1043506454+1045135358+1045949740
1912+1045561522+1044875135+1044941804+1045589480+1046021126+1046206077
1904+1046497448+1046571609+1045886054+1044645369+1043423552+1042401395
1895+1041543862+1040871142+1040200503+1039190139+1037908730+1037143881
1887+1037869395+1040275219+1043255737+1045081593+1045166992+1044650918
1878+1044797922+1045646922+1046524573+1047074987+1047336874+1047315091
1870+1046935337+1046399700+1046199139+1046492106+1046948796+1047206173
1861+1047129793+1046763497+1046228346+1045744878+1045589480+1045851298
1853+1046258177+1046368828+1046042423+1045661907+1045772836+1046590132
1844+1047916911+1049353786+1050607792+1051617185+1052391677+1052848505
1836+1052806187+1052173218+1051035622+1049633641+1048584081+1048731015
1827+1050104761+1051769808+1052804244+1052973864+1052605834+1052085806
1819+1051724784+1051667342+1051655271+1051264626+1050439213+1049540194
1810+1048941080+1048726159+1048790608+1048980693+1049070879+1048907850
1802+1048670521+1048763760+1049341715+1050137505+1050735163+1050780603
1793+1050226443+1049675335+1049847868+1050505812+1050889589+1050526208
1785+1049380149+1047805982+1046300426+1045189261+1044477275+1043903135
1776+1043154312+1042010333+1040503182+1039222051+1038899392+1039442869
1768+1040249411+1040823690+1040874264+1040450388+1040032548+1040088255
1759+1040477721+1040886820+1041321657+1041728120+1041722570+1040894174
1751+1039286638+1037825620+1037510176+1038130381+1038843060+1039205679
1742+1039233498+1039028428+1038719228+1038411762+1037935231+1037078809
1734+1036293217+1036450349+1037444549+1038728316+1039917734+1040524965
1725+1040293117+1039562469+1038817184+1038007450+1036792294+1035456149
1717+1035216115+1036436960+1037921357+1038970362+1039574749+1039614777
1708+1038925338+1037925172+1037575249+1038083484+1038622867+1038794082
1700+1039238215+1040421320+1042037112+1044108205+1046413852+1048144805
1691+1048976808+1049186595+1049035984+1048382064+1047134718+1046383466
1683+1047673130+1050126197+1052247171+1053586714+1054108477+1054027032
1674+1053792617+1053578320+1053373875+1053847700+1055764574+1058137861
1666+1059462004+1059617263+1059546710+1060164278+1061254561+1061981809
1657+1061846183+1060683959+1058843881+1058149239+1059523331+1060544378
1649+1060367544+1060259459+1061874834+1064607687+1066649018+1067552616
1640+1067639472+1067141713+1066005782+1064165358+1061623076+1057699348
1632+1051171109+1041258249+1028819895+1017310738+1010517074+1009488187
1623+1012936634+1018158836+1022588509+1025705555+1028493282+1031709464
1615+1034302736+1034730358+1032648511+1028395673+1022544942+1015579508
1606+1007491741+997961201+987111860+976079927+966723100+960708576+958961390
1596+961635691+968029552+976459403+984778741+991425123+995844667+997993807
1587+997899944+995928124+993124372+990882063+990057760+990514380+991785868
1577+993774407+995842378+996206037+993604232+987638617+979335998+971709569
1567+966504363+963127789+960874103+959315892+958775953+962897536+975638222
1557+989011322+997324139+1002450952+1005477048+1006548045+1006260282+1005364316
1547+1004084503+1002578808+1001521547+1001561090+1003274769+1007761398
1538+1013296477+1016630456+1017497770+1017646370+1019363933+1023019530
1530+1027068547+1030769723+1034374399+1037844282+1040607867+1042786282
1521+1045405292+1048479812+1050861632+1052548809+1054278235+1055736270
1513+1055905265+1054214064+1050495545+1044954499+1039778847+1038408016
1504+1038582422+1036534708+1031179099+1022175039+1008915574+990606925+968569213
1494+946375686+925552297+906559412+894690550+899559014+920242337+942378214
1485+953019779+946592411+926149400+903724580+892781931+898423291+916043957
1475+936109989+949717851+952368565+945240657+931236808+910552722+881394455
1465+845267564+810107399+781586056+757539132+731956057+699900383+667350626
1455+645827877+634955573+629908610+626806479+622224877+614996169+607722368
1445+603897983+604940329+610541036+619771602+632947402+652878571+680023603
1435+706350228+725296702+739063708+751733008+764630202+776822347+788072947
1425+799386123+810869474+821305969+830588913+840516758+851758062+862198235
1415+870578137+877526365+883909681+890295079+896761435+903065318+909459109
1405+916578415+924070883+930754450+936365633+941557310+946632162+951362294
1395+955818051+960154694+963791837+965923286+966346953+965470828+963935580
1385+962013225+959460606+956195169+952799031+950255014+949197476+949704254
1375+951883362+955921904+961196137+966428468+970932510+974682664+977657146
1366+979786444+981327173+982885523+984780614+986473757+987100899+986227965
1356+983973724+980686365+976431861+970831709+963514063+954636750+944934093
1346+935395159+926730893+918648606+909500734+896793417+878632882+855483589
1336+830742646+810165257+800292010+805133279+823248651+848615001+874488891
1326+896317580+911976486+920694933+922273124+917029207+905953985+890034648
1316+869043097+842233489+811427588+782696665+763530068+758382027+766866405
1306+784624016+805527671+824120822+837233769+844476144+847551497+848794749
1296+849961274+851816475+854375407+857413089+860784600+864473357+868660429
1286+873788005+880294113+888171192+896840869+905498058+913628560+921164387
1276+928143835+934465824+940154983+945623394+951369023+957468599+963572754
1266+969345439+974703268+979595041+983734800+986786704+988863902+990638005
1256+992782566+995417809+998153991+1000535395+1002380606+1003876103+1005468932
1247+1007526150+1009964302+1012259196+1013759341+1013810539+1011576347
1238+1005868110+995161749+977847994+952778357+919917666+880736304+838169834
1228+796217255+759315871+731457813+714984941+709690243+713271679+722905725
1218+736410289+752258586+769156721+785929844+801726874+816277390+829900375
1208+843071250+855889912+868031761+879131196+889008398+897576026+904824020
1198+910957034+916320898+921162584+925638806+930003337+934550321+939348093
1188+944139135+948456353+951789777+953726701+953972216+952288507+948626181
1179+943396000+937449256+931794090+927484503+925525102+926369940+929470197
1169+933608222+937702818+941165694+943626461+944652989+943844920+940941199
1159+935559645+926961007+914683393+899877580+885831412+876674938+875206219
1149+881622904+893884562+909004917+924257708+937809584+948830140+957268177
1139+963437683+967674773+970409984+972453606+974751552+977559745+980111601
1129+981300603+980260685+975946243+966893135+952680470+936050466+922742925
1119+917898464+921949563+930498321+938720952+945376699+952041952+959525818
1109+966634093+972198448+976656633+981101915+985747758+989934830+993143658
1099+995479274+997321503+998865631+1000060044+1000871859+1001506771+1002281193
1089+1003306056+1004418608+1005381659+1005984312+1006029890+1005457207
1081+1004512679+1003721191+1003663957+1004640675+1006332014+1007860117
1072+1008401790+1007790118+1006512734+1005270036+1004636651+1004976931
1064+1006397157+1008588059+1010848266+1012589555+1013848070+1015024654
1055+1016221634+1017227697+1018059492+1019054247+1020384841+1021778497
1047+1022799198+1023323457+1023681844+1024267222+1025064469+1025699866
1038+1025792758+1024855098+1021682900+1014044468+999731904+979289934+958219365
1028+944842866+944078364+953374003+965325975+973540142+975674297+972836967
1018+968053763+964618499+964180956+965978508+968033437+968741607+967318537
1009+963726834+959074748+955816109+956577767+962210941+971090336+980439185
999+988218723+993877982+997849717+1000740048+1002871289+1004222765+1004562004
989+1003605614+1001204716+997545997+993189722+988864180+985258601+982980149
979+982522488+984063217+987233542+991192234+995051306+998207964+1000270663
969+1000951362+1000267472+998638292+996598070+994611197+993219483+993023294
959+994374076+997240612+1001300244+1005985213+1010605665+1014677714+1018093139
949+1020947534+1023347738+1025348486+1026840376+1027465367+1026825877
941+1024812988+1021591187+1017329469+1012150348+1006253414+999798712+992737819
931+984994910+976774777+968728704+962190753+959170345+961283757+968178012
921+977220714+985036604+989561389+991022060+991330913+992530946+995560164
911+1000138228+1005398656+1010460049+1014729121+1018083218+1020806219
902+1023189496+1025201899+1026647932+1027614105+1028548296+1029771708
894+1031032651+1031763506+1031787857+1031560865+1031662012+1032293316
885+1033325672+1034502603+1035495276+1036078365+1036352670+1036546779
877+1036664784+1036619760+1036553855+1036647371+1036694754+1036162516
868+1034695393+1032454056+1029943270+1027535088+1025230897+1022985745
860+1021115489+1020075780+1019842961+1019816321+1019396747+1018436887
851+1017107056+1015618566+1014229836+1013298489+1013063172+1013421489
843+1014215614+1015782358+1018892952+1024001242+1030710339+1037885629
834+1044119097+1048455323+1051081686+1053044972+1055009368+1056577638
826+1057009006+1056306733+1055359985+1055114054+1055761591+1056637092
817+1056704385+1055350550+1053146258+1051723535+1052466948+1055433868
809+1059686637+1064096330+1067621296+1069569320+1070065414+1069993612
800+1070276658+1071186915+1072309179+1073187940+1073741823+1073636999
792+1071585538+1065983513+1056568412+1045579213+1037143812+1034701012
783+1038391574+1045219578+1051726033+1056010852+1057656128+1056870120
775+1053919571+1048901329+1042093998+1034890542+1030141055+1030572839
766+1036071636+1043009320+1047179950+1047087752+1043589634+1036774811
758+1024280958+1002784086+970582656+928695567+879733501+825781984+767440406
748+705053419+641021989+580922021+532225242+501846478+494144638+509505826
738+544194905+592282406+647701185+704366754+755061298+791048956+804252645
728+791498639+756768039+708820361+657432840+612575916+584785567+581881915
718+603579210+641347630+684441274+725260836+760415311+788992778+810640054
708+825495955+835612914+844930752+856623404+870774326+885170278+897759451
698+907840959+915570479+921039722+923967169+924136303+921879773+918209538
688+914803202+913540247+915468915+920390034+927398757+935264874+942691160
679+948978185+954257829+958880570+962666382+964514576+963082002+958999824
669+957519103+964003567+973222201+978054243+978298717+977027091+976895488
659+978454254+980877005+983504131+986104202+988283380+989496594+989713179
649+989592677+990027097+991742648+994952864+998876730+1001726686+1001839072
639+999404806+996856696+996818818+999736622+1004033998+1008226204+1011977468
629+1015320118+1017943637+1019173362+1016929666+1006286505+982554261+949069342
619+919651339+908888716+919056179+938503949+952959077+956560007+953689586
609+952831706+958464325+968588638+978861549+986415830+989886892+988898173
599+984524069+978533896+971815850+964711182+958741475+956792341+960915450
589+970280324+981776231+991881674+997705974+997303535+989722267+975871180
579+960143039+949104584+946446933+950024276+955165727+959694674+964105755
569+968979352+974217164+979294374+982435632+980320278+970540061+955036691
560+939990636+931130874+929041882+928893005+924589940+914057084+901946175
550+897188710+905999772+926454229+950370383+970137275+983505380+992466844
540+999175316+1004094146+1006861685+1006563030+1000496545+984770555+959050605
530+931130180+914285671+918057817+939877903+966718660+987304581+998696358
520+1002829803+1003411436+1004881195+1009669739+1016138316+1020914721
511+1022758059+1023241388+1024036068+1025120870+1026003031+1026569054
503+1026010731+1023273439+1019320504+1016525354+1015676354+1015017301
494+1011765669+1004431304+994242751+984514217+978297954+976828958+979775761
484+986068058+994675992+1004726976+1014697625+1022172611+1025243940+1024140892
475+1020825436+1017296447+1014628251+1012725459+1010735325+1008136226
466+1005378815+1003114098+1001062013+998505718+995763014+994085202+993612557
456+992501462+989395030+984602669+978238848+969420502+957675819+944378962
446+932378774+923893632+918930126+916269700+915451710+917014223+921035143
436+925748071+927586553+923338085+912663289+898872072+886771639+878119375
426+869885991+857985495+842634471+829432031+827362464+846971529+885942203
416+923199892+947154687+960360249+967862777+972302856+972735125+968084774
407+961450948+958066742+959941785+964677536+968045785+966910687+962821155
397+961895913+966017010+971654833+976511988+979659004+978365317+969619328
387+956273700+949208507+957202133+974306171+988424834+995154395+995352320
377+989833266+981824307+978376902
##END=
