##TITLE=X8633
##JCAMP-DX=4.24
##DATA TYPE=INFRARED SPECTRUM
##DATE=2/11/2018
##SAMPLING PROCEDURE=ATR platinum Diamond 1 Refl
##ORIGIN=ComPlat
##XUNITS=1/CM
##YUNITS=TRANSMITTANCE
##RESOLUTION=4
##FIRSTX=3997.453
##LASTX=373.96442
##DELTAX=-1.4165319
##MAXY=1.13457
##MINY=0.66303939
##XFACTOR=1
##YFACTOR=1.0566507e-009
##NPOINTS=2559
##FIRSTY=0.93629634
##XYDATA=(X++(Y..Y))
3997+886098293+886149795+886180312+886285459+886616749+887053129+887299637
3988+887314416+887332974+887502709+887706064+887706515+887389440+886906466
3978+886531233+886313438+886052884+885717025+885602514+885914400+886493552
3968+887103785+887674644+888161398+888460027+888534938+888404408+888062230
3958+887601651+887240915+887014658+886687429+886209137+885982711+886377180
3948+887107395+887516191+887421255+887204531+887170629+887182475+887007438
3938+886664922+886293412+885985645+885805531+885764239+885775239+885824371
3928+886090960+886688501+887360502+887620040+887314416+886827832+886653979
3918+886981997+887548852+887871511+887796375+887665224+887873768+888380772
3908+888776538+888800455+888540692+888189489+887836369+887532493+887299693
3898+887008848+886532361+886006798+885783249+886085319+886601293+886770012
3888+886656574+886687542+886812714+886643882+886356816+886436691+886786427
3878+886968572+887000048+887030678+886839283+886314622+885952476+886199717
3869+886719921+886977372+886931793+886730300+886517413+886490788+886724603
3859+887122230+887649655+888485975+889679421+890305505+889401550+887846409
3849+886676317+886208122+886371708+886768094+886820668+886400138+886134057
3839+886598924+887358302+887536385+887112979+886576755+886125877+885760516
3829+885610355+885748727+885890313+885758147+885623893+885878298+886164461
3819+885944240+885723117+886166548+886915717+887185239+886963326+886750100
3809+886966936+887656988+888332881+888634444+888852521+889084475+888814501
3799+888096471+887699746+887737822+887563800+886933091+886430881+886597908
3789+887311934+888132967+888844172+889261543+889019548+888125803+887216151
3779+886868841+886997453+887228618+887497632+887916131+888520328+889164407
3769+889478436+889270117+888864875+888587004+888345460+888022067+887847594
3759+888149270+888829563+889395853+889578562+889529317+889653811+890254511
3750+890881610+890868467+890427856+890122006+890059280+889772722+889003415
3740+887975304+887045401+886611052+886843400+887341831+887743971+888213858
3730+888790640+889160684+889070655+888683463+888514067+888907858+889690252
3720+890373873+890549361+890080377+889183078+888486032+888714714+889735999
3710+890302797+889931852+889351685+889085660+889134228+889312367+889413622
3700+889375207+889373289+889584485+889966882+890304884+890417251+890338843
3690+890242496+890071407+889635422+889201975+889196447+889670734+890276454
3680+890507280+890082915+889248682+888722667+888960149+889502297+889928580
3670+890276285+890648754+891060935+891354149+891266884+890800946+890365750
3660+890305674+890534582+890762080+890701045+890243455+889710728+889668309
3650+890435866+891455854+891658476+891188476+890853801+890883472+891029966
3640+890956522+890450533+889489830+888333896+887469541+887153537+887206844
3631+887587154+888625644+889957969+890563181+890525162+890499214+890693430
3621+890970455+891293735+891673255+891829621+891445306+890565607+889664698
3611+889241518+889313157+889486333+889431560+889143197+888777723+888569009
3601+888762492+889331772+890005635+890693712+891413378+891894773+891871984
3591+891537196+891158917+890649657+889920400+889363136+889320434+889603495
3581+889764712+889549003+889153350+888981077+889202878+889679534+890134755
3571+890290782+890006029+889420673+888937868+888856582+889028630+889080019
3561+888789512+888336999+888186105+888491729+888862393+888872941+888559984
3551+888310148+888341568+888526759+888680530+888800963+888916150+888832383
3541+888328763+887528150+886882266+886720711+886852651+886819427+886566601
3531+886521530+886993843+887794908+888522472+888955750+889030266+888752677
3521+888288036+887850527+887499325+887232454+887147727+887296760+887519914
3512+887641870+887695008+887802805+887982073+888176910+888294579+888205453
3502+887940161+887734099+887664490+887565662+887431013+887488833+887734607
3492+887817302+887573503+887301160+887377876+887824805+888340835+888616393
3482+888566471+888323743+888002493+887583769+887129169+886859364+886846616
3472+886890163+886902968+887080431+887480653+887813805+887858819+887719940
3462+887511678+887256597+887199059+887646101+888329666+888548476+888124844
3452+887580892+887268499+887052170+886892363+886984028+887244976+887353902
3442+887253945+887132271+887112584+887254227+887570118+887915905+888124619
3432+888229258+888307328+888264231+888023929+887765124+887699633+887722592
3422+887528263+887056627+886594524+886389138+886377349+886342375+886171061
3412+885969906+885982034+886321278+886813955+887178921+887278765+887129733
3403+886854457+886653189+886651723+886795566+886996100+887233130+887434285
3393+887466889+887331282+887140902+886875272+886417794+885871698+885536121
3383+885513445+885598622+885587622+885453200+885248322+885089418+885164893
3373+885531890+885964491+886163615+886058469+885840730+885772080+885957609
3363+886234634+886298489+886042561+885744891+885803669+886264080+886751849
3353+886918819+886778530+886542063+886369847+886358452+886531064+886717044
3343+886616862+886120406+885491163+885127550+885165570+885396678+885552028
3333+885544413+885430016+885292378+885229312+885357135+885735076+886270059
3323+886755854+887058601+887220156+887359035+887545975+887758355+887844548
3313+887614173+887119353+886722121+886709485+886953511+887048052+886686696
3303+885910564+885110346+884761738+885030358+885636698+886161528+886434943
3293+886580647+886771310+887049688+887338841+887513765+887492499+887330887
3284+887145584+886937096+886660466+886456378+886545504+886880010+887117830
3274+887023514+886754331+886634913+886727367+886807750+886776556+886811699
3264+887013022+887195167+887201203+887164932+887317180+887668495+887981453
3254+888070015+888060256+888176797+888309246+888110404+887540672+886957572
3244+886642189+886563217+886591365+886661481+886740454+886838606+887005294
3234+887213556+887331000+887278596+887142707+887075524+887126856+887229859
3224+887329195+887432085+887500848+887402752+887084041+886715352+886519782
3214+886533546+886667291+886883282+887156753+887391696+887518052+887569667
3204+887622127+887765688+888072497+888450494+888656387+888560830+888264175
3194+887932885+887685023+887581908+887573728+887557257+887560811+887710182
3184+887998037+888273257+888433910+888472606+888447955+888532907+888901823
3174+889436862+889772496+889731205+889480410+889227303+889053281+889046681
3165+889237456+889405950+889318855+889122043+889160514+889482892+889829864
3155+890013814+890055274+890041511+890036434+890084551+890207579+890389442
3145+890533454+890448445+890006763+889348526+888834357+888779641+889241518
3135+889970774+890525726+890554664+890078402+889488251+889247554+889533322
3125+890089346+890460348+890414092+890081448+889715523+889468790+889424565
3115+889658832+890157713+890739178+891159256+891304735+891227172+891032505
3105+890857580+890902877+891249115+891659830+891835600+891861830+892060334
3095+892398337+892411762+891841241+891033915+890504290+890303023+890061818
3085+889585331+889107433+888925627+889048655+889283035+889496712+889729061
3075+890120032+890716952+891300673+891490433+891137595+890569386+890336756
3065+890673518+891266320+891629199+891611713+891409712+891236028+891197952
3055+891350595+891608102+891682844+891344277+890709168+890134191+889857110
3046+889841428+889946631+890163636+890630026+891399276+892221607+892656521
3036+892466592+891832554+891148989+890709450+890615360+890802863+891073796
3026+891253684+891384384+891587682+891760971+891681885+891367687+891020715
3016+890680625+890252424+889812152+889589110+889698826+890060972+890498424
3006+890821591+890927189+890861811+890748654+890709676+890833042+891068888
2996+891184640+890988393+890588960+890326151+890462322+890940389+891398035
2986+891489531+891245900+891018008+891065673+891333955+891591180+891631738
2976+891381733+890953250+890592627+890494644+890688748+891097713+891603477
2966+892000314+892042339+891697736+891254643+891033746+891096755+891311673
2956+891530202+891624292+891548027+891440624+891491956+891677993+891783817
2946+891699090+891539509+891439609+891380210+891304340+891252387+891253854
2936+891222434+891080678+890839755+890503557+890096735+889783044+889737974
2927+889951087+890302741+890707645+891079775+891311955+891368815+891298755
2917+891151697+890938809+890670189+890430113+890398411+890732747+891411686
2907+892219069+892862978+893178756+893275102+893366146+893444160+893351875
2897+893168940+893173566+893385946+893509369+893384705+893180956+893081506
2887+893073158+893102152+893180504+893293435+893420356+893627546+893908632
2877+894054337+893944226+893795306+893846808+894006333+894065449+894031040
2867+893997928+893917037+893717575+893485564+893349562+893304830+893241031
2857+893062045+892773344+892540769+892596050+892962089+893379628+893606675
2847+893631777+893549025+893450309+893455216+893590485+893674196+893555906
2837+893393618+893479923+893857074+894246748+894345520+894142730+893941406
2827+894055296+894489927+894942892+895106309+894960943+894756742+894687472
2817+894655770+894472666+894201508+894098449+894239810+894432728+894529188
2808+894607879+894781731+895012557+895212189+895373913+895533382+895709378
2798+895927455+896189588+896406311+896460803+896358589+896249664+896262638
2788+896342287+896299924+896029273+895639487+895358739+895325119+895469301
2778+895618503+895718460+895849498+896007669+896065714+896031473+896108979
2768+896397850+896740591+896976945+897168736+897454730+897810050+898086285
2758+898232780+898348305+898511609+898665606+898686139+898518717+898263748
2748+898123233+898202770+898412612+898621946+898795685+898919334+898951544
2738+898937441+899007896+899193708+899363555+899380591+899237312+899012296
2728+898757496+898464621+898133274+897815973+897582778+897489421+897577363
2718+897807230+897990559+897908540+897540359+897092809+896810539+896824584
2708+897127501+897577194+897953724+898095536+897992139+897761990+897576460
2698+897552035+897653064+897762441+897856870+897990334+898129607+898174227
2689+898138915+898142130+898219298+898286932+898293758+898287327+898327265
2679+898404714+898462590+898455765+898387228+898313783+898303460+898363423
2669+898433088+898462703+898467216+898483856+898507435+898498917+898436755
2659+898343511+898256979+898164694+897970196+897586106+897098168+896757909
2649+896731115+896924259+897144988+897320138+897447453+897486939+897442207
2639+897427653+897526877+897683243+897791605+897781507+897580296+897159767
2629+896692757+896508186+896755089+897226950+897627793+897881295+898073311
2619+898280727+898575916+898995599+899399939+899574356+899537182+899541413
2609+899741947+900045146+900286012+900430758+900616964+900999474+901491868
2599+901748642+901552564+901086231+900658255+900360077+900151477+900059530
2589+900181091+900627456+901399639+902198843+902588629+902464755+902122803
2580+901885998+901919787+902249893+902723954+903116053+903353197+903451123
2570+903332664+902958334+902519133+902313973+902500010+902962846+903366792
2560+903444128+903268527+903129874+903174098+903337290+903545947+903785290
2550+903968620+903940020+903713933+903540306+903596715+903747440+903765152
2540+903666662+903662995+903844633+904053572+904108683+904050018+904024690
2530+904022208+903930826+903744676+903537260+903404022+903548203+904115509
2520+904871841+905370666+905445577+905223044+904803361+904317509+904111560
2510+904423784+904993459+905346749+905374446+905318996+905298688+905134030
2500+904658220+904053177+903767747+904074612+904807648+905617174+906311456
2490+906819363+907055773+906987575+906689735+906327589+906161070+906377737
2480+906838316+907196965+907266461+907061358+906628024+906052821+905506612
2470+905149317+905076832+905332252+905845517+906348855+906504883+906258826
2461+905988176+906078938+906436289+906675464+906636429+906443679+906273380
2451+906263452+906424218+906573758+906573194+906531451+906607998+906786984
2441+906955647+907045845+907052727+907001057+906926202+906889423+906947073
2431+907018205+906915597+906645567+906504262+906696391+907043645+907264148
2421+907407935+907746728+908265014+908610519+908640924+908594950+908561613
2411+908276126+907651566+907052276+906818630+906879890+907000267+907139654
2401+907407314+907805675+908191682+908469102+908650062+908701902+908524157
2391+908169400+907925996+908020199+908296095+908365196+908106504+907825023
2381+907856274+908223384+908731968+909128918+909171563+908873780+908648426
2371+908878236+909499187+910223592+910887639+911456693+911976841+912497666
2361+912893262+912912329+912456769+911733775+911187002+911095450+911168161
2351+910920018+910366420+909925639+909925583+910428018+911267328+912099136
2342+912487343+912139525+911228068+910405737+910279550+910838620+911485349
2332+911605275+911078471+910292524+909728321+909615164+909888691+910311308
2322+910640229+910792251+910850296+910911162+910963961+910894577+910589799
2312+910097349+909683757+909639871+910020125+910610276+911114685+911349855
2302+911302076+911064594+910774426+910588784+910597189+910661100+910416285
2292+909571673+908226261+906828106+905810600+905327344+905333267+905781380
2282+906638346+907763650+908875698+909666496+910023227+910202551+910623476
2272+911350080+911935155+911954560+911543394+911201386+911207817+911469893
2262+911824762+912199318+912554300+912901160+913259921+913459214+913217896
2252+912507312+911411171+909457839+905398532+897698360+885179729+867814207
2242+847978364+831014475+823123246+827151471+840239891+856087107+869533611
2232+878945515+885156939+889530953+893153541+896677244+900024951+902463683
2223+903567044+903976742+904617549+905464192+905977684+906391783+907441329
2213+909130498+910827169+912224533+913329868+913972142+914105211+914133302
2203+914318832+914287130+913644518+912810228+912755399+913916917+915693294
2193+917112771+917814782+918094570+918161979+917842196+917036788+916027856
2183+915326917+915589163+917271563+919817415+921709938+921914308+920793686
2173+919282319+917951404+917204605+917542608+919166116+921626002+923875820
2163+924668987+923398543+920789061+918459198+917562802+918131405+919556693
2153+921077649+922117437+922626980+922880595+922690271+921331039+918726070
2143+916191217+915224704+915872506+916924816+917460871+917553213+917635965
2133+917892570+918288279+918635025+918559606+917907292+917208610+917240199
2123+918016726+918712926+918752243+918461173+918378364+918420276+918156338
2113+917580571+917124448+916988446+916881156+916478903+915837476+915237171
2104+914885686+914867804+915148439+915500150+915635531+915540820+915573989
2094+916135090+917286849+918714393+919979986+920741677+920761138+919919346
2084+918459480+917041526+916273743+916287620+916940949+918107770+919513314
2074+920732483+921666165+922523977+923110236+922776408+921325454+919460910
2064+918167959+917929687+918499756+919201993+919531196+919517150+919451772
2054+919516981+919772288+920088009+920104650+919861583+920335758+922397959
2044+925352044+927483516+927991592+927583529+927086453+926368873+925011841
2034+923360862+922354129+922596858+923913050+925562788+926754880+927053171
2024+926305413+924499478+922131201+920373213+920198402+921268143+922190487
2014+922168713+921749707+921659170+921933939+922620831+924089441+925762758
2004+926101495+924884075+923814616+924227812+925692416+927249926+928636009
1994+929810896+930403304+930134741+929309364+928626081+928758529+929955021
1985+931625631+932613297+932462967+932197337+933097061+934831470+935884796
1975+935784500+935301244+934840777+934181074+933197582+931897974+930430098
1965+929512662+929906228+931201492+931992008+931510895+930414529+929622659
1955+929119547+928317467+927167174+926334689+926288829+926719681+926984070
1945+926748563+926018799+924901618+923628184+922534018+921763752+921162037
1935+920601275+920254021+920265585+920374793+920244770+919997191+920092804
1925+920820424+922010824+923144702+923827985+924091020+924113471+923980458
1915+923807678+923767401+923895563+924057795+924094969+923942664+923685947
1905+923493987+923398148+923212337+922826724+922465650+922491485+923026130
1895+923824769+924500380+924845773+924866814+924659003+924429418+924414808
1885+924600112+924715299+924556451+924219125+923977412+923986663+924109184
1875+924068569+923832892+923726223+924071164+924815256+925503954+925759374
1866+925696308+925590824+925502882+925333993+925057815+924800589+924680551
1856+924649526+924582117+924474432+924437823+924490452+924527626+924571625
1846+924863091+925504461+926109505+926257917+925984389+925537686+925193986
1836+925206001+925617167+926174149+926523491+926475148+926187236+925964928
1826+925903217+925920591+925957539+925997420+925967410+925717631+925148182
1816+924378593+923711444+923382523+923381620+923511981+923614589+923653737
1806+923609964+923470069+923292607+923164502+923139682+923278899+923618369
1796+924056329+924401721+924531180+924451699+924241463+923972166+923689106
1786+923405030+923112210+922850021+922706347+922681133+922603288+922296818
1776+921788460+921265435+920909833+920765425+920731749+920731975+920723231
1766+920584522+920199586+919588056+918939916+918516228+918360652+918249639
1756+917965563+917487722+916925211+916401340+916109706+916198381+916420914
1747+916358921+915909284+915287149+914782570+914562631+914576226+914652717
1737+914777550+915143814+915798553+916321352+916461642+916433663+916430165
1727+916478000+916459385+916169330+915524744+914683234+913828186+912996322
1717+912161863+911392895+910792364+910415834+910301493+910444546+910789318
1707+911283010+911866279+912450226+913047992+913800940+914682444+915430315
1697+916141464+917057095+917930702+918472116+918799063+919108015+919423906
1687+919703751+919978124+920285215+920576060+920817096+921058696+921394273
1677+921945672+922728968+923458054+923782350+923720977+923632753+923912373
1667+924521985+925146828+925657273+926081131+926467758+926803787+927003306
1657+927007593+926869729+926787034+927037264+927473983+927752418+927993679
1647+928478571+929222945+929877290+930377356+930875504+931321700+931587894
1638+931771674+932117857+932538555+932732884+932734802+932707444+932756520
1628+932910573+933124645+933398849+933792585+934247693+934610572+934814603
1618+934888161+934968713+935169416+935337515+935273886+934926519+934333039
1608+933589004+932864825+932300735+931933004+931796156+931938984+932329503
1598+932866687+933378711+933571348+933145968+931982137+930181278+928047550
1588+925891314+923763960+921583074+919397111+917351043+915636490+914521284
1578+914285550+915093215+916495995+917512880+917786013+917605391+917542608
1568+918190804+919695120+921657647+923383820+924170444+922306802+912129428
1558+888528959+858469543+823072083+779154320+731459916+688516451+657321633
1548+642645243+644806386+660093122+683167915+708600098+735344186+763064771
1538+782924418+792754764+798789629+805606604+813821509+821320582+827539961
1528+834073199+842053893+850485408+857793932+864175147+870167648+874918192
1519+878094528+880577598+882788493+884470554+885502332+886073868+886579237
1509+887713905+890218748+893224221+895151154+896323841+897400690+898605248
1499+899972603+901532765+903124176+904382436+905269356+906161239+907509133
1489+909343273+911118578+912439903+913416964+914356795+915416100+916469877
1479+917338633+917973968+918368887+918574442+918798724+919163070+919497294
1469+919657157+919644239+919533903+919438741+919319041+918978444+918290930
1459+917075033+914899168+911834634+908937692+906867649+905980166+906740390
1449+909311627+913085617+916859269+919831687+922028931+923673762+924825917
1439+925649038+926504876+927518659+928353005+928862886+929299210+929952596
1429+930936539+932028956+932906963+933512232+933986688+934447493+935007635
1419+935822012+936837319+937787754+938576973+939193016+939494353+939187658
1409+937948746+935556777+931579997+924944207+914140861+896784872+868877292
1400+829332019+788797389+766693846+773809564+802027564+832772858+855061986
1390+868356298+873774950+869915782+854472793+826472137+787689572+744518383
1380+706826147+681970069+670488461+667984069+669302743+671660077+675450482
1370+682464946+693626997+707886073+723791503+741492376+761062758+779968416
1360+795422799+807393079+817070613+825094854+831569484+836533930+840215635
1350+842994288+845226844+847213571+849225286+851401603+853773660+856474299
1340+859705465+863371883+866996276+870154392+872757444+874940191+876849073
1330+878543995+880093100+881632334+883223407+884749779+886057792+887170404
1320+888306707+889646817+891100534+892417290+893468416+894285727+894945092
1310+895543479+896190096+896915290+897620460+898162776+898470318+898582854
1300+898622171+898718969+898923452+899155575+899257506+899104750+898614556
1290+897638680+895995710+893822665+891851000+891025736+891699880+893332809
1281+895026772+896276796+897199987+898183591+899403267+900668240+901710566
1271+902520318+903247656+903875770+904227650+904235547+904005003+903674559
1261+903377679+903269712+903440800+903855971+904440876+905129179+905794072
1251+906276877+906561799+906830814+907259861+907809511+908276465+908543618
1241+908693271+908835084+908905369+908736593+908284757+907731554+907376233
1231+907383284+907574116+907528763+906891397+905491494+903305870+900591241
1221+898001615+896299191+895869185+896561662+897924448+899507285+901016340
1211+902303425+903258543+903753814+903773557+903592541+903638458+904070381
1201+904635995+905026740+905178086+905171768+905083375+905014612+905096011
1191+905404455+905933346+906602470+907274528+907865130+908446087+909137323
1181+909896871+910525944+910897511+911093419+911293446+911578424+911853023
1171+911954108+911852064+911721083+911736708+911863064+911944180+911952134
1162+912031219+912330977+912864099+913516131+914171548+914797349+915388065
1152+915922033+916436934+917045306+917782967+918534392+919169501+919672895
1142+920102168+920503744+920929971+921461118+922118960+922794684+923367461
1132+923861717+924408321+925083763+925853238+926633206+927359867+927975516
1122+928361128+928374158+928028371+927579411+927364098+927558371+928086134
1112+928715151+929251826+929667843+930064511+930569598+931234830+931929563
1102+932338529+932096421+930909293+928726038+926085531+924156849+923959305
1092+925449068+927643887+929620741+931104750+932171107+932870917+933324220
1082+933828912+934592352+935492189+936242767+936706224+936967172+937183727
1072+937424988+937666193+937917665+938244442+938626049+938954632+939227369
1062+939557870+939959841+940315049+940552531+940676743+940612663+940174195
1052+939165771+937426567+934891715+931804561+928848558+926882478+926412534
1043+927302104+928962335+930779383+932410676+933798620+934997482+936040033
1033+936965029+937839087+938649346+939303352+939865356+940622873+941754438
1023+943072773+944228538+945009014+945349329+945257608+944850561+944325393
1013+943805358+943256046+942532826+941505279+940225415+939021420+938324374
1003+938334979+938874587+939449283+939216821+936789258+930109639+916617218
993+894160724+863271982+829616941+803125735+792404972+798950620+816968625
983+838431248+857828905+873219434+884814875+893420920+899692025+904148959
973+907373638+909859302+911780820+913121211+913933953+914392502+914704726
963+915079395+915753708+917002435+918988202+921533265+924160516+926456477
953+928316452+929842937+931169057+932393528+933553523+934631048+935608899
943+936494690+937305175+938071153+938808081+939444431+939897960+940269696
933+940801069+941541268+942201649+942465023+942345661+942136609+942047483
924+942037442+942035524+942170680+942635942+943398931+944199995+944785747
914+945027008+944868217+944289404+943334399+942137399+940867180+939624489
904+938431889+937318375+936356262+935694133+935641109+936521936+938280487
894+940396672+942321349+943847439+945058089+946142384+947262385+948420463
884+949447897+950193850+950662948+950904942+950827662+950155605+948606951
874+946264171+943915130+942827394+943812070+946492402+949680077+952353188
864+954133232+955182665+955994617+957042810+958331982+959415599+959929598
854+959925199+959694260+959499198+959466593+959569258+959703962+959856492
844+960121276+960544908+961098732+961806214+962650996+963402364+963832991
834+964019028+964098452+964005603+963798807+963863113+964430363+965310569
824+966309235+967435498+968569996+969397404+969775570+969908018+970131850
815+970620803+971258902+971799413+972142380+972392272+972751824+973460998
805+974668039+976242076+977834729+979160341+980157089+980946139+981672010
795+982342826+982887625+983316446+983604245+983548513+983097241+982624646
785+982444024+982274684+981660615+980749384+980176607+980153817+979806676
775+977022439+968021475+946821267+907059666+847437458+776201194+708351447
765+657395191+630148893+627491576+646252658+679696165+718949746+756266523
755+787552272+812014784+830071542+842334979+850454044+857374079+865259329
745+873640809+880729169+885900523+889830428+893028313+895406574+896822328
735+897361204+897383429+897406387+897647818+897928735+898339336+899575484
725+902238780+906129198+910438059+914300893+917023927+918174389+917814330
715+916563911+915196725+914061550+912968117+911677478+910395414+909752689
705+910403819+912661816+916374772+920965677+925555906+929344619+932136133
696+934372018+936545966+938785743+941033418+943329773+945706342+947891910
686+949426349+950221829+950786371+951638598+952682504+953439175+953702041
676+953655221+953577828+953763865+954516813+955899173+957281533+957674027
666+957364341+957133854+956957632+956666449+956626285+957320681+958525916
656+959510254+959915496+959960623+959829754+959332904+958319008+957008400
646+955592082+953971676+952390982+951784472+952785056+954753957+956419039
636+957114788+956925817+956198479+955452413+955315114+956029816+957195678
626+958175503+958609965+958588869+958598232+959264762+960761068+962363761
616+963031870+962588833+961802040+961289056+961052025+961069851+961562640
606+962480415+963357576+963938025+964554801+965637403+967052706+968236619
596+968930337+969382850+969725479+969654178+969117389+968834555+969548919
586+971110885+972599294+973184368+972885513+972688758+973829011+976608735
577+979875157+981884108+981959471+981109950+980713959+980849453+980360951
567+978778791+977334268+977401395+978786575+980247343+981092012+981602627
557+982214327+982861225+983166962+983032032+982781801+982715690+982779319
547+982705649+982315524+981894713+982319586+984197894+986757849+988405331
537+988587983+988230689+988201130+988239150+987673142+986639277+986134867
527+986899323+988441207+989495718+989490754+989024138+989060127+989776973
517+990134719+989303814+988165254+988230012+989709169+991627979+993407910
507+995213112+996896809+997901679+998275897+998756389+999586504+1000184327
497+1000264315+1000315986+1000652410+1000667866+999451010+996504653+991219578
487+981944917+966423971+944602079+921837705+906983852+905557888+915983575
477+931827463+946766324+957965436+965516011+970403403+973783770+976865058
467+980122115+982949336+984808127+986173902+987827590+990429062+995039485
458+1001485458+1004428092+993085589+955492577+888236027+809654009+753939989
448+744874662+778098400+828733124+875269676+910523857+935169642+951685531
438+962503881+968695450+970638741+970067994+969761355+971624771+975790466
428+981127437+986406308+990921174+994681739+998262133+1001151630+1000528423
418+996131789+993227063+993566871+994682077+995732865+998659027+1004210804
408+1010131046+1014200845+1016014508+1015807600+1014693183+1015525554
399+1020512565+1026694995+1028010341+1025198237+1023223244+1023880410
391+1026436303+1029747401+1033203921+1036790182+1039676745+1040025014
382+1038990134+1041055156+1048933467+1061651336+1073741823+1073617497
374+1058097905
##END=
