##TITLE=CZ-PHOS19
##JCAMP-DX=4.24
##DATA TYPE=INFRARED SPECTRUM
##DATE=24/11/2021
##SAMPLING PROCEDURE=Diamant-ATR
##ORIGIN=Angelika Moesle
##XUNITS=1/CM
##YUNITS=TRANSMITTANCE
##RESOLUTION=4
##FIRSTX=3997.453
##LASTX=373.96442
##DELTAX=-1.4165319
##MAXY=0.91543728
##MINY=0.22568803
##XFACTOR=1
##YFACTOR=8.5256741e-010
##NPOINTS=2559
##FIRSTY=0.91339344
##XYDATA=(X++(Y..Y))
3997+1071344542+1071590143+1071366635+1070718970+1070114022+1070002093
3989+1070429954+1070959398+1071032176+1070623680+1070313271+1070458478
3980+1070659685+1070409400+1069856607+1069479362+1069325975+1069056464
3972+1068632798+1068520799+1069127355+1070270835+1071336992+1071888248
3963+1071982629+1071912158+1071784009+1071512960+1071158647+1070999667
3955+1071173328+1071398095+1071272743+1070838660+1070610537+1070867254
3946+1071259669+1071458359+1071630342+1071891673+1071875943+1071308608
3938+1070485255+1069885480+1069716783+1069906733+1070298380+1070757142
3929+1071124669+1071199405+1070914234+1070459807+1070052710+1069703569
3921+1069421824+1069394069+1069821161+1070707225+1071715285+1072235221
3912+1071901950+1071030218+1070216653+1069590941+1068981798+1068697187
3904+1069331009+1070509095+1071070068+1070914934+1070908781+1071032386
3895+1070400452+1068896716+1067748971+1068173896+1069522078+1070432471
3887+1070980511+1071728709+1071983188+1071003372+1069889255+1069999017
3878+1070607111+1070308517+1069349885+1068717881+1068660483+1069147070
3870+1070428346+1071805821+1071968297+1071101319+1070485115+1070588585
3861+1070622072+1069896666+1068431172+1066573332+1065144542+1065928744
3853+1069864297+1073443019+1073741823+1072044641+1070198476+1069063735
3844+1068663210+1068571136+1068372166+1068113073+1068267858+1068995781
3836+1069788862+1070373256+1071003162+1071616919+1071638382+1070895638
3827+1069988041+1069325066+1068574002+1067730934+1067911027+1069558921
3819+1070856138+1070785457+1070468126+1070607671+1070529789+1069871777
3810+1068997039+1068353849+1068432640+1069216982+1069696368+1069554447
3802+1070056625+1071792888+1073041725+1072709224+1071651456+1070710581
3793+1069874015+1069112743+1068722914+1068817855+1069239704+1069898484
3785+1070644234+1070973799+1070508605+1069595905+1068987601+1068942158
3776+1069007456+1068765421+1068280442+1067993803+1068356436+1069218450
3768+1069938893+1070493714+1071321122+1072054079+1071864897+1070886060
3759+1070177223+1070256643+1070347598+1069585768+1068070706+1066892620
3751+1067382213+1068826734+1068827852+1067381234+1066935476+1068904616
3742+1070753926+1070264193+1068682505+1067965628+1069001583+1071153473
3734+1072880997+1073401072+1073048926+1072271785+1071334475+1070633398
3725+1070538108+1070801257+1070811953+1070489939+1070184843+1070027122
3717+1069871987+1069540884+1069008365+1068657337+1069131550+1070226231
3708+1070775389+1070233921+1069102956+1068281421+1068407122+1069245017
3700+1069814729+1069526063+1068487521+1066947081+1065116507+1063295650
3691+1062094213+1062558778+1064986121+1067443736+1068053647+1067114520
3683+1065777245+1064722273+1063930521+1063202178+1063094793+1064792115
3674+1067470302+1068308756+1067150036+1066276416+1066869689+1067596913
3666+1067448000+1066920864+1066491046+1065929513+1064798338+1063194767
3657+1062016821+1062124625+1062891070+1062996357+1062516272+1062870096
3649+1064943265+1067280072+1068154460+1067610546+1066205315+1064404803
3640+1062839475+1062065410+1061984102+1062022204+1061799954+1061188434
3632+1060255180+1059895063+1061677468+1064832455+1065963280+1064352439
3623+1061678797+1059278859+1057869854+1057893135+1058843098+1059390229
3615+1059083106+1058475501+1057980105+1057595729+1057423117+1057532739
3606+1057524699+1057042376+1056369194+1056044104+1056180432+1056328506
3598+1056131284+1055836675+1055788576+1055624912+1054608602+1052818996
3589+1051373077+1051380418+1052474749+1052991888+1052194403+1050667945
3581+1049258590+1048492285+1048259129+1047947741+1047193182+1046244477
3572+1045446432+1044840505+1044517791+1044807926+1045566261+1045719438
3564+1044584418+1042764190+1041309602+1040831684+1041170967+1041600296
3555+1041371265+1040205763+1038462718+1036840621+1035850528+1035615834
3547+1035975111+1036593063+1037144319+1037336926+1036795178+1035469648
3538+1034118669+1033657950+1033916554+1033781974+1032682608+1031174258
3530+1030176894+1030165429+1030951169+1031965521+1032716376+1032990780
3521+1032795726+1032288095+1031707406+1031263186+1031079248+1031137834
3513+1031178453+1030876783+1030300359+1029876692+1029707156+1029418909
3504+1028948821+1028884502+1029632770+1030654043+1031014719+1030374186
3496+1029168834+1028038288+1027270655+1026854049+1026722755+1026646621
3488+1026207644+1025309974+1024439850+1024084278+1024166355+1024281849
3479+1024262344+1024297090+1024610086+1025113242+1025408410+1025263413
3471+1024966637+1024964190+1025264112+1025468604+1025355836+1025176932
3462+1025311932+1025758879+1026122910+1026128573+1025992035+1026166046
3454+1026778614+1027497659+1027989000+1028272563+1028453285+1028395048
3445+1028069049+1027957260+1028591641+1029856418+1031091552+1031731666
3437+1031673919+1031236689+1030896638+1030929986+1031261368+1031593590
3428+1031640710+1031417062+1031333098+1031737399+1032462735+1033140671
3420+1033682419+1034078190+1034184107+1034098255+1034279187+1034966352
3411+1035837455+1036418633+1036603620+1036690380+1037014422+1037583645
3403+1038157692+1038645538+1039172534+1039743435+1040148505+1040279030
3394+1040292034+1040350970+1040366630+1040141583+1039774616+1039740359
3386+1040351110+1041237453+1041703416+1041538774+1041128111+1040877616
3377+1040909706+1041189004+1041640146+1042200700+1042853398+1043509941
3369+1043947030+1044019110+1043835591+1043638369+1043562235+1043522944
3360+1043355785+1043106479+1043023424+1043204426+1043540912+1043994920
3352+1044573441+1045133086+1045546406+1045863806+1046103954+1046153381
3343+1045953223+1045546056+1045016194+1044538346+1044322038+1044423480
3335+1044754443+1045245924+1045877089+1046550551+1047014277+1047002532
3326+1046553208+1046088992+1046017892+1046298868+1046560269+1046656608
3318+1046903047+1047555046+1048242071+1048303523+1047634116+1046799298
3309+1046340046+1046301385+1046421494+1046517343+1046622491+1046825095
3301+1047053428+1047112154+1046937863+1046713726+1046675694+1046851802
3292+1047111175+1047429973+1047869720+1048294644+1048474388+1048464810
3284+1048507806+1048638332+1048733761+1048741032+1048603376+1048277586
3275+1047959696+1047920895+1048068270+1048031006+1047712767+1047488839
3267+1047805401+1048644204+1049434279+1049569698+1049018093+1048318834
3258+1047975776+1047988640+1048053169+1048041214+1048115390+1048494173
3250+1049264952+1050260359+1051036940+1051226192+1050936407+1050532176
3241+1050171221+1049871578+1049721268+1049683795+1049530548+1049188539
3233+1048846040+1048699644+1048870369+1049396876+1050059082+1050465970
3224+1050522179+1050529170+1050721777+1050981710+1051123212+1051234162
3216+1051522199+1051908113+1052012352+1051605464+1050891454+1050253228
3207+1049899333+1049811943+1049856687+1049829491+1049536420+1048996910
3199+1048528360+1048455092+1048749911+1049136944+1049507477+1049953865
3190+1050426609+1050660744+1050509385+1050133189+1049807259+1049638632
3182+1049532995+1049448961+1049587945+1050144025+1050866006+1051149149
3173+1050687940+1049854520+1049296832+1049267749+1049489300+1049636115
3165+1049737976+1050004271+1050420667+1050705628+1050623971+1050196599
3156+1049630871+1049154911+1048917490+1048957340+1049274320+1049941700
3148+1050965770+1051943279+1052171611+1051378670+1050137314+1049287674
3139+1049100030+1049193572+1049128694+1048879528+1048696778+1048642806
3131+1048489908+1048120913+1047735629+1047525963+1047409839+1047216602
3122+1046922133+1046599769+1046292227+1045996988+1045707483+1045449088
3114+1045264521+1045128612+1044948589+1044710679+1044516463+1044376569
3105+1044111603+1043582370+1042899190+1042251176+1041675451+1041116436
3097+1040559657+1040008052+1039503427+1039218886+1039343958+1039831035
3088+1040368867+1040595731+1040327130+1039638078+1038707130+1037599236
3080+1036352706+1035217685+1034521991+1034332181+1034497173+1034892385
3071+1035343876+1035494956+1035095689+1034319876+1033564408+1033026016
3063+1032622624+1032205669+1031713908+1031208725+1030846231+1030683616
3054+1030488771+1029947443+1029128565+1028494393+1028349116+1028516416
3046+1028705807+1028926449+1029331379+1029845861+1030190737+1030187031
3037+1029889416+1029490918+1029202462+1029115561+1029059701+1028710002
3029+1027970264+1027108109+1026389205+1025747204+1024992085+1024197465
3020+1023633066+1023385858+1023283926+1023160462+1022946461+1022514545
3012+1021722303+1020653839+1019576845+1018598148+1017612390+1016669417
3003+1016138856+1016284971+1016809101+1017096859+1016935222+1016728703
2995+1016930608+1017531362+1018236144+1018846965+1019288109+1019509590
2986+1019566778+1019604111+1019613199+1019385217+1018837666+1018177488
2978+1017514023+1016479536+1014589117+1011906596+1008932542+1005834394
2969+1002182194+997428811+991300820+983843662+975562942+967513560+960885489
2959+956432447+954392906+954776863+957474275+962096433+967957991+974391078
2949+980998176+987460277+993305125+998178897+1002202399+1005727219+1008865636
2939+1011544522+1013818478+1015750425+1017118042+1017625253+1017407058
2931+1017026458+1016905510+1016985629+1017040789+1017063371+1017120769
2922+1017037154+1016556370+1015736932+1014927701+1014398328+1014204881
2914+1014353864+1014886872+1015771958+1016843987+1017899448+1018821796
2905+1019631167+1020469761+1021499773+1022714773+1023845599+1024598900
2897+1025041303+1025592209+1026519661+1027587915+1028363588+1028736708
2888+1028940432+1029147441+1029303974+1029363259+1029450229+1029708974
2880+1030122573+1030542604+1030779046+1030627267+1029943948+1028784039
2871+1027381395+1025907721+1024252556+1022097800+1019209877+1015590187
2863+1011345623+1006548265+1001314797+995971287+991119049+987541654+985939552
2853+986644055+989578539+994367507+1000322816+1006491916+1012059494+1016728073
2843+1020570713+1023666694+1026071315+1027974249+1029613544+1031073585
2834+1032313753+1033328035+1034145865+1034769340+1035237890+1035713431
2826+1036393604+1037303158+1038166921+1038546962+1038269551+1037738570
2817+1037634611+1038251374+1039282645+1040250576+1040939419+1041410415
2809+1041790247+1042136521+1042447909+1042745384+1043092357+1043508053
2800+1043889213+1044065391+1043957937+1043696536+1043557271+1043720935
2792+1044072732+1044288760+1044182983+1043912284+1043749459+1043728765
2783+1043676122+1043509801+1043317264+1043219247+1043323905+1043667522
2775+1044075109+1044279462+1044257160+1044224441+1044286173+1044328540
2766+1044222973+1043931300+1043477152+1042986021+1042694698+1042760764
2758+1043046565+1043204566+1043044677+1042747691+1042612411+1042707631
2749+1042885697+1042994480+1042944423+1042734268+1042482445+1042308364
2741+1042194548+1042093944+1042081150+1042278931+1042674423+1043047893
2732+1043116057+1042837178+1042516213+1042453501+1042586474+1042640586
2724+1042509012+1042315286+1042228105+1042321438+1042523763+1042668760
2715+1042674213+1042640796+1042697145+1042834871+1042973367+1043076766
2707+1043113121+1043038385+1042899889+1042786492+1042634084+1042326052
2698+1042006205+1041982225+1042285363+1042627652+1042807885+1042912194
2690+1043074320+1043217709+1043133325+1042781179+1042405053+1042266627
2681+1042378416+1042609056+1042911774+1043276155+1043587753+1043731632
2673+1043773439+1043878377+1044072802+1044205635+1044159423+1043994850
2664+1043855795+1043823706+1043875930+1043895296+1043758897+1043537836
2656+1043535738+1043939270+1044501292+1044769894+1044600357+1044256461
2647+1044027219+1043939130+1043869079+1043782458+1043753654+1043814897
2639+1043871106+1043788330+1043534550+1043212605+1042993711+1043051598
2630+1043456039+1044007924+1044308405+1044212696+1044083219+1044330847
2622+1044837429+1045137421+1045041712+1044765839+1044541631+1044430052
2614+1044457737+1044667753+1045012488+1045336880+1045462861+1045275287
2605+1044788071+1044188786+1043782807+1043812240+1044223252+1044645521
2597+1044731722+1044484024+1044123069+1043757779+1043392768+1043178279
2588+1043392629+1044137890+1045184052+1046163938+1046852011+1047215973
2580+1047309795+1047225901+1047092509+1047013788+1047026022+1047111105
2571+1047175144+1047057203+1046662061+1046062985+1045461882+1045158255
2563+1045465797+1046382972+1047362928+1047724443+1047376840+1046883192
2554+1046731623+1046836351+1046878578+1046785455+1046627035+1046389824
2546+1046169951+1046284956+1046861799+1047534212+1047837700+1047788901
2537+1047842524+1048303873+1048946084+1049275719+1049035641+1048309046
2529+1047331328+1046493713+1046337669+1047133267+1048483477+1049600879
2520+1049913176+1049340667+1048260877+1047326014+1047026861+1047301895
2512+1047739544+1048141188+1048635605+1049244748+1049597803+1049215804
2503+1048029329+1046555515+1045539624+1045413853+1046056903+1046965968
2495+1047585038+1047580354+1047027071+1046399751+1046206864+1046447781
2486+1046560059+1046125487+1045499215+1045435526+1046148208+1047051960
2478+1047431442+1047093487+1046347807+1045629182+1045247742+1045261235
2469+1045408190+1045296051+1044811981+1044261285+1043991634+1043989047
2461+1043944094+1043661300+1043304819+1043225819+1043580902+1044194309
2452+1044819671+1045407701+1046010342+1046513777+1046609417+1046087035
2444+1045097641+1044036797+1043182264+1042568926+1042157844+1041935664
2435+1041889941+1042025081+1042321997+1042665964+1042959035+1043217709
2427+1043415350+1043424928+1043237844+1043014335+1042887375+1042928064
2418+1043181704+1043514905+1043592017+1043218967+1042627023+1042295570
2410+1042493281+1043044257+1043565101+1043846986+1043886207+1043696955
2401+1043291466+1042765379+1042289139+1042063603+1042197973+1042553266
2393+1042862347+1043021816+1043028317+1042763002+1042187976+1041602813
2384+1041335959+1041332743+1041341762+1041320159+1041380773+1041507034
2376+1041645389+1041992222+1042848085+1044207592+1045771313+1047311263
2367+1048688738+1049607241+1049775449+1049388976+1049084510+1049241252
2359+1049516006+1049245866+1048161252+1046529088+1044763672+1043150943
2350+1041843730+1040950814+1040612510+1040979758+1042018300+1043371445
2342+1044544498+1045145041+1045011090+1044320500+1043474006+1042762862
2333+1042192730+1041658673+1041198512+1040888662+1040544696+1039900807
2325+1039093743+1038609533+1038648684+1038872332+1038931478+1038872682
2316+1038850450+1038764458+1038406649+1037889021+1037628878+1037757796
2308+1037888252+1037692079+1037388940+1037444171+1038022133+1038862125
2299+1039527547+1039759165+1039608295+1039160369+1038333381+1037227933
2291+1036472884+1036795528+1038205862+1039814885+1040598388+1040356982
2282+1039783634+1039575017+1039740638+1039848582+1039568236+1038897291
2274+1038228094+1038172024+1038972236+1040210307+1041301702+1041997536
2265+1042282916+1042287391+1042456508+1043227706+1044293164+1044768356
2257+1044395306+1043968284+1044139917+1044485003+1044278133+1043498545
2248+1042508033+1041439219+1040456117+1040032940+1040469540+1041471029
2240+1042432808+1043000283+1043371725+1044049451+1045088622+1045709371
2231+1045076598+1043509801+1042493351+1043157165+1044844630+1045687069
2223+1044808415+1043306707+1042662468+1042959175+1043233020+1042931210
2214+1042452593+1042574309+1043632776+1045134904+1046124438+1045984824
2206+1044826662+1043253434+1041955099+1041424118+1041728235+1042428193
2197+1042834941+1042491813+1041372383+1039716309+1038060375+1037316791
2189+1038009968+1039427992+1040482684+1041283665+1042558299+1043738413
2180+1043407380+1041761793+1040874890+1042179656+1044801774+1046734909
2172+1046879906+1045557941+1043705764+1042093944+1041128880+1041012966
2163+1041822057+1043252665+1044425298+1044656497+1044611194+1045489218
2155+1047140119+1048256193+1047952845+1046370039+1044422781+1043637320
2146+1045138050+1047966548+1049505449+1048241162+1045124347+1042115477
2138+1040541060+1040651801+1041593305+1042018020+1041429361+1040526099
2129+1040089289+1040199750+1040552316+1040841821+1040793582+1040342860
2121+1039819150+1039577604+1039461760+1038942384+1037824492+1036624453
2112+1036119270+1036512874+1037246250+1037722770+1037868536+1037803798
2104+1037561343+1037455007+1037983542+1038941195+1039369895+1038790255
2095+1037875108+1037634751+1038374769+1039581309+1040539173+1040977590
2087+1041048901+1040744504+1039785172+1038210616+1036603060+1035591085
2078+1035469578+1036195194+1037312597+1037981864+1037588539+1036426253
2070+1035437558+1035290464+1036067115+1037677537+1039924087+1042155117
2061+1043461352+1043438211+1042619822+1042091148+1042404773+1042845218
2053+1042345557+1041187326+1040936902+1042460423+1044852600+1046880116
2044+1048390564+1049641638+1050362500+1050092780+1048894629+1047487371
2036+1046816916+1047086636+1047043011+1045175523+1041989426+1040035737
2027+1041148036+1044388664+1047183045+1048035970+1047636913+1047483176
2019+1048062397+1048717961+1048886239+1048871418+1049430224+1050904038
2010+1052606813+1053184775+1052187761+1050885581+1050501904+1050397246
2002+1049130302+1046622211+1044287921+1043345438+1043625435+1043984503
1993+1043543499+1042509920+1041640006+1040997655+1039939608+1038122037
1985+1035752931+1033338802+1031951539+1032985886+1036430168+1039858160
1976+1040585874+1038677208+1036579080+1036311877+1037541209+1038179365
1968+1037035046+1035425533+1035266763+1036518886+1037741367+1038096449
1959+1037711514+1036764487+1035338074+1033955215+1033216036+1032857947
1951+1032040886+1030603497+1029286636+1028658197+1028413226+1027773252
1942+1026469254+1025314519+1025335143+1026487571+1027822120+1028583881
1934+1028570038+1027813591+1026778195+1026390324+1027068889+1028196918
1925+1028970004+1029229308+1029328163+1029603616+1030010853+1030118168
1917+1029614942+1028797671+1028147350+1027736128+1027403977+1027238845
1908+1027498707+1028069608+1028441470+1028357506+1028090023+1027856447
1900+1027372656+1026398713+1025301864+1024590650+1024286254+1024235358
1891+1024529128+1025079824+1025328711+1024954612+1024279332+1023697455
1883+1023313429+1023168781+1023351251+1023795542+1024215223+1024275487
1874+1023798128+1022911855+1022069346+1021827590+1022313758+1022887595
1866+1022907590+1022479589+1022031524+1021720695+1021509631+1021517321
1857+1021869468+1022303551+1022297329+1021614499+1020567288+1019693179
1849+1019266087+1019266926+1019677239+1020304489+1020433896+1019640675
1840+1018502718+1017846874+1017882040+1018098487+1017931398+1017375808
1832+1016907188+1016960600+1017416217+1017808632+1017987607+1018071361
1823+1018050947+1017836597+1017519197+1017312957+1017265207+1017194526
1815+1017019746+1016925505+1017059316+1017258425+1017278420+1017142721
1806+1017032330+1017029743+1017114966+1017268842+1017458513+1017552894
1798+1017409715+1017114686+1017022263+1017497454+1018450564+1019211206
1789+1019331874+1019051177+1018860877+1019040271+1019494349+1020019388
1781+1020528766+1020866161+1020753184+1020129989+1019354106+1019006574
1772+1019346835+1019906550+1020159981+1020051757+1019614877+1018904153
1764+1018208878+1017815204+1017564849+1017103640+1016421090+1015620738
1755+1014640293+1013556029+1012760081+1012530001+1012472743+1011934002
1747+1010910561+1009803365+1008833687+1008072765+1007627985+1007433420
1738+1007181388+1006911458+1007189847+1008164140+1008754476+1008405266
1730+1007783330+1007283529+1006777157+1006240093+1005845231+1005589353
1721+1005360251+1005315158+1005834884+1006950469+1008081644+1008894160
1713+1009505750+1009922076+1009999468+1009817487+1009731915+1009805952
1704+1009619217+1009200025+1009355090+1010380768+1011062829+1010740535
1696+1010082733+1009437097+1008681279+1007964961+1007508785+1007192713
1687+1006909710+1007008985+1007592819+1007623441+1006642926+1005440440
1679+1004574511+1004171189+1004162170+1004176572+1003780032+1003122370
1670+1002748411+1002675773+1002245185+1001296410+1000308065+999633065+999113270
1660+998437920+997568146+996576794+995677587+995569573+996722910+997357781
1650+996475562+995430308+995388991+996082098+996101044+995194356+994085063
1640+993210744+992662285+992603769+993281495+994278859+994801870+994940925
1630+995166880+995596559+995935562+995948006+995834120+995798605+995480296
1621+994459371+993046101+992090825+992124732+992587829+992924455+993453618
1611+994555640+996091256+997613798+998863404+999832454+1000542480+1001021866
1601+1001399530+1001794882+1002179747+1002511410+1002867122+1003295612
1592+1003698235+1003946003+1003973898+1003813030+1003612802+1003511220
1584+1003467945+1003325255+1002977373+1002496099+1002239382+1002640537
1575+1003337629+1003434527+1003066371+1003077976+1003836940+1004664628
1567+1004881285+1004572693+1003894897+1002896205+1002073132+1002594465
1558+1004352051+1004789071+1003726969+1002449817+1001502790+1000908329
1550+1000498155+999959484+999139277+998320119+997862895+997827170+998359968
1540+999494010+1000048342+999455349+998616056+998541740+999321258+999947040
1530+999870626+999537705+999433466+999451294+999283925+999088101+999097190
1520+998961071+998327390+997353237+996154876+994482372+991961068+988415484
1510+984089962+979914191+977974834+979659922+982587205+984974138+987141409
1500+989478215+991856060+993807023+994767613+994513623+993401324+992051185
1490+991031099+990434681+989745908+988591382+987030528+985167585+982966687
1480+980329748+977191681+973497044+969122863+963855767+957649684+951146405
1470+945186692+939754044+934465485+929431056+925381966+922859543+921583580
1460+921210950+922073174+924779185+928161805+929857240+929885274+929525927
1451+929776351+931360976+934769043+939850802+945915594+952436351+958915580
1441+964633188+969437747+974108704+979004427+983020659+985509664+987172659
1431+988664300+989952288+990788225+991310048+991835017+992343277+992584753
1421+992645506+992880200+993169356+992924315+991875915+989921527+986638182
1411+981173096+972235693+957550549+932871982+894192011+845024898+797933331
1401+766413112+759573207+777845043+811431790+848734146+881851085+906447505
1391+923002164+934944872+944855659+953162875+959332814+963472930+966349317
1381+968607053+970453777+971916824+973116653+974176658+975072719+975733527
1371+976224728+976732848+977350311+977981825+978582579+979330147+980365893
1361+981547474+982637751+983477673+983898403+983755853+983035480+981780281
1351+979939360+977290606+973486697+968246657+961571884+953741886+944971223
1341+934982834+922918409+907587279+887442432+860076940+822384894+772090241
1332+709596584+638440627+563952387+491535672+426209183+373528750+340038972
1322+331705538+351004905+394096879+450820844+510168674+566287271+618252784
1312+666190635+709391252+746776175+777494505+801193535+818215485+829611132
1302+837098632+842843226+848657103+854894227+859902789+860673498+854694978
1292+842190179+827182391+815947682+813212587+819087217+829658253+840253268
1282+847808512+850987408+849351748+842820295+831547763+815928806+796573544
1272+774272543+749858733+723959853+696995096+669543751+642542640+617000871
1262+593774095+573731669+557777484+546476708+539834059+537497637+539021263
1252+543897446+551463002+560994797+572043366+584583017+598766787+614636379
1242+632042705+650679272+670136675+689952306+709630211+728681915+746669629
1232+763210655+778023808+791048892+802480334+812660632+821943190+830586334
1222+838705138+846299393+853301563+859606223+865124163+869835598+873789119
1213+877058621+879665497+881508236+882391784+882129194+880601059+877714954
1203+873276734+866871192+857963012+846218015+831725549+814956820+796656040
1193+777736120+759001956+740790734+722937251+705144451+687330678+669584300
1183+651912449+634208158+616434164+598666044+580965074+563453810+546614329
1173+531404916+519055146+510792638+507652822+510332687+519063431+533486754
1163+552569743+574661079+597730203+619740370+639039422+654537712+665624977
1153+672057016+673888150+671326576+664629431+654178714+640509810+624110146
1143+605200923+583688703+559285275+531905905+502348743+472717370+445892401
1133+424156638+408098634+396835155+389247053+384992457+384615282+389011519
1123+398759027+413693267+432928630+455138745+478684843+501417097+520391757
1113+532083866+533576661+524475664+508485579+493319476+488072619+498757541
1103+524986895+560794429+598857393+634242205+665147828+691582163+714065076
1094+733083012+748959665+761918962+772215803+780152067+785988386+789843890
1084+791667333+791424320+789355905+785839264+780968499+774535202+766369976
1074+756335864+743821696+727188876+703654558+670281602+626272243+574944397
1064+523068686+477540804+442070385+416394595+398055189+384771290+375580002
1054+370553613+369989283+373742961+380885479+389750698+398354412+404952177
1044+408412573+408284390+404690042+398138698+389268551+378675633+366936613
1034+354628825+342284194+330457994+319811069+310969690+304283941+299579112
1024+295866963+291470637+285024913+276741467+268826456+264715756+267648789
1014+279419950+299917521+327401479+359137621+392214046+424318379+454061297
1004+480782202+504245489+524557006+542207150+557931500+572325356+585574438
994+597623657+608545440+618611991+628050314+636899208+645186360+653101371
984+660815874+668227379+675077561+681250227+686792356+691788264+696387701
975+700820118+705222753+709505279+713401471+716632242+719165222+721467842
965+724426725+728844950+734926380+742158212+749655009+756708006+763119350
955+769023484+774448861+779238458+783385565+787159691+790795462+794274210
945+797483308+800385912+802982022+805283593+807386894+809441187+811485762
935+813387996+815028969+816511661+818078178+819849397+821775052+823810329
925+825994238+828320068+830570813+832311062+833159513+833144412+832696766
915+832266248+832096152+832330847+833070585+834211897+835423192+836450338
905+837373945+838439543+839735500+841197010+842772685+844318718+845458003
895+845877684+845734435+845474082+845169336+844249435+842140401+839199136
885+836749631+836008564+837123310+839376433+842046370+844787757+847381630
875+849566588+851192740+852258058+852699272+852331955+851009291+848670177
866+845260362+840731885+835094676+828537425+821553990+814694860+808037425
856+801160047+793662411+785375398+776131152+765740909+754159156+741398618
846+727362537+711907383+694925492+676172452+655010457+630519883+602178630
836+570516000+536967425+503301923+471643627+444847812+426059641+417531643
826+419884110+432092693+451612037+474618940+496890753+515187652+528019745
816+535078229+536295571+531786950+522331325+509509928+495600842+483399216
806+475613717+474065202+479263400+490343884+505392150+522292104+539566227
796+556624706+573576115+590870862+608814252+627315749+646128564+665030935
786+683551169+700810890+715900614+728163868+736925303+741201816+739917604
776+732230086+717387361+694500078+663322288+626029089+588002795+556005985
766+534896773+525762847+526908285+536168681+552260138+574588231+602230155
756+633033917+663746793+691325796+714309068+732922494+748058150+760385094
747+770112572+776941641+780033916+778393572+771942168+762875637+755781043
737+755238946+762458543+774514508+787161998+797909421+806366180+812902178
727+817882635+821637186+824371022+826166920+827259994+828016301+828436681
717+827777482+824562092+816610866+800471974+770596433+721372552+654399356
707+584789082+536006555+524614719+549892675+597952872+652547878+701628859
697+739173041+764844358+781550726+792416650+799697349+805092105+809650573
687+813654430+817211270+820597665+823860385+826685457+828840633+830366251
677+831446041+832411875+833565002+834793355+835865804+837193222+839606023
667+842412918+843683358+843308840+842225344+841173659+840525505+840169514
657+839811634+839569110+839893292+840740764+841319495+841047538+840385611
647+840221039+840727691+841417652+842084262+843021711+844258593+845052513
637+844397718+842061121+839109928+837150436+836852192+837519362+838149897
628+838353900+838087746+837147430+835272252+832349583+828282805+822860784
618+815830160+806971198+796008306+782429659+765532082+744861497+720697132
608+694222808+667699335+644633636+628889746+622668912+625175185+633051045
598+642063673+649000616+652374427+651614414+646341236+636692269+623504150
588+607705868+590232216+572565643+556621910+544417067+538287607+540430164
578+551503342+569880570+592203314+614961050+635894364+653868375+668261427
568+679096939+686967486+692383774+695729410+697556489+698203384+697526706
558+695461577+692500177+689640988+688133267+688895238+692024916+697238949
548+704488328+713572127+723603022+733504092+742683320+750953414+758271447
538+764527307+769101506+770997588+769909478+766629280+762030332+756138014
528+748309903+738016838+725541820+711883683+697709316+682876588+667550632
518+653872919+645983986+647313641+658140974+676192937+698184578+720541998
509+740034566+754808988+765295220+773522737+780766943+786342281+789391909
499+790746383+791741650+792496839+792358763+791257510+789670019+787691441
489+785207889+782639884+780439405+778055478+774465709+769679957+764761792
479+760834488+758755727+759106475+762047111+767131247+772997768+777911529
469+781143908+783093752+784493599+786237762+789095972+792506487+794164169
459+791862388+786120730+780145076+775920088+772428965+767996268+762225107
449+755473361+747602325+738223637+727578705+716469277+705729055+696049607
439+688179689+683416938+683675332+690215315+702160680+716677475+730223264
429+740076024+745272229+745227346+738016278+721842360+696209845+659208879
419+611611359+569823522+552067811+556452548+574182951+599879086+629798462
409+660083896+686676093+706002201+716518146+719655165+719367267+720546892
399+726889793+739058316+754213967+769125346+781860296+790018670+792146230
390+790398362+788928044+789569416+790533222+790359071+791564493+796557674
380+803704562+809747191+813320251+814789101+813068638
##END=
