##TITLE=X7742
##JCAMP-DX=5.0
##DATA TYPE=LINK
##BLOCKS=1


$$ === CHEMSPECTRA SPECTRUM ORIG ===
##TITLE=X7742
##JCAMP-DX=5.00
##DATA TYPE=INFRARED SPECTRUM
##DATA CLASS=XYDATA
##ORIGIN=ComPlat
##OWNER=
##XUNITS=1/CM
##YUNITS=TRANSMITTANCE
##XFACTOR=1
##YFACTOR=8.905901e-010
##FIRSTX=3997.453
##LASTX=373.96442
##MAXX=3997.453
##MAXY=0.9562638375197523
##MINX=373.96442
##MINY=0.2972612072169149
##NPOINTS=2559
##XYDATA= (X++(Y..Y))
2559A070685127A071461549A071912637A071621036A070968095A070405505A070028036
2552A069975231A070594508A071797590A072805512A073005892A072594826A072017512
2545A071403857A070887647A070808407A071221816A071654633A071588375A070962205
2538A070197897A069795197A069837629A069995844A070063106A070223865A070666521
2531A071180588A071276160A070635868A069493690A068545801A068425198A069245725
2524A070472499A071289278A071440600A071596407A072452806A073529664A073741823
2517A072871168A071476942A070032386A068950509A068877960A069947389A071146523
2510A071446356A070853716A070013848A069437203A069192049A069132283A069160794
2503A069217348A069268145A069409964A069841443A070700319A071785811A072299409
2496A071303400A068802935A066168549A065117726A065958197A067686256A069621454
2489A071285932A071951723A071404660A070226074A069398453A069651704A070517541
2482A070893003A070502884A069770902A068812171A067523556A066639716A067177676
2475A068538506A069224375A068877023A067909926A066744725A066109185A066872556
2468A068495271A069416055A069420003A069354281A069389083A068961753A068046257
2461A067005138A065828894A064510630A064087249A066096335A069129606A070775746
2454A071146523A070887647A070128762A068838875A067170984A065574705A064806113
2447A065493388A067164224A068429950A068726370A068447485A067954767A067379663
2440A066932322A066926030A067252769A067201302A066504055A066111996A066805360
2433A067485943A067535402A068127038A069611816A070486219A069878856A068284986
2426A066656515A066131338A067013236A067701917A066881725A065471838A065282032
2419A066536180A068487708A070724748A072418674A072759734A072071723A071157030
2412A070394864A069882470A069756312A069961444A070016792A069473344A068520971
2405A067896340A067990707A068302789A068268990A067911466A067597979A067634253
2398A067886435A067924316A067874990A068265644A068836131A068697726A067737254
2391A066862383A066688171A066635700A065907199A064395382A062849298A062711963
2384A064092068A064909583A064351008A063588307A063715201A064027482A063304737
2377A061303749A058486251A056200087A056193729A058402190A061026136A063092043
2370A064316140A064490954A064101103A064199620A065024965A065753869A065963484
2363A065960339A065896624A065515474A064550251A063119550A062011370A062417952
2356A064483458A066880988A068381562A068500157A067574554A066670034A066535444
2349A066676191A066487591A066214193A066115073A065996747A065760026A065763908
2342A066457808A067568397A068082264A067609356A066552443A065294481A063963300
2335A062618466A061402333A060743837A061485791A063344023A064204907A063399773
2328A062465872A063268195A065465480A067278268A067816697A067127146A065700126
2321A064036251A062541165A061944711A062789800A063945899A063704961A062163830
2314A061109995A061908235A063170013A063459874A063487649A063841091A064289369
2307A064586659A064864942A065082924A064705857A063379093A061400526A059159002
2300A056960513A056089322A057966629A060863904A062313211A062008358A060901852
2293A060150796A060313362A060824283A060898037A060692638A060827027A061454469
2286A062206262A063031607A064290841A065621353A065899904A064761339A062982684
2279A061507810A060611054A060075302A059749300A059599249A059598245A059634988
2272A059493370A059182360A059244803A060266245A061907633A063279104A063770550
2265A063272679A062394394A061982524A062130902A062414071A062763832A063094853
2258A062728829A061298061A059852167A060009044A061335272A061941967A061621252
2251A061471937A062001933A062627234A062633525A061960639A061023793A060362888
2244A060331767A060760636A061162199A061234145A060963023A060592849A060667205
2237A061564832A062803921A063323209A062718321A061770299A061361039A061445501
2230A061491547A061269148A060892884A060483290A060153138A060199184A060872270
2223A061819958A062183440A061527688A060413552A059773460A059827471A059987560
2216A059820912A059618190A059803511A060201794A060331432A060111777A059878469
2209A059829746A059757331A059451005A059106130A059140330A059650515A060247171
2202A060524851A060506313A060508254A060702811A060944685A061002310A060799453
2195A060379285A059794543A059150770A058719224A058901801A059885162A061220559
2188A062045369A061952876A061279923A060436307A059524625A058762660A058514963
2181A058646675A058589988A058305481A058466842A059447793A060649804A061121641
2174A060637824A059862540A059429990A059175132A058541332A057542244A056789916
2167A056629357A056685376A056206713A054780428A052817656A051322906A050990278
2160A051523821A052016405A052020420A052022361A052657098A053639321A053950599
2153A053143658A051942182A051284088A051314272A051666577A052093237A052421046
2146A052437242A052176160A051988228A052182719A052816318A053748546A054644566
2139A055033748A054682916A053895116A053208377A052803602A052422251A051917152
2132A051588071A051764089A052302719A052792692A053025531A053023792A052872135
2125A052824684A053270285A054185045A054917227A054959258A054649184A054631649
2118A054939313A055055365A054664578A053998586A053554926A053556130A053677402
2111A053540603A053444496A054008357A055018689A055408339A054664243A053529828
2104A052966368A053123513A053606995A054069863A054259936A054051123A053627475
2097A053306559A053198204A053227987A053238896A052976876A052381827A051912801
2090A052148452A053106848A054266495A055097998A055365372A055154350A054837250
2083A054824065A055118678A055227569A054760350A053992763A053511088A053479097
2076A053652171A053819087A053793186A053366257A052695180A052349501A052694377
2069A053536721A054339981A054569809A054047041A053121840A052295558A051785573
2062A051649979A051976985A052647528A053235549A053382454A053078873A052529067
2055A051961457A051641479A051859260A052651142A053533040A053849606A053518986
2048A053118695A053153564A053601038A054157002A054483941A054297683A053693866
2041A053334735A053809048A054783373A055241087A054661365A053561284A052725765
2034A052318380A052000543A051598043A051337763A051535935A052223276A053055917
2027A053639119A054020203A054600060A055338534A055451507A054372307A052725899
2020A051745350A051914675A052674767A053255694A053392828A053399320A053797603
2013A054698577A055477006A055400843A054573021A053793454A053509884A053474747
2006A053444362A053585578A054021408A054436891A054394326A053857102A053216408
1999A052808287A052540511A052126299A051610492A051391974A051741669A052501225
1992A053202889A053388812A052979620A052350170A051828741A051315008A050709719
1985A050364844A050646875A051358779A051988161A052298369A052391397A052338123
1978A052037621A051446721A050753824A050264988A050206829A050589183A051140998
1971A051535265A051760542A051993984A052125897A051832355A051051315A050019299
1964A049075492A048635647A048936150A049690151A050376824A050715073A050581286
1957A049916499A048922832A047888272A046924254A046326059A046686461A048057396
1950A049525979A050127319A049787530A049120936A048674867A048575212A048642742
1943A048676607A048581838A048284882A047742237A047073635A046539556A046390510
1936A046704866A047196312A047259157A046520147A045331655A044461134A044280832
1929A044427938A044308072A043780485A043146417A042546282A041796899A040881001
1922A040091729A039505849A038733778A037400455A035623941A033895213A032592945
1915A031693712A030943593A030191733A029459550A028827290A028345281A027902357
1908A027221842A026227773A025233035A024474349A023731993A022712492A021514229
1901A020533813A020121073A020313623A020742291A020961544A020899101A020705280
1894A020335173A019769170A019414256A019753175A020768259A022093215A023550754
1887A025202382A026939409A028355587A029213995A029859239A030816699A032085838
1880A033244882A034111455A034793242A035241520A035233622A034684418A033690483
1873A032390491A030880748A029197263A027431926A025705741A023762378A020933033
1866A017008225A012793020A009298822A006734308A004679578A002877832A001505692
1859A000903950A001282490A002580609A004459655A006403152A007916709A008791514
1852A009187990A009353300A009314349A008916668A007982566A006314675A003742665
1845A000236821I95781347I90235229I83545059I75918110I67547733I58418404
1838I48520349I37877127I26232809I13115894H98343000H82179896H65023459H47199625
1830H29042628H10971364G93444821G76927806G61956473G49212744G39403233G32992885
1822G30076000G30435867G33596501G38855502G45364701G52143148G58066200G62136708
1814G63896557G63405914G60848896G56473869G50870395G44785380G38549176G32200937
1806G26314628G22120572G20603602G21933243G25769105G31624359G38936350G47193351
1798G56012674G64955746G73472023G81208466G88291967G95217118H02391573H09770558
1790H17070234H24271125H31568191H38879512H45851981H52319752H58361867H63981069
1782H69074961H73686173H78061066H82433215H86759452H90640222H93543187H95139332
1774H95354302H94091253H91059186H85951843H78665218H69269719H57998453H45509715
1766H33118691H22614812H15658740H12992162H13971173H16914561H20007398H22009791
1758H22555046H22161983H21849366H22575258H25069633H29927806H37387371H46941554
1750H57386672H67400243H76256711H84107933H91527475H98822399I05888299I12589244
1742I19090212I25773890I32810877I39866737I46427872I52351124I57809233I62831512
1734I67268647I71125524I74618920I77933419I81073641I83909812I86282780I88114442
1726I89504318I90731695I92067761I93544910I94997430I96331756I97635965I99009778
1718A000394769A001605213A002461278A002881781A002920130A002776705A002745986
1711A003034509A003602720A004231500A004737068A005108514A005493679A006071662
1704A006898614A007852526A008698954A009218576A009327600A009101387A008695875
1697A008304351A008139443A008275439A008553120A008808313A009094828A009582325
1690A010378423A011472883A012658832A013573726A014002461A014059617A013999717
1683A014007213A014151842A014348206A014393784A014203242A013942762A013829253
1676A013889889A014013705A014120654A014147960A013984524A013636235A013401924
1669A013634295A014290448A014914477A015116931A014921839A014628029A014503210
1662A014626356A014870372A015024572A015068075A015265510A015844296A016655586
1655A017322381A017638010A017695165A017705740A017815099A018070627A018482229
1648A019023870A019569861A019949606A020126561A020206071A020235586A020130777
1641A019844932A019497379A019245600A019107462A019015169A018988332A019077144
1634A019168700A019066502A018759106A018437588A018260700A018226232A018224425
1627A018123165A017827347A017344332A016846396A016603852A016730612A017034729
1620A017243742A017317295A017406843A017581255A017704736A017596983A017285906
1613A017039480A017110557A017516604A018078390A018554308A018781259A018837946
1606A019002052A019422756A019938228A020271124A020285647A020038820A019662957
1599A019224852A018738626A018349780A018382641A019042810A020092696A020990591
1592A021447368A021700085A022016182A022154454A021741512A021004177A020525447
1585A020354181A020019076A019435137A019102978A019298807A019722255A020102535
1578A020545793A021093725A021465171A021435589A021115544A020741889A020417293
1571A020179032A020200181A020669675A021415712A021979105A022179351A022225932
1564A022234030A022105061A021890292A021868072A022272312A023075237A023925011
1557A024395174A024418799A024264198A024160996A024276178A024722649A025208607
1550A025207603A024861121A024994640A025858469A026554511A026125241A024680886
1543A023062320A021869411A021228115A021094796A021324557A021661803A021910504
1536A021933594A021556527A020861689A020403238A020654483A021420798A022130159
1529A022459106A022476440A022431063A022493373A022595303A022635593A022771522
1522A023149325A023505043A023534692A023428612A023450163A023329159A022766235
1515A022204247A022382140A023325076A024341632A024895789A025104200A025416281
1508A026012268A026588845A026768946A026591187A026341549A025988442A025193079
1501A023961888A022900624A022607617A023046325A023689963A024045547A023895764
1494A023341473A022843736A022952760A023784866A024922292A025814766A026107639
1487A025795156A025313548A025198501A025423108A025414073A024880998A024234951
1480A024050366A024408560A024846062A024860384A024514237A024359770A024567043
1473A024570055A023978084A023230642A022850295A022762018A022814690A023172951
1466A023759567A024082557A023960884A023765724A023740493A023660448A023317446
1459A022887640A022619731A022458972A022230014A022035457A022201838A022851500
1452A023691569A024228994A024194125A023813377A023554369A023529204A023423057
1445A023101272A022824461A022717579A022528777A022119652A021740911A021667826
1438A021913181A022378660A022996129A023681865A024291638A024614427A024435397
1431A023787743A023041907A022544572A022339574A022393250A022765231A023394880
1424A024043941A024452330A024243584A022985956A020808147A018526735A016670645
1417A014821850A012352707A009366887A006473493A003992638A001781566I99644783
1410I97604242I95606734I93151646I89862914I86562937I84792447I84981048
1403I86121419I87385740I88910875I90847880I92805432I94418912I95656193
1396I96463669I96628712I96025364I94857954I93661229I92858907I92394165
1389I92052167I91945017I92464706I93709685I95130882I96058024I96466012
1382I96765511I96986705I96838863I96455973I96362208I96785924I97583026
1375I98820241A000722377A002915914A004465812A004884977A004674023A004718596
1368A005437661A006715769A008372952A010255077A011964596A013056513A013616291
1361A014229611A015272872A016527555A017429933A017506229A016814873A016138306
1354A016369205A017590090A019117166A020363952A021166475A021421601A021085694
1347A020497940A020119266A019947130A019650910A019178672A018790629A018638905
1340A018686691A018912704A019328054A019890309A020503629A020988382A021079805
1333A020674561A020068335A019637257A019255706A018552301A017828150A017814229
1326A018375212A018795046A019437680A021292499A023667742A024439547A023078717
1319A021488462A021324892A022159071A022817768A023214579A023987387A025132109
1312A025972245A026170283A026078592A026312837A027262132A028697920A029885742
1305A030347674A030097165A029069633A027196075A025207937A024496301A025823131
1298A028364689A030357713A030983080A031147252A031720885A031897706A030523157
1291A028104611A026215057A025725753A026395626A027366404A027561831A026173226
1284A023186202A019575082A016913590A016292573A017325661A018620634A019502934
1277A020799246A023605166A027542423A030537211A030324115A026483368A021379839
1270A018512814A019322164A021987872A023726304A023658574A022965811A023428345
1263A026215591A030341717A032342370A030265956A026801272A025611307A027435808
1256A030615650A033250638A034486648A034325019A032642605A029270883A025264558
1249A022394722A020822604A019280268A018010995A019001382A022586401A026443613
1242A028663988A029390281A029184681A028047388A026189491A024333869A023203804
1235A023170675A023971057A024703240A024706653A024257037A023863170A023395216
1228A022470818A021257965A020382491A020181977A020286517A020065992A019548512
1221A019507285A020316032A021240497A021379705A020792353A020132250A019704452
1214A019514780A019718038A020337516A020912688A020988784A020639826A020074291
1207A019215014A018200465A017798836A018629870A020296757A021883064A023002621
1200A023764386A024197003A024462837A025167982A026651288A028174750A028370311
1193A026523591A023245433A019990298A018105563A018278837A020344878A022855917
1186A023327820A020452028A016194592A014371631A016662480A021233670A025577107
1179A029070636A032228192A034694123A035161876A033371642A031043180A029935737
1172A029955481A030214823A030493841A030425108A029190838A027452205A027592283
1165A030554813A033840534A034055571A030707742A026464628A024297996A025185717
1158A027807588A029614955A029092991A027524620A027326917A028626442A029149678
1151A027510164A025049186A024224041A025692691A027329661A026848924A024904088
1144A024130076A025581123A027672194A028506977A027402746A024437874A020312552
1137A016508681A014669390A015857480A020259880A026498493A031359478A032310914
1130A030202709A027560627A025202784A022542966A020214905A019865412A021439538
1123A023016609A023372929A023174089A023545936A024249942A023844297A021473537
1116A018086020A015906203A016713077A020188804A023859289A025342595A024582235
1109A023199789A022312067A021980510A022205117A023085611A024173110A024620652
1102A024040728A022815024A021697676A021388339A022054598A022953162A023040033
1095A022153450A021066085A020334839A020006628A020262758A021130067A021823767
1088A021550570A020661309A020434493A021608663A023341741A024288358A024289362
1081A024096077A024032094A023825892A023360213A022886101A022691008A022805186
1074A022845008A022324716A021244713A020196567A019965669A021029007A023142633
1067A025178623A025851910A025079437A023973065A023379488A023239945A023323001
1060A023713923A024463708A025304312A025721135A025265495A024228726A023550018
1053A023670956A024145201A024282803A023877694A023274747A022940178A023114523
1046A023678117A024243718A024452665A024228793A023836868A023728981A024222435
1039A025215433A026197053A026748399A026848522A026695058A026527874A026439597
1032A026286334A025889724A025308328A024976302A025372377A026397902A027571938
1025A028502961A028943609A028873670A028566274A028405850A028572967A028865304
1018A028934641A028689420A028313089A027955028A027649975A027494101A027477236
1011A027339366A026999978A026815192A027036654A027388691A027517124A027334346
1004A026954736A026754556A027137580A027863338A028363217A028500418A028352442
997A027947131A027382601A026877903A026625588A026606714A026575660A026324081
990A025823332A025105271A024272831A023582143A023121551A022621070A021672444
983A019977849A017517809A014628497A011771913A009005949A006103586A003015301
976I99811833I96466213I92649358I87529901I80533472I72171729I62397757
969I49887938I33766462I13441427H87075817H54783407H21418891G88511354
962G48520583F95631949F42241965E99841549E63451325E28911970D97033304
955D67904004D41078236D17960833C99736440C85414903C73709950C66205745
948C65837043C71604322C81425109C94983710D11919187D31943016D56531444
941D85369610E13171712E38405752E68007122F05253344F40272500F69250276
934F97684939G23373047G42299773G57377720G72057652G85567564G96404071
927H06822484H20490277H34820180H44675535H51024712H56348297H61964220
920H68533319H75440200H80997160H85337585H90754467H97809591I03640952
913I06928012I09032803I11394996I14199243I16511844I17555706I17366838
906I16593227I16424102I17987252I19280485I17975674I14769663I10943104
899I07377093I03610166H98581796H91779858H83117077H72263503H56774489
892H32258276H01220615G73132435G49211204G25935753G02676834F82012478
885F65548336F50026394F28554696E97590589E59752128E14596356D57129705
878C94492030C50373093C33780049C38243654C59456846C94458868D37237020
871D80864645E21568959E58772449E91986646F19264942F38971035F51109475
864F56432927F55545875F48943847F37920546F26059719F19256978F22945131
857F38856857F64234623F93512501G20790194G41832621G54904629G59104039
850G51389348G30202024G01731622F71401649F41355314F19020390F14829212
843F28867179F53578418F80591615G03366049G22623530G47816644G81307451
836H05201041H17828853H27309081H36108394H44185294H51597742H57981319
829H62787825H66268907H69118932H71869503H75787953H82329277H88716201
822H91981710H93085004H94139173H96305069H98612248H99886340I00318689
815I00453280I00284088H99515430H98431478H97858247H97852023H97787304
808H97977578H98906058H99776044H99480092H97708397H94483112H89787704
801H84123527H78273158H71029233H60363524H44769702H23205444G95816116
794G65889380G41147288G27579752G24981172G32256553G49632109G73516998
787G95522306H11053484H20296188H23799222H21409789H12883272G98077049
780G77054432G51118360G23392188F98178995F79675249F67954366F58770290
773F48583645F36525183F24559146F15796778F10917120F08658062F08724453
766F12797773F20911885F29130336F36292678F43844803F52964093F64765288
759F80075272F97702608G14977104G29662256G39414879G41500931G33168101
752G11516302F80101039F55257619F48824115F59518937F81845963G06668435
745G23249432G26247634G15067791F91533064F59145617F18629670E69770250
738E23812925D97236829D92072731E03380472E28195080E62791356F01049116
731F37858639F71961896G03603774G30805372G51496900G67026672G79980219
724G91157987H00281428H07943380H14932782H20990491H25680209H29330348
717H32555500H35224822H36243453H34661563H30331042H23919691H17001633
710H11524919H08892139H09680809H13368360H18002127H21492913H22961829
703H22297578H19646058H15376174H09929443H03847975G97683852G91368473
696G84288720G76217575G67895855G60789800G56179390G54586123G56044733
689G60390044G67189172G75664422G84718995G93273822H00831703H07481047
682H13227946H17723242H20824110H22862844H24348158H25743053H27452707
675H29796495H32843956H36261523H39459703H41983793H43729320H44841180
668H45535148H45927408H45930888H45446335H44649300H43854406H43095787
661H42069125H40409868H37814701H33984394H28711205H22133941H14799061
654H07342441H00134991G93270409G86837774G81185175G76962340G74894158
647G75525616G79144834G85706438G94650379H04933131H15390296H25088506
640H33441883H40182649H45315024H49089179H51974140H54466975H56654556
633H57854827H56774155H52029088H42479054H27142165H05136724G76365685
626G42727170G08376884F78399684F56994646F46130699F45066089F51076949
619F60921061F71917055F82167548F90451588F96369553G00539181G04266219
612G08707839G14114882G19716883G24400847G27683489G30138175G32963504
605G37113991G42636617G48694259G54252558G58814981G62615773G66290942
598G70390631G75041532G79938122G84584471G88482307G91196872G92487227
591G92451020G91432590G89735451G87462070G84598325G81113429G76885977
584G71625370G64976092G56700819G46878459G36132839G25628759G16539451
577G09304226G03317259F97329757F90363044F82518782F74993495F69354683
570F66800208F67770116F71824696F77838433F84569563F91251301F97706155
563G03976893G09994245G15633593G20882286G25768235G30250881G34335377
556G38195935G42102271G46292177G50849781G55520225G59626673G62299943
549G63016599G62243524G61646534G63269182G68086464G75303752G83087780
542G89871179G95051072G98865049H01943831H04935541H08255997H11890876
535H15255571H17152956H15793197H08864030G93762390G68094629G30461567
528F81445338F24273501E64401824E08150302D61380750D28609744D12128401
521D11164617D22092881D40371485D63001524D89320687E19505394E52454192
514E85152984F13946242F36398556F52380355F64032235F74762663F87530018
507G03227174G20413127G36658351G50206009G60563787G68015253G72917666
500G75320283G74996891G71782247G65799430G57288640G46442429G33619524
493G19534574G04901492F89843422F73866977F56497846F37727729F17715579
486E96432549E74035717E51482310E30528260E13268421E01708264D97159193
479D99377125E06324597E15295376E24642454E34503498E45938434E59536556
472E74900416E91178902F07690831F24025469F39927959F55271139F69938287
465F83661496F96149631G07365481G17484864G26667669G35053840G42783790
458G49720988G55315829G59019845G60752387G60891797G60085458G59167419
451G58954925G59916601G62124059G65472959G69700010G74176231G77794111
444G78607008G73325252G58861830G36943728G16853942G10262088G21577994
437G44589016G68779829G87255734G98783197H05162624H08595518H10681235
430H12263594H13583464H14664337H15636989H16698654H17883800H19056096
423H20062344H20750891H20969007H20706318H20129138H19435639H18801973
416H18384214H18171787H17885674H17135153H15680090H13593637H11215849
409H08848637H06447893H03710640H00496130G97097704G94123997G92217377
402G91890237G93356477G96185219G99210995H01131268H01156366G98989132
395G94700106G89061629G83517251G79259480G76576572G75340629G75658734
388G77626057G80777321G84313281G87874944G91755513G96250272H01029740
381H05308392H08494592H10575557H12017235H13442448H15310117H17668495
374H20070176H21797833H22323478H21671407H20398989H19236866H18650049
367H18673339H19233854H20555866H22978160H26394053H30177578H33661471
360H36485662H38619098H40241412H41469859H42183704H42332952H42238518
353H42182500H41822632H40381357H37395068H33128195H28302146H23450799
346H18509100H13029039H06615345G98930236G89515863G78036119G64605918
339G49549923G32953465G14777661F95404464F75892995F57783851F42791704
332F32556872F28373324F30851635F39696056F53843248F71756162F91445724
325G10610242G27492345G41606073G53196916G62310116G68979539G73968288
318G78513176G83336414G88411499G93630744G99133895H04824107H10048305
311H14150470H17172164H19718206H22210036H24490847H26154254H27061853
304H27463683H27802669H28514105H29746902H31137849H32163240H32720408
297H32911954H32329955H30048476H25218143H17270413H05781701G90688159
290G72857365G54466524G38475958G27011072G19790169G14171837G06890499
283F96095888F82409021F68496811F57506973F51516058F51000384F55212243
276F62594974F70886779F77571528F80974773F80828136F77414718F70524034
269F59763355F45791378F31048535F19400135F14911599F20262692F35408838
262F56894189F78416684F93467057F99334760F99044698F98423681G00906745
255G05565877G09760335G12620332G15870515G22299400G33735174G49659281
248G67327443G83491551G96179129H05179758H11447417H16112038H19661117
241H21901369H22664673H22119016H20232942H16654215H11519632H05717116
234G99945855G94080227G87801458G81416140G75764746G71547131G68811552
227G67033834G65817968G65417878G66246235G67992029G69609123G70168299
220G69444415G67702570G65332412G62982734G61722831G62469001G65316416
213G69578604G74019019G77505923G80596685G86410913G96372883H06052822
206H12659936H17427691H21870114H26341315H30390340H33452524H35439725
199H36950805H38525199H39933212H40818190H41556262H42734849H44175924
192H45129703H45185922H44499718H43214315H41126523H38132069H34609962
185H30809505H26019529H19258751H11063992H03689291G98977419G96521863
178G94318956G91016102G87317508G85438997G87308472G92770262G99283009
171H03860825H05174471H03249847G98128516G90187678G81356308G74645925
164G71968171G72638111G74302723G75492219G77069423G81005877G88172636
157G97666183H07686848H16601208H23605133H28855968H32931296H36136369
150H38433643H39950145H41204895H42526505H43407400H42895943H40643845
143H37229289H33281458H28511963H21809009H12304687H00498004G88015089
136G75946186G64110925G52421833G42258613G35720969G33940640G36923717
129G44634660G56979705G72268673G86730423G96957826H02911463H07221437
122H11587696H15552594H18674611H21681379H24868516H27217324H28049363
115H28345314H29699719H32774753H37118190H41894713H46484174H50473969
108H53388645H54953268H55358913H54684689H52776061H50297214H48869391
101H49126458H49807441H49555327H48355256H46795118H44884616H42323582
94H39403417H36563498H33340421H29219316H25387670H23675340H24017940
87H24629921H24504968H24548739H25892903H28454874H31593489H34732171
80H37003343H37714846H37552882H37976129H39127008H39491895H37825476
73H34755127H32042302H30965913H31831482H34301093H37670607H41056584
66H43958010H46553377H48873473H50373578H51210099H53066860H57112003
59H61439311H63385217H63075144H62321946H61966563H61381887H60131822
52H58795823H57983327H57537124H57234145H57455540H58328872H59021166
45H58737797H57953411H57330654H55994387H52983803H49580826H47899349
38H47911061H47711083H46024452H43062458H39716837H38042989H40281300
31H44265205H45615126H42279343H34675684H23955497H09647680G90841623
24G70494904G55801787G52914885G62342777G79616470G99083834H17336737
17H33878582H47084645H54125312H55778011H55276191H52865878H45372380
10H32291004H20366395H18725676H27653288H39174058H46910433H47307109
3H35866519H12603784G94032575
##END=


$$ === CHEMSPECTRA PEAK TABLE EDIT ===
##TITLE=X7742
##JCAMP-DX=5.00
##DATA TYPE=INFRAREDPEAKTABLE
##DATA CLASS=PEAKTABLE
##$CSTHRESHOLD=0.93
##MAXX=3997.453
##MAXY=0.9562638375197523
##MINX=373.96442
##MINY=0.2972612072169149
##$CSSOLVENTNAME=- - -
##$CSSOLVENTVALUE=0
##$CSSOLVENTX=0
##NPOINTS=39
##PEAKTABLE= (XY..XY)
383.88014324472215, 0.7291489816614075
403.71158973416686, 0.6705385427236384
473.1216524472243, 0.7400500155552613
494.3696308287722, 0.7342959619016167
558.1135659734164, 0.653640267971664
604.8591184128222, 0.687507210607707
620.4409692259574, 0.6995041948821297
678.5187768021888, 0.678382812232573
691.267563831118, 0.6816735845098078
736.5965843784202, 0.622009215904158
747.9288395152462, 0.5476341824445699
766.3437541125877, 0.5797744970865983
841.4199443940574, 0.5596230614584924
893.8316244018761, 0.7290816290039148
924.9953260281468, 0.6905106883151728
941.9937087333851, 0.7052496053588536
994.4053887412038, 0.6325523839781287
1052.4831963174352, 0.4427650554097893
1110.5610038936666, 0.3661791373704917
1179.971066606724, 0.5938456639227407
1252.2141931039873, 0.5744894727091189
1290.460554190774, 0.6901130656626357
1351.3714255512118, 0.6720269307411822
1376.8689996090693, 0.7203913309612239
1415.115360695856, 0.4382351027085631
1433.5302752931975, 0.5778363334602614
1460.4443812431587, 0.5420648443023862
1493.0246147615321, 0.6456610544695972
1568.1008050430023, 0.5475608093980012
1589.3487834245502, 0.5515041339627178
1613.4298255903045, 0.2972612072169149
1715.4201218217354, 0.3258108487090743
2324.528835426114, 0.8873503184589407
2338.6941543471457, 0.8834164118845317
2362.7751965129005, 0.8770464038529746
2859.9778906411257, 0.7319309090508765
2869.893613885848, 0.7240427708547962
2927.97142146208, 0.6417624339655401
2953.4689955199374, 0.6501984578476
##END=


$$ === CHEMSPECTRA PEAK TABLE AUTO ===
##TITLE=X7742
##JCAMP-DX=5.00
##DATA TYPE=INFRAREDPEAKTABLE
##DATA CLASS=PEAKTABLE
##$CSTHRESHOLD=0.93
##MAXX=3997.453
##MAXY=0.9562638375197523
##MINX=373.96442
##MINY=0.2972612072169149
##NPOINTS=49
##PEAKTABLE= (XY..XY)
2953.4689955199374, 0.6501984578476
2927.97142146208, 0.6417624339655401
2869.893613885848, 0.7240427708547962
2859.9778906411257, 0.7319309090508765
2362.7751965129005, 0.8770464038529746
2338.6941543471457, 0.8834164118845317
2324.528835426114, 0.8873503184589407
1715.4201218217354, 0.3258108487090743
1654.5092504612976, 0.8161582326425901
1613.4298255903045, 0.2972612072169149
1589.3487834245502, 0.5515041339627178
1568.1008050430023, 0.5475608093980012
1518.52218881939, 0.7995604848480904
1493.0246147615321, 0.6456610544695972
1460.4443812431587, 0.5420648443023862
1433.5302752931975, 0.5778363334602614
1415.115360695856, 0.4382351027085631
1376.8689996090693, 0.7203913309612239
1351.3714255512118, 0.6720269307411822
1290.460554190774, 0.6901130656626357
1252.2141931039873, 0.5744894727091189
1179.971066606724, 0.5938456639227407
1147.39083308835, 0.6783148628797133
1110.5610038936666, 0.3661791373704917
1052.4831963174352, 0.4427650554097893
1011.4037714464421, 0.6759177425512425
994.4053887412038, 0.6325523839781287
941.9937087333851, 0.7052496053588536
924.9953260281468, 0.6905106883151728
893.8316244018761, 0.7290816290039148
841.4199443940574, 0.5596230614584924
766.3437541125877, 0.5797744970865983
747.9288395152462, 0.5476341824445699
736.5965843784202, 0.622009215904158
691.267563831118, 0.6816735845098078
678.5187768021888, 0.678382812232573
620.4409692259574, 0.6995041948821297
604.8591184128222, 0.687507210607707
558.1135659734164, 0.653640267971664
517.0341411024233, 0.755994675817629
498.61922650508177, 0.733557103418134
494.3696308287722, 0.7342959619016167
483.03737569194664, 0.7459163049356682
473.1216524472243, 0.7400500155552613
441.95795082095356, 0.7634442429189645
427.7926318999216, 0.7551307660158448
419.29344054730245, 0.7463527893778089
403.71158973416686, 0.6705385427236384
383.88014324472215, 0.7291489816614075
##END=

##END=

