##TITLE=CML-34
##JCAMP-DX=4.24
##DATA TYPE=INFRARED SPECTRUM
##DATE=7/12/2020
##SAMPLING PROCEDURE=Diamant-ATR
##ORIGIN=Angelika Moesle
##XUNITS=1/CM
##YUNITS=TRANSMITTANCE
##RESOLUTION=4
##FIRSTX=3997.453
##LASTX=373.96442
##DELTAX=-1.4165319
##MAXY=0.90106112
##MINY=0.46179226
##XFACTOR=1
##YFACTOR=8.3917856e-010
##NPOINTS=2559
##FIRSTY=0.84230459
##XYDATA=(X++(Y..Y))
3997+1003725103+1004307527+1004610885+1004347516+1003748116+1003299649
3989+1003345462+1003805648+1004255038+1004431257+1004530482+1004811112
3980+1005133789+1005157938+1004811893+1004396667+1004333595+1004746903
3972+1005179886+1004982358+1004160643+1003446108+1003360591+1003688737
3963+1003995859+1004106946+1003969579+1003587736+1003230255+1003264206
3955+1003673608+1004041246+1004055664+1003787323+1003483681+1003296524
3946+1003214558+1003115049+1002890034+1002628583+1002566505+1002727808
3938+1002868939+1002789744+1002475945+1001997788+1001507700+1001276932
3929+1001458478+1001859995+1002109941+1001992461+1001666304+1001419271
3921+1001236659+1000993248+1000929466+1001360176+1001939404+1001982518
3912+1001353428+1000497833+999900279+999714685+999768168+999817248+999836639
3903+1000008383+1000331913+1000606007+1000858652+1001293907+1001889756
3894+1002417773+1002719782+1002845571+1002978463+1003269747+1003760759
3886+1004298720+1004565144+1004368398+1003700172+1002786050+1002185443
3877+1002182815+1002454068+1002655857+1002919084+1003504563+1004228332
3869+1004735680+1004969929+1004980015+1004877522+1004987472+1005404900
3860+1005794201+1006069503+1006570246+1007449565+1008097335+1007573153
3852+1006528269+1006197211+1006361355+1006389624+1006035126+1005418751
3843+1004777160+1004334447+1004267184+1004559035+1005018582+1005608110
3835+1006344308+1006938026+1007115737+1007093079+1007181792+1007248700
3826+1007135056+1007135979+1007447789+1007626778+1007353252+1007227534
3818+1007490619+1007481030+1007039027+1006935753+1007335779+1007510080
3809+1006879926+1005676580+1004786678+1004743920+1005272079+1005983418
3801+1006691064+1007224337+1007355596+1006921335+1006084632+1005398863
3792+1005394459+1006167663+1007268801+1008051238+1008287404+1008296424
3784+1008485570+1008910740+1009288535+1009271914+1008816274+1008266309
3775+1007899879+1007636367+1007209706+1006590773+1006295157+1006827578
3767+1007809177+1008382936+1008313542+1008144852+1008298910+1008492460
3758+1008172482+1007438272+1007008698+1007348422+1008042004+1007846963
3750+1006444102+1005529411+1006264616+1007983620+1008842412+1008098400
3741+1007119075+1006854214+1007168581+1007640132+1008141301+1008732888
3733+1009092428+1008848094+1008163603+1007502836+1007275832+1007693615
3724+1008544026+1009206072+1009313536+1009235335+1009478959+1009884241
3716+1009881684+1009251458+1008370506+1007955351+1008367736+1009134618
3707+1009613556+1009578042+1009152091+1008676350+1008591614+1009092783
3699+1009918263+1010688413+1011195051+1011347618+1011048948+1010241012
3690+1009186113+1008595734+1008836161+1009393797+1009763353+1009967059
3682+1010299112+1010964283+1011881460+1012657718+1012735422+1012154134
3673+1011756239+1011776126+1011679387+1011143272+1010503742+1010096116
3665+1009974020+1010148818+1010534071+1010904905+1011099591+1011107759
3656+1011020608+1010999868+1011119762+1011285398+1011285966+1010801560
3648+1009699499+1008489903+1007762938+1007589063+1007730905+1008021051
3639+1008458012+1008975091+1009321705+1009324475+1009216300+1009515609
3631+1010464748+1011571212+1011991197+1011868391+1011882099+1012120112
3622+1012281344+1012091275+1011657653+1011598629+1012260391+1013100574
3614+1013289719+1012549685+1011237597+1009802489+1008747093+1008671023
3605+1009554745+1010652828+1011327517+1011577250+1011837068+1012366009
3597+1013002059+1013383618+1013279278+1012882520+1012645501+1012685064
3588+1012506288+1011640677+1010573988+1010038229+1009975227+1009870959
3580+1009469441+1009027722+1008969764+1009421782+1010133689+1010821305
3571+1011475681+1012205842+1012846864+1013005610+1012698133+1012393212
3563+1012284185+1012270832+1012294413+1012385825+1012583636+1012862703
3554+1013048511+1012974784+1012809290+1012796079+1012699908+1012124089
3546+1011354153+1011159183+1011628531+1012076572+1011946805+1011232270
3537+1010324824+1009737215+1009740269+1010211180+1010889989+1011561482
3529+1011967119+1011945953+1011712202+1011581511+1011507785+1011295768
3520+1011069475+1011132973+1011546779+1012087013+1012484411+1012590952
3512+1012403866+1011972162+1011340586+1010679961+1010320562+1010450045
3503+1010858808+1011138727+1011107048+1010887574+1010687632+1010608934
3495+1010609360+1010644731+1010768177+1010942762+1010914351+1010553745
3486+1010209760+1010415597+1011305712+1012474396+1013286878+1013341569
3478+1012760566+1012084456+1011784650+1011839412+1011892682+1011768171
3469+1011562405+1011339592+1011074944+1010883312+1011007255+1011514888
3461+1012213797+1012862490+1013284392+1013348743+1013094678+1012821862
3452+1012840471+1013173803+1013581358+1013774978+1013635055+1013337663
3444+1013201788+1013379427+1013771001+1014119674+1014137005+1013765177
3435+1013353502+1013262374+1013330844+1013121740+1012640458+1012394988
3427+1012743945+1013490869+1014213501+1014787758+1015340351+1015777240
3418+1015780507+1015317622+1014749900+1014440576+1014522186+1014881159
3410+1015180610+1015158094+1014986350+1015039834+1015332964+1015495688
3401+1015267192+1014818726+1014539801+1014568283+1014704727+1014867948
3393+1015241054+1015821987+1016304760+1016534179+1016592421+1016529491
3384+1016467413+1016728154+1017384376+1017916016+1017677932+1016654925
3376+1015597541+1015357610+1016112205+1017350212+1018509024+1019338197
3367+1019773879+1019870760+1019791139+1019604834+1019269230+1018910683
3359+1018841219+1019199339+1019795897+1020346075+1020694820+1020822598
3350+1020810026+1020884250+1021325472+1022165370+1023110248+1023872797
3342+1024371125+1024577957+1024532855+1024545995+1025015983+1025948856
3333+1026900694+1027437732+1027485391+1027242407+1026942742+1026770146
3325+1026809566+1026892952+1026660124+1025910573+1024624906+1022521076
3316+1018964025+1013436391+1005833479+996380092+985588193+974199736+962878542
3306+951852822+940798903+929099985+916450224+903398022+891273153+881517047
3296+874955751+871530670+870631250+871635009+874092911+877568564+881627068
3286+886055411+890804869+895577624+899778680+903127123+906016304+908980631
3276+912079413+915063699+917790937+920135621+921814211+922676128+922991490
3267+923190082+923385265+923310260+922734655+921798514+920853779+920058130
3257+919228105+918056863+916453420+914704513+913220610+912075435+910978702
3247+909795528+908834954+908452471+908583020+908861447+909059116+909234625
3237+909566962+910223752+911368074+913103272+915333603+917774245+920215101
3227+922735578+925551600+928667003+931803500+934673574+937187872+939374520
3217+941287287+943078171+945018213+947336475+950058528+952968661+955704352
3207+957996405+959852492+961467512+963011079+964560754+966136994+967718844
3197+969266246+970714494+971941066+972891838+973789482+974980824+976486533
3187+977918090+978921778+979485664+979808199+980086200+980458242+980966301
3177+981469458+981551779+980539568+977804659+973179357+966959988+959598001
3167+951729305+944445590+939089559+936654243+937438883+940972423+946011602
3157+950988347+954922766+957801080+959963295+961537261+962662122+963766384
3148+965252135+967152543+969271076+971376896+973153716+974283620+974799420
3138+975199233+976028975+977358963+978776669+979906572+980770904+981584523
3128+982460432+983413193+984385913+985159046+985462688+985261041+984804051
3118+984429169+984402178+984856683+985727478+986689331+987263374+987185386
3108+986729177+986490099+986778044+987332484+987645785+987496415+987174945
3098+987157898+987510478+987758932+987486755+986843744+986232625+985767609
3088+985326174+984911729+984662352+984574704+984398059+983764495+982436212
3078+980524794+978407611+976338725+974273463+972142784+970074964+968252473
3068+966822408+966044658+966200421+967177473+968357096+969023901+968797182
3058+967802514+966612380+965862615+965768504+966144949+966847835+967889452
3048+969190034+970558163+971887653+973153929+974336464+975460330+976531991
3038+977437945+978159654+978984140+980187059+981591697+982734030+983412057
3029+983871391+984491815+985449335+986615746+987648271+988199728+988207470
3019+988022443+988131257+988680441+989418842+990161717+991079106+992315906
3009+993561655+994344590+994644041+994884042+995348277+995899023+996294149
2999+996521223+996697797+996801568+996678407+996312119+995929849+995812228
2989+996095343+996704332+997346561+997673997+997583295+997238245+996779692
2979+996236972+995715702+995403466+995391675+995649717+996067713+996394226
2969+996302743+995667758+994640419+993364909+991796128+989921218+987981461
2959+986225948+984504245+982372998+979756776+977332114+976023435+976118967
2949+977024637+977838823+977988407+977427575+976564024+975980961+975945092
2939+976188218+976264289+975912348+975022943+973610848+971981196+970665414
2929+970086825+970401619+971584509+973449119+975599544+977598822+979287782
2919+980790863+982164461+983274477+984106136+984904839+985883525+987010161
2910+988121243+989050352+989653516+989852393+989674469+989250081+988736340
2900+988155762+987408909+986575119+986033819+986095897+986678535+987453656
2890+988142125+988644359+989076277+989666230+990465998+991228619+991655209
2880+991600021+990954595+989640873+987956033+986671787+986465168+987354857
2870+988831516+990360167+991614511+992448372+992871553+992994146+992931429
2860+992793778+992699809+992647959+992400357+991654712+990368548+988760276
2850+986944532+984746377+981964377+978612951+974777402+970457872+965773902
2840+961202864+957394235+954717071+953026194+951850336+950799202+949790968
2830+948859018+947787925+946071833+943278682+939436172+935149955+931394951
2820+929070225+928620338+930022489+932982696+937022449+941568627+946174681
2810+950600183+954670051+958258851+961427879+964331975+966923053+968961255
2800+970419447+971712003+973362608+975510688+977846921+979931574+981464131
2791+982443457+983206646+984110256+985107764+985896807+986427879+986914274
2781+987406068+987715250+987733575+987585554+987475817+987481499+987466512
2771+987198384+986594580+985849432+985315590+985247830+985616604+986171683
2761+986693806+987116631+987449608+987762341+988200722+988801472+989372674
2751+989778240+990191832+990819359+991580631+992301913+992985055+993666207
2741+994252538+994653559+994866072+994888304+994755270+994624721+994661372
2731+994906061+995350692+995988518+996728765+997422703+998005624+998486337
2721+998822013+998954479+998942759+998915982+998930330+998969679+999008104
2711+998988643+998878337+998825351+999086164+999698348+1000382555+1000868169
2701+1001194256+1001571553+1002021512+1002334742+1002424947+1002495761
2693+1002709980+1002933219+1002994942+1002975977+1003055457+1003272872
2684+1003562806+1003865240+1004112841+1004214979+1004127686+1003932432
2676+1003778089+1003700172+1003568985+1003289705+1002960351+1002740948
2667+1002679296+1002729512+1002853668+1003056736+1003369256+1003801742
2659+1004299004+1004749744+1005073629+1005303118+1005558035+1005894563
2650+1006221573+1006449145+1006637793+1006867283+1007067793+1007164532
2642+1007230091+1007300195+1007239963+1006994635+1006717770+1006467967
2633+1006107361+1005683825+1005534383+1005805850+1006223633+1006515200
2625+1006730413+1006992433+1007215956+1007257507+1007211623+1007384930
2616+1007923034+1008540475+1008795108+1008644103+1008484576+1008604328
2608+1008901862+1009193500+1009496787+1009912368+1010449832+1011023165
2599+1011493295+1011725129+1011688194+1011490525+1011322119+1011374680
2591+1011742814+1012301019+1012692734+1012572130+1011983526+1011399397
2582+1011216360+1011362108+1011576681+1011834227+1012248245+1012790468
2574+1013319267+1013710202+1013878536+1013788758+1013489804+1013140633
2565+1012982100+1013152850+1013533414+1013891534+1014110015+1014208530
2557+1014308678+1014559192+1014904598+1015071654+1014925693+1014620346
2548+1014373881+1014332330+1014533906+1014819862+1014987345+1015096372
2540+1015408182+1016067458+1016938182+1017584744+1017495960+1016654854
2531+1015713102+1015278273+1015305263+1015465359+1015703727+1016111424
2523+1016615931+1017096857+1017545040+1017946771+1018262346+1018531965
2514+1018744763+1018684248+1018213550+1017604703+1017299925+1017432249
2506+1017809191+1018272787+1018853648+1019563212+1020189673+1020434931
2497+1020254237+1019978438+1019998396+1020320577+1020570025+1020495588
2489+1020258357+1020089596+1019976733+1019848955+1019718407+1019505253
2480+1019097130+1018626219+1018357238+1018363489+1018534878+1018731552
2472+1018834400+1018831559+1018844983+1018926949+1018964664+1018844841
2463+1018500855+1017846622+1016958922+1016288921+1016373870+1017257379
2455+1018367182+1019022978+1018978728+1018518683+1018142522+1018154384
2446+1018533102+1019174621+1020023895+1020802710+1020973886+1020293089
2438+1019078308+1017767072+1016643348+1016058437+1016330614+1017263417
2429+1018210354+1018742988+1018967221+1019126109+1019169365+1018881349
2421+1018320091+1017924326+1018111270+1018830422+1019596453+1019979361
2412+1020004647+1019999746+1020138320+1020306229+1020354670+1020272491
2404+1020110620+1019917354+1019808185+1019940722+1020300334+1020599714
2395+1020568036+1020278457+1020050175+1020098119+1020356161+1020527337
2387+1020347212+1019937242+1019732683+1019946831+1020393806+1020881480
2378+1021370006+1021734945+1021891986+1022146761+1022847233+1023740758
2370+1024281560+1024483207+1024857024+1025517294+1025904464+1025586262
2361+1024935296+1024668020+1024956675+1025361389+1025431706+1024970952
2353+1023991839+1022841480+1022102511+1022104003+1022608510+1022922664
2344+1022501259+1021576483+1020717336+1020148761+1020012744+1020478684
2336+1021261831+1021746877+1021723012+1021520797+1021454458+1021449699
2327+1021199753+1020600424+1020014733+1019951518+1020448000+1021120629
2319+1021807748+1022593523+1023354582+1023853904+1024043618+1023963073
2310+1023664119+1023358275+1023259760+1023261110+1023092136+1022713844
2302+1022319855+1022108193+1022211751+1022666824+1023317008+1023894532
2293+1024271403+1024475465+1024440093+1024038007+1023488823+1023355576
2285+1023833590+1024378583+1024426456+1024183045+1024244199+1024663900
2276+1024948933+1024915621+1025018611+1025652885+1026500313+1026922926
2268+1026841741+1026776538+1026975841+1027026128+1026602663+1026126709
2259+1026255197+1027037635+1027932793+1028407114+1028253694+1027532340
2251+1026548967+1025932520+1026411173+1028073001+1029895847+1030614857
2242+1030173280+1029731774+1030250203+1031536792+1032537284+1032265178
2234+1030801162+1029417265+1029280821+1030392613+1032235844+1034596367
2225+1036966480+1038049292+1036950072+1034402037+1032021838+1030667702
2217+1030119512+1030050119+1030576431+1031746323+1033019773+1033646234
2208+1033430666+1032919837+1032894054+1033703909+1034931972+1035652757
2200+1035296058+1034278449+1033391175+1032712295+1031823956+1030916155
2191+1030722322+1031394738+1032317241+1033005638+1033617113+1034616468
2183+1036117276+1037522766+1038090204+1037899211+1037743164+1038096809
2174+1038730018+1039159876+1038891961+1037347328+1034320071+1030739581
2166+1028386303+1028458466+1030719552+1034249328+1038324168+1041997703
2157+1043873394+1043273994+1040960420+1038542506+1037481499+1038143971
2149+1039720708+1041263920+1042407531+1042920136+1042365554+1040716796
2140+1038803532+1037634492+1037504370+1038047729+1038834073+1039408188
2132+1039143397+1037797500+1035873795+1033814143+1031286350+1027901541
2123+1024218985+1021459714+1020497648+1021382791+1023441661+1025579514
2115+1026856870+1027148651+1027191338+1027738249+1028710827+1029413500
2106+1029485096+1029283449+1029382390+1029995712+1030820908+1031266107
2098+1031079589+1030891296+1031710596+1033699150+1035848793+1036987149
2089+1036808515+1035916624+1035134471+1034921389+1035329370+1036292430
2081+1037734570+1039370756+1040704934+1041454273+1041743283+1041763881
2072+1041592066+1041377421+1041217113+1040887475+1040318190+1040140054
2064+1040966528+1042203257+1042512794+1041615434+1040805651+1041167891
2055+1041870564+1041173360+1038909220+1036820803+1036533497+1038117265
2047+1040468342+1042290052+1042726515+1041817791+1040466992+1039543779
2038+1039327713+1040024279+1041906291+1044595316+1047294285+1049975923
2030+1052949413+1055266965+1055367185+1053253055+1050549754+1048779112
2021+1048651050+1049960582+1051404710+1051854313+1051933367+1052635188
2013+1053068810+1051718580+1049328225+1048548557+1050521201+1053160933
2004+1053873408+1052877107+1052214777+1052473956+1052392559+1051376796
1996+1050398962+1050230130+1050472050+1050384402+1049598555+1048173817
1987+1046475908+1044670108+1042414350+1039740525+1037949854+1038758145
1979+1042568834+1047950294+1052846139+1056101750+1057636296+1057791278
1970+1057095352+1056172990+1055277193+1053973273+1051614099+1048062730
1962+1043936466+1040328347+1038150151+1037640458+1038482985+1040040899
1953+1041576440+1042751730+1043761242+1044726220+1045363619+1045421933
1945+1045063173+1044824379+1045388408+1046955485+1048796230+1049864197
1936+1049677680+1048439886+1046671801+1045052093+1044309573+1044718478
1928+1045856975+1047211609+1048684930+1050095676+1050728032+1050120961
1919+1048800136+1047682521+1047184477+1047091502+1046998811+1046637992
1911+1046123186+1045981913+1046580886+1047599490+1048382922+1048631731
1902+1048567167+1048532931+1048670227+1049079345+1049960155+1051217695
1894+1052236512+1052487167+1052013912+1051182536+1050381135+1049857876
1885+1049514530+1049001783+1048177724+1047345425+1046909246+1046844043
1877+1046607237+1045709025+1044374279+1043357167+1043116882+1043432314
1868+1043756625+1043867357+1043999823+1044357019+1044914158+1045613707
1860+1046463336+1047394718+1048208407+1048732447+1048912715+1048807594
1851+1048596785+1048409628+1048108543+1047449906+1046376399+1045002303
1843+1043568758+1042529627+1042387573+1043284648+1044671387+1045640839
1834+1045888725+1045905487+1046198333+1046791767+1047419720+1047924582
1826+1048319707+1048719307+1049269556+1049883233+1050246396+1050255700
1817+1050219050+1050461893+1050978333+1051556851+1051940469+1051924133
1809+1051592933+1051290285+1051232611+1051411742+1051823203+1052489298
1800+1053194316+1053530417+1053371529+1052943944+1052414364+1051690808
1792+1050702604+1049764404+1049296405+1049379081+1049816822+1050346899
1783+1050867814+1051467356+1052150000+1052744712+1053122649+1053285799
1775+1053235583+1052914681+1052333109+1051742161+1051443491+1051426800
1766+1051441005+1051335316+1051139707+1050849418+1050416790+1049960866
1758+1049664397+1049552671+1049539460+1049582787+1049668943+1049683646
1749+1049449824+1048944251+1048225809+1047210189+1045796247+1044038888
1741+1042023557+1039841383+1037794801+1036232341+1035336615+1035194205
1732+1035572426+1036000010+1036345843+1036761779+1037394349+1038237870
1724+1039085226+1039634481+1039771492+1039636256+1039388513+1039023574
1715+1038538955+1038138005+1038018963+1038237514+1038725614+1039338439
1707+1039923704+1040358534+1040581347+1040646621+1040732777+1041041959
1698+1041506194+1041815447+1041785758+1041566851+1041498594+1041674387
1690+1041861118+1041808913+1041594126+1041464146+1041377918+1040912050
1681+1039970795+1038880951+1037888415+1036974009+1035933245+1034821169
1673+1034051730+1033766200+1033607666+1033111043+1032244935+1031185207
1664+1029767714+1027635472+1024749488+1021379595+1017723461+1014094246
1656+1010928415+1008353957+1006244586+1004879866+1004299146+1004071504
1647+1003961340+1003905157+1003742434+1003384385+1003127621+1003547393
1639+1005254038+1008963158+1015190767+1022283063+1027517567+1030858410
1630+1033411773+1035615610+1037362031+1038650752+1039761975+1040794002
1622+1041449372+1041374722+1039907865+1034916275+1023567664+1007378396
1613+992161208+982979145+983195210+992489710+1005644476+1017046641+1024883872
1604+1030094085+1033962803+1037209038+1040080675+1042677648+1045038385
1595+1046983754+1048169769+1048418933+1047878343+1046819254+1045331018
1587+1043233864+1040267121+1036245694+1031220081+1025668653+1020123476
1578+1014703519+1010039791+1008062318+1009042780+1010617670+1010037518
1570+1004731490+993867001+978822482+961792462+946626770+937395698+935820737
1560+942157089+952586392+959863004+964935210+971151455+979383030+989185943
1550+999557075+1009106634+1017203114+1024464739+1031402267+1037731800
1541+1043535801+1048958314+1052652164+1054222650+1054631270+1054675662
1533+1054952527+1055871692+1057591691+1060222758+1063590023+1066983356
1524+1069860888+1072239878+1073741823+1073020895+1068660241+1060226096
1516+1049377944+1039084445+1030713585+1023831246+1016450437+1000094042
1507+955284367+881921690+815866166+769278960+737132257+719978650+721729830
1497+742149204+772709511+802301785+826973781+848301737+866777305+879889952
1487+887040419+891444684+895312337+897912152+897016710+891593557+883653550
1477+877026483+875326159+881342674+896104648+915731995+933371003+947019338
1468+958942276+971184340+983007414+990861691+992169234+985562908+965839815
1458+925050573+873402738+835556231+813097519+797184974+785474052+780890514
1448+785747721+797629250+811471703+823708795+832171777+835116785+831949745
1438+824594009+819792772+825068401+839421114+857473075+875502733+891007582
1428+902893301+912160810+920340038+927761688+933817836+938435539+942285506
1418+945768120+948759153+951249586+953331398+955076612+956662511+958217087
1408+959496929+959603896+956977020+950738970+942255106+934328807+929831851
1398+930552566+935883880+943577423+951410108+958053085+963538954+968719122
1388+974247893+980003454+985380936+990034791+993835963+996543242+997953064
1378+998039930+996562987+992552285+984683944+972698218+957713361+941286080
1368+925687333+913625963+906282656+903525871+905868780+913463026+923672997
1358+932141448+934848514+929107940+915328844+898228792+884810017+880381248
1349+885831675+898001931+912464594+925875343+936521422+943712943+946924232
1339+945567752+939399096+928484178+912976418+893649302+872523774+852693927
1329+837507495+829576295+829939742+837789615+850951058+866822834+883160549
1319+898310900+911239017+921622934+929584392+935112381+937929042+937809432
1309+934611851+928032586+917786107+904209296+888643649+873249674+860348760
1299+851709062+848277233+850249592+857006354+866996922+878011491+887892889
1289+895340393+900307053+903678935+906520527+909535568+912969741+916730569
1279+920560365+924196398+927471470+930412926+933277815+936349607+939615800
1269+942673671+944852861+945152384+942075762+934375685+923098457+912517581
1259+906829709+905008923+901071662+890877530+877408255+868208436+868170933
1249+875459549+883695527+887187019+884745951+880018440+878627511+884152446
1239+895967849+910468796+924051289+934996038+943245157+949277298+953514436
1230+956370304+958118288+958129084+953990319+941322446+915210086+874038646
1220+823988856+778903523+752656212+749922723+764264215+784559149+803118671
1210+819133922+835986586+855842145+876941037+895835454+911092772+923826416
1200+935303658+945305874+952676455+956346581+955476709+949254924+937176436
1190+919608740+898058539+875021523+853615579+837112014+828298583+828598674
1180+837338166+851912555+869003587+885927491+901198375+914334958+925418211
1170+934717540+942551504+949332202+955480615+961167138+966249075+970542750
1160+974103352+977225289+980220371+983208350+986100727+988700187+990683910
1150+991424015+989710054+983674503+971718040+954580486+936526323+923331924
1140+918325134+920554541+926625534+933384924+938672060+940767651+938022585
1130+928328486+908659161+877142187+837266073+798264661+768770049+750680870
1120+740576374+735150664+733031208+733232997+735055204+739436030+748613192
1111+764005959+784760866+808208066+831445380+852546475+870721029+885944751
1101+898652115+909465890+918942503+927438655+935035387+941632551+947266868
1091+952248728+956943069+961644441+966652652+972216936+978359738+984859950
1081+991434243+997920746+1004247296+1010250458+1015684407+1020402329+1024405148
1071+1027828027+1030944637+1033967704+1036840335+1039395971+1041540358
1062+1043102889+1043666491+1042519825+1038496054+1029825672+1014586395
1054+992322369+966344038+944043149+932921613+934832888+944002380+950382200
1044+944217166+918445596+870796815+807701215+745639205+703958569+692993648
1034+709028645+740298231+776209526+811530158+845061611+876724333+905998050
1024+931891645+952976190+966597890+967837744+950823990+915441636+874833300
1014+850707647+854805571+876366355+890977395+880021281+842137769+792289909
1004+752106957+735961726+742507750+759410772+774624622+782181010+781350842
994+775120748+769221144+769443956+778141613+793073057+809496076+823192355
984+831932415+835437189+835198821+834177093+835654959+841626869+851749406
975+863428933+872870033+876416003+872180712+862210174+852890531+850713329
965+856363556+864033447+866782277+861491732+848467231+827030319+793429188
955+746947671+699297683+672179717+679711318+715194957+758394584+792667420
945+812617658+820524425+821492812+821097829+823353942+829161069+837033103
935+845443809+854239767+863951907+874540881+885356431+895812370+905504978
925+914058093+921300328+927286870+931941364+934972386+936199313+935588264
915+932749656+926493210+915161504+897786860+875338873+851129763+829886400
905+815768148+810578960+813492715+822255504+834596651+848846872+863773771
895+878256322+891352917+902658272+912359687+920814785+928108869+933991782
885+938157822+940683626+942404690+944768197+948826772+954194665+959414466
875+963474320+966504063+969125470+971852850+974985938+978334879+981024046
866+981855776+979896415+975332197+970433155+968747604+972060889+978590222
856+984850787+988527377+989104119+986808586+981655266+972843114+958396289
846+935682305+903470754+864988694+829194878+807131362+804731063+818713582
836+839860845+859776848+874473476+883395507+887072097+885755676+879120157
826+866713949+849003558+828493767+810055985+799606723+801360460+815600737
816+838680796+864937980+889273732+909162035+924764759+937259041+947432220
806+955583889+961770302+965749752+966580844+962255348+951442141+937398610
796+928032799+928674958+935877062+941253265+940350792+935471922+931322148
786+930459165+932305948+934410560+934187108+929992870+920749937+905033782
776+880953018+846242227+798520785+737909154+670994839+610318360+568028274
766+550290822+556899564+583102768+620738501+660643168+696830050+728293327
756+756509162+782051172+803762818+820326045+831814296+839501233+844651072
747+847938006+849640390+849947157+849270479+848357707+847865984+847921528
737+848310900+848958101+850081257+851957729+854611524+857824945+861441374
727+865392271+869481601+873499761+877413582+881203674+884862578+888645211
717+892749670+896780544+900168123+903018096+905952592+909195986+912289796
707+914530852+914978395+911761850+902422745+886633290+868769410+856043081
697+852810839+857327043+864416071+870218155+873819100+875603024+875673554
687+873459205+866758696+851717301+827804872+803337080+790626235+793605336
677+804385231+812949427+815838181+814920010+812211098+807360994+798660070
667+787673202+778912047+772417162+765516214+756673307+745833962+733212328
657+718498227+701118611+681041447+659605458+639115838+621379097+607166805
647+596579323+589080395+583383716+577639591+570386454+562178957+555768666
637+553834520+557000387+564195389+573959770+584929911+595339363+602737254
628+605418821+604967939+606521734+614868728+630277690+649141493+668051749
618+685889136+702529286+717496741+730332949+740957862+749122600+753998771
608+754664795+751397323+746912655+745808321+751654158+764230406+779787672
598+793934619+804108153+809765128+810938571+806328682+792810966+768512006
588+737402445+709989787+697740976+705067591+727058445+754623102+780523445
578+801855875+818875667+832575994+843630054+852779089+860991700+868806273
568+875776970+880823891+883088598+882298845+878629855+872853554+866780075
558+862947225+863261877+867839235+875116486+882906555+889634338+895066014
548+899706872+903190409+903599953+898865268+889145670+878264703+872468941
538+876022369+887085166+898853052+905477348+906826726+907481669+911503239
528+918638009+925453156+929508251+931746323+934327955+937617587+940310519
518+941314278+940451792+937180201+930254677+920315178+911891972+910666323
509+917998550+929369534+938975205+944857194+948643095+952025489+955286995
499+958304877+960976074+962765679+962944953+961055198+956959334+951467356
489+947053644+946713352+951487954+959216797+966284944+970740988+972830897
479+973325531+973209686+974284969+977914752+982982768+986626827+987599547
469+986957246+985629460+983693467+981486647+979975966+980001607+981639569
459+984387121+987614036+990577298+992441269+992602288+991331893+990482547
449+992475788+997664196+1003287077+1006186059+1006254672+1005576716+1005146574
439+1004620474+1004335441+1005593620+1008963727+1013129624+1015903740
431+1016105600+1014460108+1011963283+1006089320+989359392+954115753+897125879
421+818603561+734643103+689685904+703779083+749500466+800313942+844961462
411+879199637+899708221+904192534+896908535+889087144+889921289+899869666
401+913680086+925961002+932410997+928188349+910176377+882083348+853183732
391+831914303+821307857+819764574+823652754+827248728+822722083+805046709
381+775982523+741925610+710769668+691778086+695748019+722153224
##END=
