##TITLE=X8126
##JCAMP-DX=5.0
##DATA TYPE=LINK
##BLOCKS=1


$$ === CHEMSPECTRA SPECTRUM ORIG ===
##TITLE=X8126
##JCAMP-DX=5.00
##DATA TYPE=INFRARED SPECTRUM
##DATA CLASS=XYDATA
##ORIGIN=ComPlat
##OWNER=
##XUNITS=1/CM
##YUNITS=TRANSMITTANCE
##XFACTOR=1
##YFACTOR=9.2426e-010
##FIRSTX=3997.453
##LASTX=373.96442
##MAXX=3997.453
##MAXY=0.99241661732598
##MINX=373.96442
##MINY=0.20795291562107998
##NPOINTS=2559
##XYDATA= (X++(Y..Y))
2559A057383596A057993856A058409037A058258713A057668380A057009689A056667703
2552A056937526A057791490A058725807A059148210A058988664A058656546A058392527
2545A058048865A057559200A057196578A057219472A057561651A057984505A058250716
2538A058150113A057648195A056990729A056536404A056565617A057149630A057977089
2531A058454179A058171652A057190387A055891062A054738514A054173977A054447668
2524A055338713A056175975A056474752A056496936A056876068A057635491A058178166
2517A058192289A057681213A056491132A054745801A053491489A053794910A055144472
2510A056030939A055752346A054871103A054331588A054219570A053802907A052815773
2503A052004630A052264778A053563072A055227728A056873681A058403491A059370504
2496A058909730A056559749A053022009A049954974A048654230A049174141A051031039
2489A053500324A055527860A056375117A056013269A055081015A054673509A055184455
2482A055679344A055212444A053811032A052195324A050864334A050263812A051220120
2475A053410620A055030649A054934689A053359544A051224506A049502842A049360321
2468A051252945A053584289A054545561A054067957A053445057A053509933A053877907
2461A053987539A053483750A051845664A048829447A046681510A048475660A052479011
2454A056008432A058168944A058809062A057917372A055710880A052854595A050291027
2447A049022011A049781305A052117485A054589480A056065440A056298568A055892803
2440A055672251A055973930A056520862A056605278A055542112A053448088A051744610
2433A051438996A051941559A053060767A055118419A057332843A058449729A057987407
2426A056240270A054361317A053808840A054223827A053750284A051972321A050903673
2419A052113487A054780367A057738351A060171264A061487615A061739702A061408938
2412A060838275A060114192A059328264A058709362A058341452A057916211A057184777
2405A056568197A056768758A057751184A058932236A059829150A060041254A059365538
2398A058205832A057290926A057035936A057627300A058791908A059466206A058698141
2391A056794489A055255135A055025619A055407007A054952295A052615470A049196712
2384A047340717A047368190A047250949A046253561A045585132A046295672A047363095
2377A047315889A045448286A042276264A039854700A039953368A041937503A044322566
2370A046284064A047342588A047375477A046943916A046942884A047763572A049201097
2363A050906381A052641781A054198160A055091204A054575614A052405558A050002761
2356A049679864A051509354A053678636A054803003A054419615A052996858A051869009
2349A052010369A052977640A053915891A054528150A054902187A055139700A055304018
2342A055509093A055817544A056106584A056313723A056475075A056468110A056029713
2335A055017945A053447894A051561203A050650747A052185779A054399559A054515188
2328A052721232A052258845A054872006A058339260A060346288A060434831A059416356
2321A058140827A056838084A055767436A055600087A056044288A055407717A052541565
2314A048251109A045482853A046281807A049054772A051923244A054223182A055711782
2307A056450311A056713362A056498871A055435898A053385018A050748899A047814389
2300A044420009A041467894A041560693A044596322A047676834A049322659A049625048
2293A049225797A048965841A049407269A050059447A050100849A049630079A049441319
2286A049759830A050270648A051233470A052868976A054137992A053900027A052356998
2279A050678348A049658905A049061995A048362482A047642978A047523350A048109685
2272A048495652A047814841A046673643A047117585A049725071A052583677A054071826
2265A054207059A054004628A054123353A054244592A053984959A053665932A053569198
2258A053183683A051884164A050013466A048910445A049321176A050550918A051941366
2251A053384502A054749412A055814384A056415035A056268323A055168269A053699595
2244A052977382A053145312A053193034A052489910A051650843A051738998A053103072
2237A055282801A057367861A058458887A058424385A058015331A057820961A057577773
2230A056790555A055439897A053939172A052751348A052208802A052569941A053910990
2223A055698627A056858849A056785976A056140183A056123545A056949263A057600731
2216A057222503A056205124A055583965A055648906A055740351A055354062A054833635
2209A054784043A055151115A055428611A055466595A055575968A055967288A056366346
2202A056273417A055519605A054491843A053756990A053450990A053161563A052443736
2195A051330655A050271873A049528444A048883166A048158116A047618665A047439450
2188A047110556A046002054A044234345A042431811A040874659A039354652A037684063
2181A035997546A034640503A033881015A033636860A033425852A032648178A031059813
2174A028992875A026951797A024993716A022737308A019992784A017047762A014267124
2167A011787714A009536981A007184357A004287186A000766987I97017788I93392020
2160I89864147I86322602I82898427I79831715I77132784I74484219I71473225I67978306
2152I64412900I61511861I59721709I58831954I58286506I57744991I57255777I56993178
2144I57035870I57405650I58122510I59141243I60326359I61524049I62649189I63727962
2136I64805445I65794965I66566512I67240358I68180028I69604591I71371010I73201145
2128I74909976I76365816I77466837I78365363I79519008I81143874I82768933I83795728
2120I84341369I84968139I85837193I86678968I87362552I88088505I89184561I90719916
2112I92190718I93035267I93633854I94991284I97180235I99019785I99631529I99474627
2104I99522542A000187231A001321851A002602603A003645649A004222439A004485941
2097A004717844A005009206A005417163A006046576A006761373A007286249A007727290
2090A008533790A009902763A011544009A012936844A013681176A013837433A013976988
2083A014656057A015795901A016768396A017162682A017270250A017646479A018444402
2076A019474227A020539522A021352406A021598690A021469325A021640995A022491025
2069A023720379A024718283A025068974A024875959A024652956A024748141A025116116
2062A025745916A026772130A028035341A029085222A029727147A030158321A030572534
2055A030977074A031416115A032082093A033012799A033807046A033985101A033651370
2048A033446166A033833229A034788828A036065775A037266626A037821490A037544574
2041A037160670A037615898A038849122A039866889A040039913A039717467A039503170
2034A039503235A039473505A039379093A039598679A040551762A042096533A043434165
2027A043894165A043811232A044133871A045018725A045454477A044728589A043617442
2020A043374964A044144189A045092178A045566946A045531800A045339171A045491623
2013A046235504A047192909A047763443A047909704A048137738A048691311A049258299
2006A049578100A049842957A050282901A050781724A051142798A051410170A051731519
1999A052074923A052178492A051828123A051272163A051184393A051985154A053336715
1992A054464242A054831442A054469852A053774983A053008853A052156050A051389985
1985A051248367A051943301A052900963A053395658A053323108A053047224A052775532
1978A052470950A052193067A052106458A052195130A052317208A052470950A052714074
1971A052977834A053160983A053189551A052974158A052584902A052240208A051874749
1964A051207223A050372799A049832768A049653617A049525864A049265006A048767151
1957A047925182A046924892A046061513A045256174A044383379A043759963A043632339
1950A043651815A043438679A043130550A042949013A042775860A042457284A042043910
1943A041586424A041032270A040417109A039947435A039819876A040030691A040427492
1936A040892135A041329307A041488853A041085538A040223062A039488144A039388638
1929A039773057A040035140A039894877A039631826A039382576A038723691A037350204
1922A035643694A034028373A032189339A029507949A026027153A022559512A019932809
1915A018291950A017090196A015730445A014208374A013018551A012426929A012110352
1908A011658155A011088717A010525792A009657447A007984214A005414842A002198451
1901I98528250I94550888I90433714I86164346I81677456I77305873I73695002I71239969
1893I69966761I69839976I70801701I72593207I74830783I77239449I79668493I81886916
1885I83520746I84339757I84511363I84358846I83995579I83464318I83057006I83155094
1877I83878274I85066613I86441068I87713373I88728752I89537768I90333434I91469731
1869I93352617I95889100I98266747I99816161A000841730A002082693A003674798
1862A005123996A005967061A006094556A005712717A005176748A004644713A003939268
1855A002891772A001581677A000132737I98577842I96954201I95293222I93540474
1848I91580200I89255951I86469895I83390994I80326088I77333603I74306939I71434339
1840I69235456I68230974I68748628I70749916I73641025I76499308I78623642I79786831
1832I80083029I79708928I78852642I77669333I76222457I74422825I72209884I69811278
1824I67591694I65663794I63841979I61857135I59482068I56669120I53609825I50393240
1816I46656422I41897260I36107949I29860895I23844970I18568928I14457300I11807381
1808I10409000I09501253I08447953I07335259I06712746I06915758I07791583I09037060
1800I10733187I13392908I17323322I22113633I27012543I31672457I36297998I41170726
1792I46167789I50758377I54544142I57760146I61016198I64574639I68160810I71410994
1784I74228520I76774999I79337922I82118368I84979618I87517777I89486950I91016373
1776I92334206I93485529I94425715I95188362I95848343I96432034I96887520I97049258
1768I96699470I95768893I94435453I93013792I91802301I90931698I90235604I89316764
1760I87819715I85669005I83110016I80494147I77918261I75132979I71938514I68598175
1752I65740085I63893764I63183159I63452465I64607915I66710387I69775487I73648054
1744I78019831I82448036I86580494I90483951I94471244I98548177A002360318
1737A005672540A008582350A011303401A013966153A016583570A019118828A021558320
1730A023868704A025912620A027520074A028646891A029477445A030409441A031785057
1723A033540642A035291842A036773994A038015215A039159960A040304189A041405017
1716A042263430A042690412A042696603A042507650A042463089A042821648A043531156
1709A044287871A044873882A045310086A045733135A046274327A046989252A047778340
1702A048437870A048821450A048914379A048801394A048609088A048425617A048249175
1695A048044938A047876944A047932856A048319984A048917668A049592288A050420198
1688A051418747A052232405A052451023A052145990A051789236A051718814A051846180
1681A051849211A051576616A051206449A050962487A050832090A050719879A050693180
1674A050830736A050955393A050771470A050269036A049819612A049772792A050046162
1667A050246658A050117229A049667805A048978675A048188555A047571782A047293834
1660A047167371A046948237A046739486A046807135A047139899A047471695A047592612
1653A047432163A047018143A046560207A046382733A046582068A046897871A047006729
1646A046766958A046165598A045265460A044233958A043257078A042470440A042031463
1639A042014825A042194105A042277167A042364033A042732072A043240375A043481564
1632A043460541A043576169A043953172A044287355A044356938A044267427A044149219
1625A043973873A043764800A043692250A043844573A044130775A044473728A044874979
1618A045259591A045468471A045432745A045242953A045069994A045042908A045162600
1611A045379992A045731651A046234859A046686605A046812552A046597610A046262848
1604A045971035A045717012A045428166A045066769A044670806A044314504A043982579
1597A043568818A043100305A042808556A042783406A042730267A042347718A041757707
1590A041191687A040475214A039320021A037990451A037129522A036933475A036948695
1583A036712923A036194108A035531355A034730530A033747974A032618578A031423338
1576A030300842A029417277A028715120A027790799A026265504A024280015A022463746
1569A021297139A020574217A019688976A018371852A016814248A015135727A013185127
1562A010898990A008493355A006198964A003940300A001373249I98322336I95055257
1555I91891037I88763706I85513200I82240897I78928095I75174445I70850132
1548I66543876I62771396I59075594I54489133I48750317I42551695I36683385
1541I31435524I26790894I22664434I18817018I14855584I10508571I05878967
1534I01463531H97902382H95571425H94358386H93819516H93482432H93064672
1527H92574168H92227152H92236568H92722235H93669385H94773502H95567750
1520H96009628H96609570H97640685H98707334H99538856I00671348I02781043
1513I05754826I08911049I11821697I14523724I17161842I19762878I22248480
1506I24489474I26407185I28050043I29462869I30564600I31345691I32079448
1499I33083026I34341143I35549216I36474505I37228317I38285035I40109494
1492I42596901I45116682I47230762I48964356I50317981I51168269I51802326
1485I52791910I54121739I55145244I55680890I56513637I58401876I61006525
1478I63250163I64609270I65671598I67290144I69443626I71290721I72341184
1471I73123629I74469064I76585595I79133557I81763097I84216261I86279459
1464I87969588I89516873I91080991I92752095I94687669I96846956I98737194
1457I99900641A000584096A001483009A002873328A004425967A005820155A007055507
1450A008164912A009065373A009713294A010120736A010371018A010783877A011710004
1443A013023517A014190833A014908274A015346219A015840592A016612977A017695684
1436A018995074A020468197A022054305A023399546A024092417A024297879A024632061
1429A025330735A026098606A026787607A027620935A028693775A029711347A030150002
1422A029353562A026777160A022489348A017102320A010983664A003972544I96017369
1415I87576849I79188308I70991815I62689689I53821865I44376412I35080316
1408I26703770I19558577I14148914I11267865I10781940I11503057I13043636
1401I16641867I23367300I32743878I43544697I54272192I62646545I66151654
1394I63514890I56142825I48304375I43987479I43556885I45012210I46671642
1387I48089885I49604217I51305244I52825573I54183326I55903506I58031903
1380I59951290I61377852I62828147I65112993I68781904I73943478I80135265
1373I86217098I90898164I93762187I95576199I97451025I99978222A003257812
1366A007259615A011746956A016074687A019562319A022177801A024551643A027205690
1359A030041789A032584463A034413759A035450485A036150320A037221999A038895361
1352A040732396A042260270A043388184A044152959A044576395A044850602A045217803
1345A045553984A045397791A044526996A043333626A042473729A042227961A042402856
1338A042817198A043498847A044329917A044942241A045124680A044982933A044654362
1331A044169791A043546633A042879107A042414851A042352683A042512423A042773926
1324A043732168A045901967A048457990A050065122A050815968A051933434A053631172
1317A054599282A053836119A052003598A050523897A050088080A050505969A051255783
1310A051778918A052087240A053052770A055070116A057043546A057796455A057361477
1303A056074404A054153985A052740450A053391531A056148244A059432865A061709908
1296A062399748A061701009A060265096A058789522A057612919A056684406A055958517
1289A055768791A056454245A057534694A057871585A056844726A054787525A052323463
1282A049905769A048041520A047455895A048705241A051595318A055227663A058818349
1275A061977151A063984437A063677405A060787070A057020394A054947265A055557396
1268A057395591A058406715A058028616A057020717A056465272A057289313A058975379
1261A059007366A056366411A053879262A054194355A056731677A059399266A060856718
1254A061078561A060894767A060880321A060615981A059623430A058206090A056612436
1247A054744447A053449765A054346420A057458339A060647064A062070338A061766078
1240A060698398A059626074A058869940A058359767A057982442A057931689A058232917
1233A058255037A057551784A056791007A056874004A057516186A057628139A056833311
1226A055806968A055256490A055217280A055355093A055572937A056083820A056894898
1219A057529600A057582223A057308789A057207735A057293892A057364056A057620142
1212A058355188A059314527A059973670A060124058A059700817A058612500A057335617
1205A056950810A057821412A058925529A059259196A059143244A059332520A059752537
1198A060021198A060343257A061056183A061913113A062336033A061948453A060682920
1191A058859170A057349224A057262808A058944167A060989050A060815445A057221987
1184A052333137A050051901A052162821A056964547A062055054A066755338A071065592
1177A073741823A072979885A068907982A064118316A061126734A060431800A061760081
1170A065076237A068905596A070470552A069491157A068966925A070486738A071742082
1163A070204018A066579025A063345867A062089942A063067532A065344833A066833563
1156A066113930A064477069A064208085A065006975A064420061A061683273A058852205
1149A058141278A059513347A060975249A060889285A059673796A059057474A060000239
1142A061769561A062956933A062595988A060421288A057085335A054188874A053476721
1135A055747509A060426641A065659411A068868386A068588503A066002815A063394491
1128A061383916A059243267A057349353A057038580A058184099A059265967A059529276
1121A059394816A059241203A058707621A057002079A053776660A050006952A047637367
1114A047909124A050232019A052783335A053985540A053469756A052060026A051077148
1107A051220120A052042356A052686343A052629593A051803037A050473337A049054191
1100A047815937A046809199A046009921A045298736A044516678A043772474A043270491
1093A042856343A042587875A043409659A045908222A048753156A050053965A049595512
1086A048818677A048941078A049651876A050096915A050229375A050347971A050292574
1079A049864819A049275324A048669579A047903513A047001570A046190039A045436549
1072A044486174A043402436A042862727A043639949A045650331A047691602A048423102
1065A047851729A047266813A047557272A048345715A048915991A049157954A049206063
1058A048851180A047884876A046824805A046616957A047468148A048782435A049856822
1051A050293800A050146700A049766150A049526832A049661743A050124452A050554980
1044A050522091A049893581A048972806A048205064A047849794A048139221A049262620
1037A050767085A051857724A052257104A052231696A051934981A051092755A049441706
1030A047246563A045614410A045778277A047416621A049099205A050053772A050432645
1023A050450508A050108523A049590998A049191746A048826996A048070604A046724525
1016A045093274A043671484A042700344A042181981A041962589A041581588A040599420
1009A039268882A038394539A038326374A038617865A038606257A037820587A036293551
1002A034914452A034659398A035217357A035530516A034865054A033227419A031299519
995A029722762A028647794A027887404A027063621A025787640A023818854A021156553
988A018478065A017004039A016988046A017516791A017540330A016334836A013631197
981A009904440A006176586A002577582I98213479I92738359I86514779I79233644
974I69546293I56417678I41142673I26288718I11853942H95977255H78048591
967H58525500H37183044H14840621G94594479G77207394G59477614G39934532
960G23396574G12449559G04156977F96343226F88501681F80431651F72098506
953F63883182F55949352F47548816F37778726F27600936F18918711F11085420
946F02789292E93792876E84051355E73408728E62034472E50976084E41918018
939E35778596E32789819E33716398E39477494E51050247E68881661E89223892
932F08154264F27372580F49630974F72958983F94291121G17459068G49609436
925G84527223H10539008H29253987H44992539H59491610H73733629H87161087
918H97589739I05201639I13176354I23021574I31818460I37521227I41198327
911I44633594I48634624I52447538I54973510I55853979I55379339I54837116
904I57266160I62279732I65364372I66268315I67499088I71109701I75545322
897I78491504I79796698I79920581I79072679I77542096I76573471I77734209
890I79858543I80778027I79936961I77849773I75253251I72258831I68261736
883I63069336I57717132I53106810I48906639I45026075I42739035I42261236
876I41124423I36716339I26723052I09003720H83633278H54275092H26016573
869H02039030G81886203G62242066G40447091G18092931G01611723F99230079
862G15079874G45456922G81777217H15950155H43130611H62073945H74368330
855H83200879H91726331I01255425I11177452I21197695I32515587I44669902
848I54284960I60628812I66161714I73304650I81455356I88160604I92576105
841I94818582I94617183I91048940I83375066I75518107I72070394I69769167
834I66695619I63999010I63181547I64855618I68296947I71986687I75144329
827I77983072I80781961I84634343I91914963A000451700A005770112A007516153
820A007542722A008092620A009582511A010404101A009534789A007332488A004740222
813A001999502I98902415I96202904I94722300I93669065I92324146I90887266
806I88867469I84748360I77317739I65612977I46232729I13501057H74938349
799H45076116H20486572G94540179G65523785G33491238F98271062F63824045
792F38369768F27590101F36633852F71336696G25665492G78473765H16846037
785H41439192H56166426H64983949H71567700H78400056H86311701H94789883
778I03268386I12370886I21634608I27929255I29464094I26234741I17914171
771I04358961H86759836H65751949H38602964G96980703G31855925F61283306
764F19045303F06120796F12059205F32262462F64060462G02196897G38617601
757G68628610G93934369H17193762H38041458H55468397H70257347H82881787
750H91597159H95843698H97551304H98950200I01079370I03166881I03988084
743I03337132I01827508I00139378H98988313I00021943I05073628I13097871
736I21487702I29113919I35945695I41984449I46779919I49750284I50883357
729I50758506I49790009I47584420I43321113I36749422I28688614I20141107
722I11578767I03780752H97518608H92462538H88095791H84960914H84089925
715H85140516H86439261H86782858H85893361H83807463H80398056H75365911
708H68734890H61585570H55643485H51487101H48455794H46117743H44568072
701H43796525H43615955H43678703H42993959H40310763H35271073H28717180
694H22358174H17925713H16058432H16190699H17312809H18292333H17888115
687H15085551H09318166H00269837G87907803G73208428G58392522G45040645
680G32498042G19484540G06531464F96668445F94044257G01384077G18146779
673G40841119G64989558G86947175H04606855H17280951H25239415H29132232
666H29633828H27558377H24029343H20167223H16552676H13174289H09848266
659H06497351H03038352G99233885G94880552G90097464G85297866G80899650
652G77030307G73420210G69660306G65580471G61245130G56697363G51907890
645G46854529G41497488G35796205G29863213G24102794G19186020G15779322
638G14207659G14431114G16269954G19445911G23456356G27643049G31436681
631G34497525G36655457G37733585G37488914G35838768G33100176G29802013
624G26196108G22017798G16683523G09651831G00693464F90082888F78686062
617F67776321F58678077F52492998F49866552F50750955F54410837F59666694
610F65124402F69484055F71988552F72533484F71227452F68052463F63203725
603F57718738F53437569F51945550F53456077F56929006F61272407F66235613
596F72226710F79548538F87829576F96025167G02926010G07752757G10311618
589G10682172G08929876G05133857F99466173F92086305F83041458F72338405
582F59999587F46017072F30397439F13313646E95131927E76282295E57149298
575E38040420E19222227E01036735D83982382D68651143D55646282D45596697
568D39171105D37020524D39657836D47153107D58617293D71934990D84352033
561D93778171D99769429E03415994E06497442E10671044E16992292E25778796
554E36840827E49892088E64663175E80482080E95860202F08953090F18909812
547F26921092F35816066F48373824F65564282F85856147G05883091G21882694
540G31024467G32113752G25689160G13743145F99204025F85174562F74025696
533F66725665F62793897F60934936F60029252F59840621F60824982F63173609
526F66090771F68157838F68546707F68030988F68849161F73371197F82523224
519F95152243G08591050G19692066G25675101G24784056G16853129G03492933
512F87575876F72305773F60526849F54460042F55475874F63713640F77948823
505F95960742G15079035G32638564G46539177G55939359G61556806G65204887
498G68908234G74129590G81340175G90029557G99140570H07611335H14584084
491H19300683H21168286H20099961H16548098H11005264H03783007G95552012
484G87701051G81676614G78070193G76523488G76259792G76515814G76713279
477G76487825G75626187G74042401G71848290G69358626G66976981G64965826
470G63016386G59922137G54050410G44466693G31567530G16704288G01515635
463F87526865F75838483F66942993F61002585F58276375F58945642F62407285
456F66932288F70051752F69205592F62657890F51200379F39735646F36091305
449F46185968F69224874F97903539G23821751G42902511G56190608G66793445
442G76872309G86907256G96556171H05525179H13770554H21370459H28477926
435H35295385H41894678H47997277H52993372H56292825H57739637H57712293
428H56881223H55896282H55202767H55044381H55531531H56572449H57811219
421H58876836H59648061H60050086H59775878H58508024H56224853H53014976
414H48800101H43535022H37680706H32405309H29254181H29387737H32848671
407H38429424H44246916H48517703H49966901H47826897H41837219H32437747
400H20910266H09206665G99391239G92835024G89689442G89176948G90385150
393G92677671G95502098G98265711H00635168H02713263H04652771H06178775
386H06744473H06219016H05308753H05274187H07222272H11462298H17302103
379H23473705H28938700H33481373H37744615H42802297H49437639H57448082
372H65532106H72080581H76209944H77958435H77658045H75680618H72966854
365H71117695H71333411H73451554H76302357H78693030H79856993H79495274
358H77897816H75846032H74157645H73419696H74009642H75904459H78419468
351H80506913H81402602H80778735H78398380H74015769H67712803H60161265
344H52399234H45205094H38574976H31899908H24781478H17600752H11231814
337H06405196H03488163H02624719H03825247H07014876H12155942H19187054
330H27650532H36500170H44476239H50603472H54334293H55626782H55147177
323H53980183H52702204H50900573H47863462H43549080H38631920H33822778
316H29493757H25825298H22904138H20621226H18782643H17458876H17080068
309H18116213H20675719H24342759H28388867H32259048H35924927H39816196
302H44413104H49750863H55320588H60712904H66190281H72138751H78124108
295H83017343H85949337H86785180H85809396H83156833H78414502H70704450
288H59252485H43998182H25852964H06407002G86981418G67642121G47245526
281G24564987F99425867F73160189F48631458F29934278F20969656F22563696
274F30378672F36685378F34988543F22859572F01040026E71295551E35431194
267D95354960D53097966D10439462C68733429C29235759B93294596B62361184
260B38518956B24993958B25660017B43765881B80163111C31541501C90496644
253D48214242D98090844E38027490E70069549E97752504F23374001F47367795
246F69403637F89239113G06753435G21941508G34944757G45831991G54451274
239G60244905G61574734G55365148G38092402G07362405F63071780F08254803
232E49296467D94720453D52765686D29101141D25654201D40585704D69566307
225E07502923E49143177E89246205F23770996F51195929F72265468F88447381
218G00824183G10161036G17331315G23234642G28337273G32150059G33091664
211G29711728G23351754G21027892G29524581G42190552G50213183G53331228
204G54763465G56754307G59302140G61310780G62064657G61535202G59951158
197G57745181G56071497G56576833G59989464G65381200G71149680G76191305
190G80128167G83044169G85179917G86746356G87988995G89206806G90435580
183G91330366G91543631G90913767G89301799G86707275G83432651G79642178
176G75073839G69788252G64984785G62557676G63624002G67425051G71763551
169G74600102G75311997G74586430G73267952G71564280G69341665G66744949
162G64379685G63139109G63823402G66588434G70724246G75089316G78679550
155G80760225G80781312G78413468G73465869G65817597G56008878G45865138
148G37663421G32197588G28003349G23029761G16882923G11014097G06944903
141G04881447G04005815G03508604G03445276G05000365G09840332G18804696
134G30854216G43412684G53853975G60259093G61294722G57035027G50098650
127G44431804G42338103G43287382G45622079G48481716G51787941G55490063
120G59518952G63792254G67856934G71072487G73190114G74192209G73815980
113G71888596G68857030G65452202G61955477G58075365G53518246G48585673
106G43965613G39991540G36473147G33291322G30861955G29391669G27843481
99G24573306G19013125G11916041G03915466F95215893F86827997F79989579
92F74157512F67835006F61543842F57324001F55563772F54596179F52938875
85F50599599F48194416F45999982F44072985F42258715F39799361F35854824
78F31073155F27745843F27576817F30031270F33213804F36054676F39211801
71F43633041F48715874F53012392F56394069F59619682F62633448F64738306
64F65714477F65734340F65073005F64715155F65972562F68404509F70263470
57F71170508F71740591F71825265F70965175F69728211F69120530F69424725
50F70618869F72874309F75772575F78154478F78912740F77015150F71246605
43F60276567F42568907F17292039E86369542E54456429E26995801E09479996
36E05150814E11909782E26181627E47562421E73145999E94407005F07553613
29F14456327F18284590F21364523F23607323F24042495F23933121F26071771
22F31579007F39092819F45593186F46962933F42386532F39344068F42873876
15F48511315F52970668F57519145F61224363F59256673F50614625F43336714
8F46089429F55482774F61916975F61763878F56011842F45383403F32410013
1F24282136
##END=


$$ === CHEMSPECTRA PEAK TABLE EDIT ===
##TITLE=X8126
##JCAMP-DX=5.00
##DATA TYPE=INFRAREDPEAKTABLE
##DATA CLASS=PEAKTABLE
##$CSTHRESHOLD=0.93
##MAXX=3997.453
##MAXY=0.99241661732598
##MINX=373.96442
##MINY=0.20795291562107998
##$CSSOLVENTNAME=- - -
##$CSSOLVENTVALUE=0
##$CSSOLVENTX=0
##NPOINTS=45
##PEAKTABLE= (XY..XY)
385.29667513682534, 0.59461039128164
423.54303622361203, 0.46689069134764
480.20431190774025, 0.58004414888042
551.0309065129004, 0.68611341507878
568.0292892181387, 0.65016633079576
600.6095227365126, 0.70533895288434
617.607905441751, 0.7048015576197599
650.1881389601249, 0.69880664181722
668.6030535574664, 0.6664172394599199
695.5171595074276, 0.39341515181625997
739.4296481626266, 0.20795291562107998
763.5106903283813, 0.57393741425456
811.6727746598904, 0.7551944236496799
847.0860719624702, 0.74183392278294
915.0796027834244, 0.74428272007662
932.0779854886628, 0.72940468595848
953.3259638702107, 0.76644646933106
1009.9872395543389, 0.5879137495593
1022.7360265832681, 0.6084185223574999
1052.4831963174352, 0.7174658753539199
1093.5626211884282, 0.60489123841892
1121.8932590304921, 0.60986429236546
1175.721470930414, 0.40392058951223997
1223.883555261923, 0.602567194043
1242.298469859265, 0.60064565935152
1276.2952352697416, 0.66011357090734
1330.1234471696635, 0.64147734497482
1352.787957443315, 0.7542501663603199
1364.1202125801406, 0.7797204825683
1386.7847228537917, 0.8171289540805
1420.7814882642688, 0.83089893817338
1453.3617217826427, 0.56021320691096
1493.0246147615321, 0.58005642675026
1551.1024223377635, 0.89023017663022
1595.014910992963, 0.64627039281654
1701.2548029007035, 0.49243631810894
2341.527218131352, 0.8720918865301
2361.3586646207973, 0.8417993158643999
2534.1755554573883, 0.82464986750752
2851.4786992885065, 0.89023166653734
2927.97142146208, 0.83803832261796
2977.5500376856917, 0.89489716002924
3034.2113133698203, 0.90860026836556
3052.626227967162, 0.89638429621776
3411.0087966692727, 0.88451051469828
##END=


$$ === CHEMSPECTRA PEAK TABLE AUTO ===
##TITLE=X8126
##JCAMP-DX=5.00
##DATA TYPE=INFRAREDPEAKTABLE
##DATA CLASS=PEAKTABLE
##$CSTHRESHOLD=0.93
##MAXX=3997.453
##MAXY=0.99241661732598
##MINX=373.96442
##MINY=0.20795291562107998
##NPOINTS=55
##PEAKTABLE= (XY..XY)
3411.0087966692727, 0.88451051469828
3052.626227967162, 0.89638429621776
3034.2113133698203, 0.90860026836556
2977.5500376856917, 0.89489716002924
2927.97142146208, 0.83803832261796
2851.4786992885065, 0.89023166653734
2534.1755554573883, 0.82464986750752
2361.3586646207973, 0.8417993158643999
2341.527218131352, 0.8720918865301
1701.2548029007035, 0.49243631810894
1654.5092504612976, 0.88251775283416
1636.094335863956, 0.9026077963064599
1595.014910992963, 0.64627039281654
1551.1024223377635, 0.89023017663022
1493.0246147615321, 0.58005642675026
1453.3617217826427, 0.56021320691096
1420.7814882642688, 0.83089893817338
1386.7847228537917, 0.8171289540805
1364.1202125801406, 0.7797204825683
1352.787957443315, 0.7542501663603199
1330.1234471696635, 0.64147734497482
1276.2952352697416, 0.66011357090734
1242.298469859265, 0.60064565935152
1223.883555261923, 0.602567194043
1175.721470930414, 0.40392058951223997
1121.8932590304921, 0.60986429236546
1113.394067677873, 0.61743432096888
1093.5626211884282, 0.60489123841892
1052.4831963174352, 0.7174658753539199
1022.7360265832681, 0.6084185223574999
1009.9872395543389, 0.5879137495593
974.573942251759, 0.79028331958306
953.3259638702107, 0.76644646933106
932.0779854886628, 0.72940468595848
915.0796027834244, 0.74428272007662
889.5820287255665, 0.8051392407807
875.4167098045345, 0.80726688822496
847.0860719624702, 0.74183392278294
811.6727746598904, 0.7551944236496799
763.5106903283813, 0.57393741425456
739.4296481626266, 0.20795291562107998
695.5171595074276, 0.39341515181625997
668.6030535574664, 0.6664172394599199
650.1881389601249, 0.69880664181722
617.607905441751, 0.7048015576197599
600.6095227365126, 0.70533895288434
568.0292892181387, 0.65016633079576
551.0309065129004, 0.68611341507878
480.20431190774025, 0.58004414888042
458.9563335261919, 0.6143696291603
446.20754649726314, 0.6184413410578
423.54303622361203, 0.46689069134764
406.54465351837325, 0.57667642641546
396.6289302736509, 0.59092014828968
385.29667513682534, 0.59461039128164
##END=

##END=

