##TITLE=X8413
##JCAMP-DX=4.24
##DATA TYPE=INFRARED SPECTRUM
##DATE=31/10/2018
##SAMPLING PROCEDURE=Diamant-ATR
##ORIGIN=ComPlat
##XUNITS=1/CM
##YUNITS=TRANSMITTANCE
##RESOLUTION=4
##FIRSTX=3997.453
##LASTX=373.96442
##DELTAX=-1.4165319
##MAXY=0.94570303
##MINY=0.4597967
##XFACTOR=1
##YFACTOR=8.8075458e-010
##NPOINTS=2559
##FIRSTY=0.92328066
##XYDATA=(X++(Y..Y))
3997+1048283683+1047168745+1046345756+1046244514+1046596354+1046756202
3989+1046486248+1046194165+1046231250+1046339056+1046090420+1045548820
3980+1045137562+1045046540+1045151030+1045384168+1045775936+1046142123
3972+1046231995+1046251350+1046726086+1047714473+1048605408+1048781632
3963+1048183457+1047304636+1046799784+1046913612+1047307546+1047612420
3955+1047937934+1048559321+1049295553+1049566589+1049078859+1048209309
3946+1047505494+1047077859+1046813319+1046793964+1047089093+1047405065
3938+1047356745+1046939329+1046549997+1046581195+1047055797+1047679756
3929+1048213708+1048561555+1048604190+1048325641+1048007706+1047949506
3921+1048061575+1048002631+1047613705+1047187559+1047145871+1047399516
3912+1047442083+1047047946+1046555885+1046406257+1046591008+1046662472
3904+1046270501+1045770522+1045807472+1046274562+1046592971+1046678579
3895+1046777384+1046843840+1046634996+1046222114+1046052860+1046374247
3887+1047056067+1047750002+1048030783+1047764214+1047180927+1046625996
3878+1046239033+1045771740+1045034494+1044291834+1043948047+1044005571
3870+1044322220+1044942660+1045676928+1046136303+1046212640+1046005488
3861+1045451775+1044590888+1043913601+1043908593+1044487075+1045020012
3853+1045143044+1045390124+1045881847+1046201947+1046239980+1046178870
3844+1046211083+1046403211+1046692791+1046825568+1046505197+1045999465
3836+1045996014+1046474608+1046860420+1047045375+1047370077+1047769221
3827+1047761236+1047291913+1046869827+1046825162+1047074204+1047456836
3819+1047886772+1048358396+1048939855+1049587568+1050038348+1050090458
3810+1049739497+1049099364+1048445831+1048140890+1048100624+1047728820
3802+1046685955+1045507877+1044984821+1045133028+1045698787+1046553584
3793+1047532564+1048498076+1049408975+1050114414+1050307760+1049881140
3785+1049222667+1048904868+1049044683+1049311388+1049412968+1049274303
3776+1048928418+1048543621+1048439335+1048835027+1049601171+1050335439
3768+1050668736+1050475661+1049977847+1049653212+1049727248+1049953958
3759+1050042950+1049978592+1049757431+1049205816+1048312513+1047492094
3751+1047484718+1048562841+1050038348+1051347647+1052287511+1052528838
3742+1052157440+1051781305+1051523669+1051034923+1050156440+1049444843
3734+1049625534+1050548411+1051667477+1052680768+1053268521+1053116727
3725+1052425025+1051906774+1051884171+1051992653+1051942371+1051864004
3717+1051906030+1052058027+1052349839+1052826538+1053235090+1053159226
3708+1052627981+1051954079+1051366731+1051075934+1051235104+1051693938
3700+1052054169+1052124686+1052016948+1051904879+1051857913+1051715593
3691+1051193349+1050418950+1050185405+1050798807+1051490170+1051676207
3683+1051407133+1051009139+1050794543+1050788046+1050590437+1049878569
3674+1049302049+1049695509+1050781211+1051870974+1052581963+1052953496
3666+1053130194+1053263310+1053565206+1054000015+1054154583+1053814451
3657+1053380251+1053324488+1053401840+1053070234+1052295429+1051414374
3649+1050831764+1050967249+1051960305+1053440076+1054791333+1055579876
3640+1055815384+1055735122+1055358242+1054590407+1053696900+1053216344
3632+1053284627+1053420315+1053164234+1052885889+1053162407+1053751040
3623+1054280999+1054688468+1054961534+1055010260+1054980415+1055158941
3615+1055307892+1054823681+1053626451+1052435853+1051979389+1052375826
3606+1053216411+1054006173+1054554743+1054966136+1055393907+1055810105
3598+1056005414+1055797247+1055155016+1054295346+1053670778+1053610412
3589+1053975719+1054220904+1054027355+1053835024+1054047725+1054459863
3581+1054757563+1054984611+1055425511+1056147530+1056864880+1057261182
3572+1057259693+1056940946+1056380060+1055720504+1055327653+1055508006
3564+1056060162+1056523530+1056540516+1056037491+1055373943+1055083551
3555+1055415360+1056266096+1057344354+1058238064+1058609665+1058467210
3547+1058101632+1057781667+1057589404+1057531610+1057622226+1057842371
3538+1058146906+1058435809+1058474586+1058076592+1057413044+1056880242
3530+1056684122+1056738058+1056868873+1056916177+1056808710+1056797138
3521+1057357551+1058608447+1060069945+1061079988+1061295869+1060883596
3513+1060400739+1060415898+1060982604+1061533475+1061558717+1061209381
3504+1060906470+1060686663+1060312626+1059857583+1059673847+1059870779
3496+1060205227+1060418063+1060503062+1060682062+1061165731+1061858109
3488+1062313830+1062185451+1061620978+1061045203+1060715222+1060608702
3479+1060585422+1060564646+1060637126+1061022667+1061813580+1062786942
3471+1063552679+1063831837+1063599781+1063116517+1062807786+1062925134
3462+1063289696+1063521008+1063547198+1063678892+1064104159+1064551149
3454+1064652052+1064446863+1064283294+1064396445+1064797620+1065338881
3445+1065721445+1065690314+1065339354+1065009441+1064850812+1064716816
3437+1064562045+1064648330+1065152911+1065778021+1066080120+1066085872
3428+1066160855+1066352307+1066389257+1066285038+1066396566+1066892485
3420+1067597315+1068334020+1068996959+1069367477+1069269755+1068902147
3411+1068683829+1068762129+1068905328+1068838736+1068480467+1067955245
3403+1067577689+1067689691+1068329485+1069170274+1069797617+1069920310
3394+1069466756+1068760775+1068448525+1068952159+1070072713+1071228391
3386+1071934643+1072061465+1071817972+1071536919+1071380930+1071228933
3377+1070906599+1070502447+1070299491+1070370887+1070469218+1070426922
3369+1070463195+1070952956+1071967735+1073094990+1073741823+1073681796
3360+1073261131+1072975680+1072944482+1072871867+1072408229+1071500917
3352+1070501635+1069918145+1069965991+1070388144+1070746887+1070818757
3343+1070684965+1070509417+1070353157+1070249141+1070309845+1070546232
3335+1070714606+1070620742+1070421170+1070323583+1070182888+1069711738
3326+1068948910+1068255179+1067901850+1067816242+1067705256+1067422376
3318+1067154723+1067108028+1067120615+1066880777+1066375587+1065776261
3309+1065114066+1064466827+1064175420+1064484355+1065218894+1066014881
3301+1066574482+1066663609+1066227515+1065538656+1064990086+1064788213
3292+1064896695+1065066152+1064932563+1064339463+1063551664+1063023194
3284+1063029961+1063471876+1063886450+1063794413+1063193598+1062529170
3275+1062082315+1061660297+1060983958+1060085917+1059247497+1058754759
3267+1058730464+1059038315+1059380884+1059572335+1059608947+1059451333
3258+1058995206+1058355005+1057887984+1057730167+1057555228+1057020058
3250+1056214528+1055426594+1054712424+1053998526+1053423631+1053195094
3241+1053219321+1053218645+1053118757+1052952684+1052545148+1051772305
3233+1051006229+1050781550+1051071941+1051302373+1051002033+1050173020
3224+1049167648+1048384315+1047939964+1047595704+1047090378+1046420739
3216+1045731339+1045161384+1044796821+1044535597+1044086509+1043301688
3207+1042393022+1041710795+1041421622+1041396582+1041331750+1041002108
3199+1040406640+1039667769+1038955495+1038504106+1038420054+1038439341
3190+1038137310+1037429299+1036682511+1036310368+1036351853+1036443620
3182+1036181110+1035447518+1034407902+1033308327+1032320482+1031466159
3173+1030661712+1029915194+1029416839+1029267616+1029196355+1028780495
3165+1027931451+1026946042+1026110938+1025519666+1025229275+1025236516
3156+1025288016+1025048651+1024491622+1023890605+1023492611+1023350021
3148+1023341426+1023266037+1023034658+1022766328+1022565605+1022304111
3139+1021749383+1020837537+1019722531+1018592299+1017519861+1016554416
3131+1015869753+1015572730+1015346155+1014609450+1013188421+1011573030
3122+1010350557+1009601603+1008988878+1008253189+1007439876+1006697690
3114+1005989408+1005111940+1003998153+1002843761+1001844614+1000983456
3105+1000199244+999546388+999012909+998389356+997508640+996478296+995544252
3095+994801795+994075782+993058702+991611415+989955622+988505019+987464861
3085+986644376+985678660+984369564+982798906+981222564+979916987+979052512
3075+978653977+978625960+978684092+978303965+977038654+974979386+972666609
3065+970589001+968992424+968049447+967901781+968555382+969825633+971320563
3055+972579647+973407781+973979833+974496799+974866370+974812907+974227590
3046+973346535+972559954+972053749+971722347+971415307+971097169+970753383
3036+970323717+969763305+969057189+968218295+967319307+966402046+965380364
3026+964230236+963201854+962531605+962000766+961144074+959929655+958860601
3016+958285097+957895021+957072302+955531150+953442308+951095694+948666314
3006+946209729+943639721+940655139+936771705+931471978+924385034+915407670
2996+904654663+892297769+878572564+864053807+849906178+837776129+829292857
2986+825466133+826267941+830484335+835988506+840619339+843220544+843910689
2976+843392099+842215713+840706436+839248523+838308863+838115314+838431421
2966+838780622+838885450+838789487+838645814+838634039+839097948+840536167
2956+843409694+847999719+854256770+861583213+868915883+875302125+880412905
2946+884436087+887648732+890252036+892379858+893994098+894899516+895037842
2936+894653113+894065157+893368109+892414237+891088560+889592141+888333463
2927+887497615+886909726+886340245+885688337+884871167+883808068+882434613
2917+880454998+877195726+871984111+864749434+856346491+848379373+842477343
2907+839432463+839000023+840516609+843539088+847884808+853321982+859390356
2897+865492771+871159700+876248688+880839389+884938368+888409461+891226481
2887+893550018+895405450+896440532+895899542+892363819+883777005+869055563
2877+850444258+833443335+823187668+820591199+822253218+824127667+825117880
2867+827114549+832005725+839371150+847095452+853394393+857776860+860563223
2857+862166703+862923101+863238126+863538060+864065583+864920447+866278066
2847+868317911+870902130+873494944+875476725+876579143+877081694+877544114
2837+878245357+878934690+879202884+879005951+878665142+878404460+878138838
2827+877774952+877489298+877567462+878101414+878916418+879709225+880301309
2817+880824772+881554438+882533824+883523226+884308791+884902162+885450731
2808+886063321+886715365+887296622+887764456+888226470+888868633+889815467
2798+891022172+892296754+893494728+894657985+895879307+897138392+898371354
2788+899594503+900859746+902168977+903474960+904698583+905750787+906604027
2778+907356162+908202702+909329754+910781711+912387492+913866925+915074915
2768+916125020+917246861+918583636+920150030+921853465+923493287+924878449
2758+926040488+927219108+928592494+930094598+931485174+932564989+933406318
2748+934336369+935546457+936803106+937731397+938276583+938682630+939120620
2738+939528562+939747421+939683130+939349698+938859464+938405571+938160995
2728+938108683+938030315+937751632+937325012+936944139+936755327+936748425
2718+936731709+936452010+935795161+934829243+933661857+932363860+931014362
2708+929730983+928631407+927779114+927160975+926720820+926394494+926136315
2698+925961106+925943037+926105456+926349422+926564966+926746198+926947191
2689+927173901+927349178+927345659+927067855+926517594+925734126+924677050
2679+923231657+921334470+919061485+916595087+914128013+911794663+909669209
2669+907788061+906163060+904788049+903624589+902568460+901484111+900362068
2659+899404744+898855227+898751752+898950986+899325632+899792045+900221440
2649+900534908+900871318+901444183+902243216+903071417+903873699+904809570
2639+905972150+907250928+908517118+909729913+910797614+911565246+912061639
2629+912580838+913397940+914506246+915723507+916962289+918298388+919815853
2619+921466570+923087781+924522007+925747999+926910782+928173521+929489655
2609+930573734+931168796+931287429+931094015+930590179+929603078+928110922
2599+926345768+924456566+922324209+919886573+917451712+915484346+914196567
2589+913514408+913336221+913582285+914036043+914494606+915141709+916364926
2580+918090627+919734847+920944326+921923712+922909865+923751939+924184041
2570+924222141+924094913+923854872+923201339+921745322+919376984+916299214
2560+912780004+908963973+904936459+900943730+897383509+894370978+891522625
2550+888516319+885650507+883471590+882100707+881300456+880942931+881087958
2540+881780945+882952662+884370781+885720820+886925901+888242711+889840236
2530+891531084+893121232+894714832+896418470+898050712+899397367+900516298
2520+901572630+902558918+903368847+904002551+904508283+904844354+905030527
2510+905355094+906177204+907572179+909324272+911099646+912519525+913353952
2500+913797626+914333067+915285112+916609434+917970640+918956793+919451832
2490+919806311+920460182+921536816+922914805+924413728+925808974+926948477
2480+927901605+928833280+929820787+930867915+931932706+932883939+933559872
2470+933935398+934242369+934906798+936201208+937883191+939375211+940353717
2461+940945869+941390829+941842286+942490675+943457338+944493638+945154751
2451+945389311+945635104+946250198+947153315+948115443+949131441+950326708
2441+951618344+952663239+953226562+953527172+954031415+954888783+955790749
2431+956445500+956899596+957272618+957502644+957586831+957827482+958550178
2421+959684403+960782490+961456392+961788133+962301918+963405757+964891686
2411+966167216+966903650+967257520+967581613+968111843+968821411+969468447
2401+969884645+970203798+970699649+971444949+972209603+972657135+972629118
2391+972262660+971849236+971611563+971610007+971753139+971845041+971705496
2381+971315826+970850157+970505085+970230868+969700367+968687212+967411412
2371+966331530+965659725+965234187+964784490+964199444+963529737+962822673
2361+962139025+961688381+961608728+961698396+961786035+962242500+963664950
2351+966000533+968355945+969710654+969566439+968278120+967017411+966815538
2342+967576132+968522086+969147128+969558115+970045304+970358434+969887149
2332+968757255+968117799+968914598+970875738+972989823+974533073+975589946
2322+976792995+978447367+980139433+981484261+982714584+984139200+985499390
2312+986324140+986690597+987153153+987985685+988937459+989785150+990650437
2302+991567765+992221365+992450308+992607854+993071290+993752366+994397304
2292+995028640+995812852+996748858+997731560+998707900+999566690+1000074046
2282+1000135359+999922387+999607498+999303233+999371449+1000284040+1001941863
2272+1003507377+1004082408+1003426100+1002097040+1001013368+1000783478
2264+1001460900+1002849987+1004663732+1006361753+1007318062+1007380999
2255+1007099203+1007246801+1008080348+1009146357+1009940517+1010478259
2247+1010898044+1010903120+1010193620+1009234672+1008979404+1009795153
2238+1011048958+1011922975+1012321849+1012624286+1012819256+1012533467
2230+1011879325+1011644494+1012484538+1014217006+1015946496+1016844469
2221+1016864636+1016582095+1016360190+1016041985+1015448073+1014782426
2213+1014532166+1015124047+1016439572+1017686137+1018183071+1018239850
2204+1018805474+1020278545+1021953625+1022699872+1022177898+1021087594
2196+1019947211+1018468116+1016837702+1016416698+1018003328+1020477779
2187+1022170860+1022584690+1022147445+1021323304+1020319894+1018958960
2179+1016975622+1014926506+1014147504+1015123980+1016538783+1016927303
2170+1016774832+1017802808+1020431219+1023177857+1024617971+1024737349
2162+1024231549+1023732856+1023708560+1023979800+1023680746+1022400750
2153+1020789961+1019684363+1019256254+1019486685+1020722422+1022791571
2145+1024293607+1024028390+1022499555+1021060321+1020456258+1020851951
2136+1022242798+1024197712+1025765934+1026077845+1025098798+1023843368
2128+1023507229+1024208675+1025076195+1025574347+1026012404+1026780848
2119+1027787372+1028670659+1029088685+1028781984+1027707719+1026304555
2111+1025372677+1025302025+1025621313+1025759166+1025885717+1026406608
2102+1027112048+1027500229+1027565061+1027800365+1028676073+1030207209
2094+1031832751+1032850712+1033049810+1032629348+1031667626+1030243686
2085+1028967886+1028611783+1029143704+1029814020+1030256476+1030824063
2077+1031746534+1032671036+1033257909+1033717487+1034425430+1035211064
2068+1035414425+1034815980+1034259086+1034872217+1036727514+1038813784
2060+1040214715+1040727417+1040496782+1039722585+1038805122+1038318813
2051+1038635597+1039509208+1039993487+1039368039+1038351432+1038250123
2043+1038966052+1039454730+1039899419+1041445105+1044090096+1046670593
2034+1048178923+1047730647+1044733207+1040384713+1037570874+1038325648
2026+1041795321+1044757164+1044392804+1040990806+1037401349+1035790154
2017+1035824533+1035815397+1034719408+1032925357+1031562053+1031168661
2009+1031245472+1031240329+1031218199+1031379874+1031937512+1033324839
2000+1035488326+1037373197+1038024699+1037601666+1036650027+1035292205
1992+1033923082+1033676273+1034984760+1036465275+1036376080+1034858006
1983+1033747534+1034177944+1035467009+1036403015+1036428664+1035456722
1975+1033788816+1032245769+1031360586+1030924965+1030907911+1031702884
1966+1032959735+1033553985+1033161405+1032531897+1032219782+1032048972
1958+1031772453+1031538909+1031624788+1032105277+1032891790+1033977560
1949+1035454083+1037176399+1038657592+1039551775+1039970410+1040068402
1941+1039774966+1039264700+1039055991+1039286153+1039456963+1039229712
1932+1038933095+1038940133+1039106747+1039171106+1039288318+1039791478
1924+1040519656+1040794009+1040377269+1039935963+1040076726+1040339912
1915+1039798381+1038361989+1036822326+1035981064+1035930782+1036108631
1907+1036031888+1035647632+1035039103+1034335288+1033933504+1034264365
1898+1035231434+1036280727+1037070895+1037708659+1038240784+1038345274
1890+1037773153+1036873082+1036332498+1036530378+1037397966+1038576721
1881+1039647737+1040394593+1040877045+1041303733+1041821985+1042330829
1873+1042541635+1042296518+1041774748+1041387785+1041383995+1041629654
1864+1041879643+1042034483+1042140461+1042272968+1042428957+1042528574
1856+1042513144+1042453320+1042488443+1042640576+1042839539+1043080798
1847+1043285784+1043044863+1041910976+1040181757+1038675119+1037673536
1839+1036913754+1036160537+1035542533+1035348646+1035591462+1036110999
1830+1036916461+1037963860+1038830365+1039147555+1039013357+1038758427
1822+1038473991+1037988155+1037245833+1036489638+1035997441+1035783522
1813+1035701095+1035664957+1035750700+1036156071+1036942787+1037867085
1805+1038655020+1039338330+1040152251+1041207568+1042373735+1043394131
1796+1044041370+1044231942+1044110669+1044136588+1044748366+1045767747
1788+1046726560+1047463062+1048104278+1048718018+1049248586+1049738956
1779+1050309385+1050966369+1051610427+1052161095+1052672376+1053333556
1771+1054189571+1055125171+1056172096+1057323037+1058352569+1059067077
1762+1059457017+1059636896+1059736513+1059722098+1059432722+1058875829
1754+1058217220+1057521188+1056911170+1056740697+1057027299+1057284598
1745+1057201087+1056818455+1056273202+1055681185+1055123209+1054578835
1737+1053858643+1052578917+1050552878+1048406783+1046427642+1043989058
1728+1040916702+1037690996+1034548936+1031439833+1028529896+1025778318
1720+1022390599+1017096421+1009223709+999853292+990142742+979586261+967167175
1710+952472600+934673930+911541425+883388824+855699794+830137232+799752996
1700+760874593+722702305+688054845+651031671+615965711+588981646+567002688
1690+546977120+531530850+523374209+522048601+527101857+537138395+549197115
1680+562146127+575503995+589287671+604554975+621017479+636766085+652332240
1670+670062626+689196649+706137612+720352849+734041915+748860741+764015773
1660+777369716+788341786+797507961+805689676+815076064+828100567+840257686
1650+847791417+853847001+861151653+869402395+876411107+881727347+885999978
1640+889533265+892525764+895523407+899423219+904105687+908129140+911193036
1630+913927087+916776658+919890566+923303324+927138778+931530042+936032428
1621+939882567+943144208+946629175+950693030+954577074+957863078+960910665
1611+964025994+967350234+970918170+974614282+978403040+982385618+986375234
1601+989643913+990649083+985716761+968695807+936416481+897556011+870993762
1591+870347741+892436569+922251933+946867863+962292037+969883495+971414834
1581+967743355+958383225+939594003+906205830+864914695+832466454+812895456
1571+802556007+800920382+807766065+819737215+834036841+848669967+861739542
1561+874129055+890739969+912062451+928167837+938581930+947474092+955674823
1551+963011553+969605488+975301517+979928762+983707640+986787643+989247273
1541+991811325+995167372+998206568+1000037299+1001110820+1002023005+1003008616
1531+1003842637+1004394658+1004911894+1005706935+1006884404+1008362754
1523+1010175686+1012514518+1015244576+1017834277+1019932864+1021480512
1514+1022538265+1023216431+1023637976+1023761347+1023088662+1020689126
1506+1016812594+1013158576+1010214396+1008037645+1007107256+1007993725
1497+1010702939+1014144323+1017010813+1019017904+1020445972+1021522470
1489+1022374628+1022933687+1022913656+1021841691+1018772381+1012398456
1480+1001645110+985672299+964254057+940305397+921999236+919660405+934909505
1470+956281660+974573542+989019075+1001129836+1011104925+1018189433+1022581171
1460+1025351021+1027587393+1030252416+1033225696+1035151916+1035370640
1452+1033160999+1026840605+1015339185+1001582849+992181708+990087791+991021564
1442+988480385+978846579+960604303+931471368+894094324+861522036+841027890
1432+827573518+814944167+800767437+785745588+770994031+757264021+745917237
1422+738075723+733513851+732708051+737963654+749110663+762612474+775180310
1412+783883794+785819692+779859258+767971755+754284312+743608454+739469141
1402+742090582+750135526+762964314+779715044+798968716+819914792+841080540
1392+859858325+875436797+889311224+903013691+916420149+928186380+937747504
1383+945578258+952148303+957682590+962429349+966753277+971142308+976000459
1373+981168424+986165172+990897178+995501143+999910341+1004050736+1008121020
1363+1012334571+1016529106+1020296343+1023452548+1026136316+1028577133
1354+1030860201+1032914393+1034678397+1036204864+1037591650+1038808979
1346+1039703772+1040240702+1040548621+1040696151+1040680857+1040608445
1337+1040594707+1040578668+1040447786+1040166530+1039731519+1039056127
1329+1037881297+1035896336+1032933951+1028851012+1023258728+1015535847
1320+1004975305+990849535+972440306+948913597+919473082+884457405+846121142
1310+807423023+770458658+736675199+707433512+683407636+664239978+649568615
1300+639740515+634533976+631359364+625907437+615374710+600972218+587228944
1290+579162886+579848970+589662858+606944698+629267071+654460874+680927432
1281+707500104+733320640+757712297+779865823+798482204+811719070+817764232
1271+815907243+806820652+790994492+767352736+735281848+698746878+666915084
1261+649085622+648530556+661253907+680137332+699516879+716834721+731989415
1251+745885024+759213927+772137392+784676398+796990725+809230542+821355718
1241+833173855+844414458+854768321+863981260+871947160+878741006+884649330
1231+890142606+895685623+901538657+907766743+914346060+921043469+927122468
1221+931350705+932388155+928994143+919828982+903360387+878213212+843960768
1211+802256750+757293595+714438028+678318173+652607201+640515998+643230964
1201+657382248+675875597+692631673+706175036+718388596+730901615+743486775
1191+755167668+765835338+776729109+789537933+804837721+821408166+837317566
1181+851480423+863933008+875074941+885166837+894276639+902057856+907283818
1171+907619686+900488551+885626144+867613961+854482532+851737315+857830052
1162+866909537+875573161+885202907+898089422+913535387+928420195+939977717
1152+946926199+948549237+943721540+931216168+910848235+884116664+853938158
1142+824538316+801803331+792101715+798297926+815795647+833042093+837081382
1132+820465257+785386575+742516593+704921975+681637473+675677378+685732391
1122+707757673+735884084+764295269+789321848+809672998+825136085+835779663
1112+842337459+846540589+850161311+853486025+855312831+854859479+853275828
1102+852982255+855855986+862194382+870907341+880270991+888710072+895347656
1092+900156337+903737944+906962025+910595132+914956214+919792979+924450814
1082+927848481+927878528+920966253+903053957+872222122+831561104+789942356
1072+758864118+746478936+753307431+773312696+798759263+824107161+846725611
1062+865858213+881558702+894040523+903512181+910392582+915345680+918986502
1052+921794318+924297599+926980758+929936375+932849966+935357916+937372384
1043+939156081+941119251+943460654+946032015+948534349+950745072+952589609
1033+954119121+955442902+956712747+958112256+959680748+961233743+962678324
1023+964178329+965799405+967356866+968801717+970383745+972294196+974422289
1013+976536374+978550773+980541352+982581739+984576175+985685631+983555169
1003+975769960+964018076+955252737+955678003+964275916+974681483+982156540
993+986276294+988303010+988946663+988581965+987831996+987367072+987395630
983+987533213+987342032+986909457+986655880+986747985+986988297+987135287
973+987119857+986976793+986653173+985908009+984407259+981948237+978633201
963+974767429+970501160+965675357+960080096+953650678+946313541+937880281
953+928239166+917538809+906102762+894180136+881858838+869227524+856393322
943+843234147+829618777+816252315+804804696+796556593+791097695+786833592
933+782586136+778242243+774146920+770765427+768950938+769471693+772067823
924+776110225+782415190+793216449+809951411+831592099+854548379+873169971
914+880987935+873088694+848404209+810953468+769977695+737571142+722807404
904+726317546+741076682+758757463+774933501+789053587+801527828+811521257
894+816153713+811223557+794398791+769186445+744770222+730232246+728748888
884+737452102+751542411+767531194+783691531+799274943+813865976+827147981
874+839022017+849623095+858976526+866857157+873174438+878268299+882723042
864+887043925+891468553+895883300+899823108+902505320+902893433+899849907
854+892357187+880051252+864375600+849364173+840236301+840155227+848206194
844+860609648+873643761+885388200+895434618+903913085+910993194+916832896
834+921652608+925753345+929424079+932912971+936501751+940369824+944277689
824+947413659+948518310+946528611+941321260+932856057+919600107+900645556
815+880684889+869247624+872135972+885908549+902545925+916848596+927933277
805+936631889+943821969+950151025+955906134+961029366+965347542+968837111
795+971886796+975206840+979212698+983589412+987664637+991162597+994464302
785+998128200+1002054609+1004864319+1004432353+1000157556+994973282+993765562
775+998929940+1008399230+1018456950+1027094249+1034116225+1039634270+1043664085
765+1046544245+1048885851+1050994183+1052329469+1051335060+1045591726
756+1032122534+1007384857+966005000+900079865+805547018+695563130+604022715
747+565545148+588557530+651110444+721855223+780924794+824082460+855993366
737+882526515+906100461+925531102+938797000+944421903+940162334+921767383
727+884471210+827314122+757364450+689865138+642984899+628956445+647047469
717+685432051+730172151+771923609+806903012+835021505+857762919+876848826
707+893710880+909176606+923351103+936030601+947188979+957093145+966291331
697+975377989+984481633+993163259+1000851152+1007141161+1011728681+1013955782
687+1012178852+1003156417+980516651+934193847+857880673+763241103+682677766
677+648224938+666041947+715289441+768729507+812056968+846621392+879654815
667+910600343+932499209+946305894+953668205+946613881+912235833+852449116
657+794303708+769824345+786107309+823436372+859533420+886033409+904464430
647+917659066+927691273+936250882+944129820+951259940+957513201+963154752
637+968512882+973452581+977669313+981347355+984897155+988406755+991770924
628+994801524+997255673+999359944+1001813349+1004770928+1007483256+1009209227
618+1010105711+1011079547+1012573259+1013777189+1013830787+1013397738
609+1013923772+1015774197+1018207299+1020615293+1022826017+1024657696
601+1025939519+1026848252+1027789537+1028870502+1029910321+1031165481
592+1033399214+1036687451+1039909096+1042095051+1043492665+1044861112
584+1046339665+1047497035+1048249914+1048980934+1049538301+1048939449
575+1046729199+1043868936+1041271114+1038117752+1032492375+1023207837
567+1010056579+992290190+968138439+936491126+898712704+858966578+823442395
557+798435441+786526688+783046119+778026497+764982030+748617992+741429875
547+751325921+774497338+800887221+823703551+842259498+858598158+874131085
537+888848534+902135479+913790791+924307682+934215367+943413688+951446248
527+958207474+963903097+968084976+968795018+962629327+946320918+920836588
517+894841586+880232552+882380338+897299999+916898743+934778419+948577593
507+958875692+967075949+974213378+980670204+986319673+990940286+994529134
497+997321114+999577315+1001057898+1001085374+999922049+999177900+999792791
487+1001074884+1002307441+1003515498+1004269528+1003679000+1002051089
479+1000944814+1001280547+1002095078+1001707912+1000253180+1000137863
470+1002635324+1005891686+1007839562+1008751814+1010017057+1011789859
462+1012933085+1012445964+1009670699+1003564901+993933192+983235339+975123059
452+971656905+971804977+973109268+974797477+977845199+982463308+986597139
442+987291953+983694172+977687314+971456995+965907278+960945653+956686963
432+954664036+957097273+964130077+972884792+980271669+985451138+989339716
422+992109838+989423836+971350813+936632295+902579423+881959470+877586140
412+889810256+914572567+942699993+965314246+978463812+984003648+987090960
402+992155586+1000955507+1012624015+1022669621+1025826638+1023980612+1021764001
392+1019017160+1013466225+1005657126+998812458+995177997+993735380+990681567
382+983971638+977430896+976980319+985170966+1000359971+1017451577+1029491754
##END=
