##TITLE=STM-226-Zn
##JCAMP-DX=4.24
##DATA TYPE=INFRARED SPECTRUM
##DATE=27/3/2019
##SAMPLING PROCEDURE=Diamant ATR
##ORIGIN=Rieke
##XUNITS=1/CM
##YUNITS=TRANSMITTANCE
##RESOLUTION=4
##FIRSTX=3997.453
##LASTX=373.96442
##DELTAX=-1.4165319
##MAXY=1.0014416
##MINY=0.66542208
##XFACTOR=1
##YFACTOR=9.3266517e-010
##NPOINTS=2559
##FIRSTY=1.0006741
##XYDATA=(X++(Y..Y))
3997+1072918945+1073306483+1073153487+1072526423+1071782280+1071423565
3989+1071685204+1072383653+1073103000+1073439155+1073265582+1072821805
3980+1072380713+1072012604+1071800494+1071858650+1072022318+1071990300
3972+1071743232+1071427208+1071138472+1071097571+1071482169+1071961989
3963+1072060790+1071917253+1071995093+1072237943+1072196147+1071746747
3955+1071205511+1070905592+1070855488+1070749529+1070372536+1069948060
3946+1069797238+1069855394+1069913358+1070010626+1070245359+1070465075
3938+1070446861+1070152565+1069709428+1069288403+1069037437+1069024080
3929+1069204812+1069427530+1069464469+1069171068+1068721924+1068490833
3921+1068626637+1068968672+1069262073+1069282779+1068962473+1068548094
3912+1068406922+1068615006+1068915820+1069099300+1069151385+1068981517
3904+1068449293+1067873547+1067838014+1068207274+1068265302+1067908888
3895+1067798966+1068449868+1069702015+1070905656+1071629093+1071942177
3887+1071839797+1071116040+1070007558+1069163271+1068808263+1068668241
3878+1068463800+1068104254+1067612611+1067250317+1067450349+1068178259
3870+1068700962+1068536719+1068136400+1067979059+1067970495+1067959695
3861+1068094732+1068411076+1068742182+1069119431+1069640599+1069673576
3853+1068148223+1066206957+1065827345+1066849167+1068165350+1068887126
3844+1068683515+1067899110+1067354551+1067615551+1068364679+1068715341
3836+1068384874+1067948511+1067787271+1067616829+1067084476+1066476009
3827+1066446548+1067183981+1068241145+1069115341+1069476995+1069164038
3819+1068608679+1068486168+1068849548+1069134705+1068988164+1068607081
3810+1068211236+1067812706+1067418331+1067229867+1067383565+1067579890
3802+1067346371+1066701412+1066194367+1065965066+1065693969+1065357877
3793+1065335510+1065724197+1066079844+1065963021+1065480389+1065072656
3785+1065004403+1065292755+1065846645+1066459649+1066895820+1067157970
3776+1067441721+1067793278+1068099781+1068238013+1068150012+1067896106
3768+1067550940+1067011366+1066270546+1065760113+1065916624+1066547650
3759+1066982799+1066951037+1067023508+1067718826+1068749724+1069193116
3751+1068246066+1066488152+1065338194+1065073168+1064988042+1064512632
3742+1064068664+1064188235+1064557815+1064526244+1063823833+1063080904
3734+1063251730+1064209581+1065020188+1065233768+1065050864+1064843035
3725+1064892372+1065261057+1065717423+1065936691+1065853355+1065698698
3717+1065697867+1065836164+1065850607+1065446454+1064766666+1064458374
3708+1064747429+1065182834+1065334807+1065093874+1064671379+1064559604
3700+1065046454+1065716017+1065927808+1065577209+1065136692+1065028432
3691+1065144297+1065033928+1064533913+1064041950+1063932923+1064200314
3683+1064678920+1065202262+1065621050+1065763948+1065393218+1064436006
3674+1063515030+1063366508+1063867034+1064365772+1064329983+1063966539
3666+1063795522+1063923273+1064200058+1064593028+1065199194+1065924548
3657+1066317390+1065915857+1064924135+1064042781+1063641568+1063654413
3649+1063895985+1064194882+1064389865+1064372865+1064023928+1063167371
3640+1061908642+1060900367+1060810960+1061626361+1062836967+1064094483
3632+1065347077+1066294000+1066060480+1064401752+1062706148+1061947050
3623+1061877199+1062069114+1062335418+1062482534+1062374402+1062338422
3615+1062737527+1063237606+1063041409+1061964305+1060831283+1060519285
3606+1060952324+1061489278+1061903721+1062300780+1062528165+1062230482
3598+1061341715+1060160314+1059190129+1058991439+1059722737+1060912893
3589+1061884612+1062163698+1061695637+1060849113+1060029367+1059483721
3581+1059364469+1059679535+1060243969+1060775747+1060990989+1060729861
3572+1060162295+1059693851+1059503916+1059313854+1058828794+1058372811
3564+1058454038+1058940696+1059321843+1059310148+1058881965+1058028284
3555+1056930282+1056158787+1056146708+1056684876+1057366454+1058014735
3547+1058351594+1058050779+1057414193+1057123412+1057260111+1057325361
3538+1057065575+1056797162+1056846563+1056974315+1056744886+1056256630
3530+1055975243+1055940925+1055688361+1055035222+1054428225+1054373840
3521+1054815443+1055221642+1055298970+1055374509+1055797324+1056202244
3513+1055916512+1054947733+1053999595+1053551793+1053407936+1053204837
3504+1052882486+1052558089+1052307762+1052216630+1052391737+1052785729
3496+1053203751+1053574097+1054041199+1054694466+1055314308+1055508077
3488+1055193458+1054839537+1054941853+1055367032+1055558884+1055269317
3479+1054722138+1054161154+1053620174+1053071781+1052595476+1052373268
3471+1052454750+1052586656+1052565822+1052654399+1053197999+1053951664
3462+1054297087+1054069063+1053690793+1053556714+1053732524+1054185951
3454+1054887212+1055645670+1056183711+1056404193+1056358435+1055986683
3445+1055205090+1054238675+1053529681+1053257625+1053179849+1053021294
3437+1052825863+1052828803+1053157545+1053733611+1054316003+1054598668
3428+1054432060+1053940289+1053275327+1052372373+1051194807+1050044082
3420+1049312528+1049055746+1049069039+1049174040+1049242677+1049218711
3411+1049242549+1049491087+1049853892+1050029511+1049927450+1049708374
3403+1049492493+1049298021+1049203501+1049312081+1049580238+1049870891
3394+1050131508+1050354354+1050461720+1050433536+1050471370+1050837434
3386+1051570457+1052415128+1052895012+1052515143+1051280699+1050016218
3377+1049689265+1050346877+1051132049+1051320833+1050929845+1050403691
3369+1050126075+1050217208+1050538537+1050876482+1051167965+1051478877
3360+1051790492+1051946491+1051846475+1051620433+1051500862+1051482009
3352+1051288432+1050828679+1050481020+1050667375+1051278398+1051769339
3343+1051772470+1051392538+1050960201+1050670954+1050432386+1049979343
3335+1049253541+1048650507+1048623282+1049057472+1049372026+1049249068
3326+1048938667+1048863767+1049188164+1049752917+1050273383+1050611200
3318+1050808100+1050841971+1050603978+1050239768+1050179183+1050606982
3309+1051145406+1051262805+1050875267+1050374166+1050100384+1049970779
3301+1049764804+1049609252+1049840343+1050386628+1050674980+1050295431
3292+1049484760+1048780943+1048429066+1048336655+1048416859+1048696392
3284+1049142022+1049587907+1049862839+1049937355+1049947517+1050022481
3275+1050067216+1049859835+1049444881+1049215772+1049470445+1049998451
3267+1050267504+1049997301+1049445137+1049063351+1049017402+1049174679
3258+1049408837+1049710419+1050113613+1050618997+1051031586+1050929014
3250+1050115658+1049018424+1048265909+1048002353+1047945028+1047924833
3241+1048003567+1048199253+1048415006+1048588963+1048747391+1048907736
3233+1049016251+1049014718+1048964933+1049037277+1049296040+1049544258
3224+1049510387+1049228298+1049089106+1049392924+1049933904+1050221746
3216+1050087411+1049878177+1050024142+1050548954+1051092874+1051316423
3207+1051168924+1050814108+1050471242+1050310897+1050286484+1050065491
3199+1049404683+1048591520+1048185321+1048304062+1048553942+1048707193
3190+1049006857+1049660379+1050403755+1050795383+1050681882+1050176371
3182+1049439577+1048725662+1048448174+1048887669+1049828904+1050687762
3173+1051064179+1051083735+1051151988+1051440213+1051699935+1051563300
3165+1050951701+1050203404+1049820276+1050013150+1050448171+1050529015
3156+1049999027+1049230279+1048900195+1049367042+1050344449+1051208994
3148+1051593336+1051577040+1051352276+1050973174+1050464340+1049904699
3139+1049326780+1048724704+1048186408+1047854278+1047702178+1047429802
3131+1046677671+1045413317+1044069910+1043189068+1042901546+1042811117
3122+1042392137+1041462916+1040313981+1039391982+1038896887+1038714814
3114+1038658255+1038611475+1038491072+1038261324+1038034706+1038021733
3105+1038307273+1038684394+1038790481+1038509478+1038164567+1038150635
3097+1038465765+1038798341+1039014414+1039303086+1039819717+1040420515
3088+1040845502+1040987058+1040874516+1040558556+1040165523+1039911680
3080+1039882858+1039922545+1039893019+1039867648+1039922673+1039941717
3071+1039826811+1039717528+1039802590+1040069213+1040378272+1040634734
3063+1040781403+1040780316+1040673846+1040538425+1040372904+1040162838
3054+1040009460+1040085574+1040462119+1040981882+1041290940+1041100878
3046+1040501358+1039899155+1039595656+1039537756+1039512448+1039449243
3037+1039478896+1039760155+1040278000+1040775395+1040915545+1040623806
3029+1040262535+1040315195+1040873047+1041549000+1041888734+1041739446
3020+1041263907+1040757246+1040432146+1040270651+1040079503+1039696567
3012+1039062856+1038121941+1036793807+1035103700+1033229665+1031345725
3003+1029496487+1027715694+1026134358+1024780214+1023394883+1021722286
2995+1019947373+1018573162+1017840714+1017468770+1016952331+1015940413
2986+1014366938+1012399662+1010247948+1007944133+1005462910+1003079210
2978+1001253298+1000090559+999346288+998965716+999081389+999536413+999962935
2968+1000216457+1000260362+999907846+999148301+998434067+998211284+998357888
2958+998390545+998135106+997899349+997924210+997955333+997587990+996811254
2948+995937570+995173998+994456057+993549780+992200940+990299106+987929274
2938+985285086+982623643+980221793+978183899+976381122+974728592+973413177
2928+972721630+972733261+973286447+974238866+975647396+977545460+979606105
2918+981295637+982417732+983272308+984216483+985269940+986220442+986911925
2908+987274666+987205773+986662301+985928766+985578743+985976569+986887704
2898+987765159+988403982+989109461+990203180+991613371+993054749+994384289
2888+995633049+996839629+997990226+999029113+999874614+1000501167+1000981690
2878+1001331458+1001391084+1001032944+1000453364+1000077521+1000115994
2870+1000338010+1000380764+1000207830+1000069980+1000037579+999863238+999433650
2860+999051800+999030455+999237261+999341047+999326923+999468224+999907335
2850+1000540406+1001227288+1001852115+1002211341+1002079372+1001396772
2842+1000274613+998858798+997305198+995803874+994469606+993231327+991964289
2832+990744799+989867664+989582571+989894122+990673031+991837816+993301689
2822+994863534+996361087+997867076+999526444+1001271704+1002882566+1004259077
2812+1005491157+1006713012+1007913841+1008839290+1009169311+1008908758
2803+1008446321+1008113169+1007903615+1007739372+1007714192+1007905277
2795+1008171901+1008348478+1008517003+1008899747+1009520229+1010144481
2786+1010584870+1010885748+1011154033+1011392026+1011593272+1011833885
2778+1012165759+1012531056+1012844588+1013097088+1013349013+1013648549
2769+1013981445+1014321755+1014674782+1014997900+1015144505+1015021546
2761+1014758054+1014589082+1014622441+1014812823+1015065579+1015267847
2752+1015339104+1015362814+1015499130+1015670339+1015589495+1015233912
2744+1014950928+1014907534+1014819597+1014441838+1013978697+1013795537
2735+1014006753+1014471235+1014982498+1015387994+1015645990+1015786395
2727+1015824037+1015775659+1015702932+1015617231+1015421737+1015078041
2718+1014759779+1014703668+1014942620+1015290854+1015560737+1015712454
2710+1015813748+1015940413+1016112965+1016294783+1016461646+1016668452
2701+1016990164+1017417197+1017869536+1018280081+1018601409+1018804764
2693+1018948365+1019161945+1019490623+1019831189+1020067648+1020161528
2684+1020088226+1019849338+1019599714+1019565843+1019776675+1020053396
2676+1020281356+1020482601+1020656942+1020799329+1021012525+1021362102
2667+1021703242+1021863267+1021871319+1021860902+1021900078+1022010191
2659+1022173732+1022260327+1022120496+1021805239+1021570441+1021617541
2650+1021893495+1022171175+1022323595+1022487264+1022883748+1023451569
2642+1023779417+1023535161+1022894101+1022372421+1022254511+1022368778
2633+1022410318+1022261094+1021982967+1021721839+1021632687+1021722414
2625+1021802746+1021716790+1021506853+1021278766+1021104297+1021137785
2616+1021570889+1022343407+1023088317+1023490489+1023564047+1023538037
2608+1023587310+1023702408+1023726629+1023534266+1023262210+1023265406
2599+1023675694+1024136662+1024195393+1023796864+1023161364+1022456332
2591+1021879691+1021725098+1022066558+1022670487+1023346569+1024020733
2582+1024467768+1024427698+1023944810+1023247000+1022473268+1021820385
2574+1021663747+1022199998+1023102377+1023761075+1023873234+1023667834
2565+1023444795+1023105956+1022461956+1021771431+1021454640+1021469850
2557+1021498545+1021523085+1021733470+1022106500+1022454095+1022725001
2548+1023062434+1023623418+1024326532+1024783729+1024636293+1023930112
2540+1023050356+1022450900+1022478764+1023116181+1023819104+1023971396
2531+1023591464+1023294739+1023536503+1024178457+1024812743+1025242843
2523+1025526083+1025703491+1025688920+1025446390+1025157334+1025112663
2514+1025399098+1025728032+1025689112+1025238370+1024782962+1024696559
2506+1024938130+1025234407+1025414947+1025482689+1025534774+1025644376
2497+1025745926+1025760369+1025794240+1025960209+1026103363+1026063228
2489+1026008907+1026138320+1026293680+1026243896+1026094671+1026122663
2480+1026376057+1026638911+1026725570+1026718859+1026888343+1027394685
2472+1028139084+1028885144+1029449387+1029799474+1029998100+1030059579
2463+1029933233+1029602191+1029076293+1028377460+1027651850+1027094829
2455+1026650925+1026110776+1025569093+1025439232+1025968389+1027004975
2446+1028161196+1029012641+1029294091+1029111570+1028860668+1028806857
2438+1028811842+1028587717+1028107322+1027617276+1027351931+1027399159
2429+1027718570+1028166053+1028591040+1028910196+1029030023+1028902719
2421+1028708375+1028711251+1028956210+1029339338+1029761193+1029980397
2412+1029676196+1028903997+1028219608+1028190210+1028880671+1029794298
2404+1030310482+1030260378+1029959563+1029666610+1029283163+1028687669
2395+1028065973+1027729626+1027713969+1027712627+1027418650+1026827758
2387+1026178007+1025715506+1025566281+1025696781+1025956694+1026269267
2378+1026778230+1027685530+1028936526+1030113262+1030693226+1030516584
2370+1029946143+1029390464+1028823218+1028131990+1027741705+1028361931
2361+1030108213+1032184196+1033422220+1033089515+1031349176+1029070541
2353+1027134580+1025909913+1025398267+1025634982+1026699687+1028326781
2344+1029676260+1030009284+1029507096+1028814462+1028256674+1027840954
2336+1027556628+1027416222+1027403121+1027483645+1027524290+1027213634
2327+1026331514+1025111193+1024145928+1023937844+1024470197+1025159124
2319+1025393410+1025179830+1025053612+1025391876+1026072815+1026737329
2310+1027101412+1027069713+1026763083+1026381042+1026020282+1025720043
2302+1025520139+1025372704+1025210697+1025107167+1025129726+1025173056
2293+1025188330+1025335318+1025662143+1025871888+1025659586+1025160082
2285+1024871730+1025137587+1025823510+1026558450+1027163530+1027759471
2276+1028537613+1029472649+1030239096+1030533840+1030499010+1030637626
2268+1031264051+1032156013+1032733357+1032612060+1032045964+1031736969
2259+1032162084+1033173682+1034177802+1034633018+1034502710+1034223944
2251+1034142014+1034116834+1033758503+1032924825+1031970552+1031488112
2242+1031696452+1032182727+1032404103+1032213914+1031796340+1031455775
2234+1031586402+1032397585+1033443629+1033827779+1033261300+1032618898
2225+1032891784+1033880759+1034533386+1034291431+1033541024+1033004837
2217+1032968538+1032917475+1032169945+1031027400+1030562982+1031168892
2208+1032247337+1033362082+1034737316+1036527503+1038224577+1039074999
2200+1038947055+1038404094+1037919544+1037629083+1037699190+1038083851
2191+1038355524+1038623042+1039708965+1041692026+1043468345+1044167561
2183+1043765900+1042420192+1040384343+1038199461+1036337952+1035222185
2174+1035544600+1037648767+1040667647+1043084003+1044164941+1044336598
2166+1044102311+1043211563+1041314394+1038990257+1037555525+1037727054
2157+1038683499+1039087077+1038794890+1038603231+1038628155+1038161755
2149+1037288646+1037152586+1037930089+1038210517+1037362843+1036805694
2140+1037692416+1038893436+1038621828+1036911589+1035252094+1034740192
2132+1035506000+1036927055+1037744309+1036907691+1034733034+1032595316
2123+1031464849+1031250886+1031257468+1030849417+1029937387+1029072011
2115+1028910452+1029555410+1030486931+1031071688+1031079293+1030828327
2106+1030873063+1031456605+1032227973+1032638390+1032725496+1033170806
2098+1034264589+1035234136+1035129007+1034034968+1032920862+1032612635
2089+1033147352+1033775375+1033567802+1032348504+1031015321+1030775220
2081+1032013435+1033890409+1035104147+1035033976+1033903702+1032200429
2072+1030684407+1030492619+1032088974+1034394706+1035834742+1035899544
2064+1035106064+1034084050+1033287310+1033069832+1033464782+1034018927
2055+1034238323+1034300761+1034927506+1036353290+1038004670+1039411474
2047+1040525516+1040759674+1039159677+1036199847+1034043660+1034283123
2038+1036168660+1037559360+1037072382+1034864301+1031951061+1029722977
2030+1029645392+1032062580+1035543514+1038391760+1040150249+1041134877
2021+1041592649+1041850134+1042437511+1043706019+1045504450+1047133973
2013+1047968034+1048378451+1049200434+1050113294+1049791901+1047936464
2004+1045748067+1044224439+1043296241+1042701642+1042725033+1043605747
1996+1044580790+1044315827+1042496370+1040291357+1038761467+1037641545
1987+1036334501+1035056216+1034502838+1035163390+1037183006+1040256975
1979+1043464830+1045550272+1045723590+1044326820+1042569289+1041489949
1970+1041291707+1041757659+1042797057+1044118608+1044886653+1044398652
1962+1042941808+1041645757+1041283527+1041401181+1041153794+1040536955
1953+1040021346+1039475254+1038473178+1037422725+1037339005+1038496505
1945+1039925101+1040294169+1039202750+1037655221+1037041195+1037860941
1936+1039590799+1041410895+1042815207+1043520366+1043285057+1042240100
1928+1041023166+1040171274+1039698420+1039523568+1039871291+1040896245
1919+1042236074+1043226646+1043589387+1043766092+1044239010+1044809196
1911+1044876619+1044309692+1043681606+1043530080+1043765709+1043970661
1902+1043972067+1043896272+1043820541+1043731390+1043765453+1044107680
1894+1044710650+1045453068+1046284446+1046892465+1046765224+1045987402
1885+1045350112+1045463038+1046145510+1046749887+1046881345+1046640860
1877+1046346947+1046305407+1046738958+1047650540+1048739275+1049564453
1868+1049868079+1049809028+1049710866+1049631173+1049405770+1049007879
1860+1048666420+1048559821+1048587749+1048600083+1048699780+1049119718
1851+1049804044+1050346046+1050510226+1050598355+1050997779+1051504376
1843+1051511534+1050936811+1050258237+1049884887+1049902142+1050137068
1834+1050378703+1050511504+1050466065+1050239001+1049928920+1049561833
1826+1049017785+1048248973+1047374650+1046530746+1045776186+1045168870
1817+1044830094+1044873743+1045252653+1045736755+1046048945+1046049328
1809+1045912438+1045995518+1046409066+1046925505+1047363210+1047790562
1800+1048330392+1049046288+1049978384+1051074596+1052253313+1053534474
1792+1054844649+1055893441+1056619435+1057288678+1058139164+1059195305
1783+1060265698+1061153251+1061907300+1062700524+1063522443+1064274575
1775+1065015459+1065857062+1066723269+1067412004+1067892527+1068316812
1766+1068794331+1069271979+1069676899+1070053125+1070441940+1070829094
1758+1071296516+1071858394+1072236920+1072196147+1072042513+1071979691
1749+1072203305+1072423531+1072162979+1071328151+1070188290+1068751130
1741+1066455687+1062879147+1058272220+1052281688+1042530242+1026453450
1732+1006161167+984961521+962007795+936694526+910751062+885714068+862633612
1723+843244412+828348701+816725330+807138893+800891580+800368238+804993826
1713+812824905+822907841+834671427+847474602+860896724+873936167+884909404
1703+893806657+902497041+911635867+919568495+926143209+932501914+938207992
1693+942602170+946254185+949807654+953256315+956497402+959870971+963605108
1683+966915919+969218264+971014970+972869449+975103987+977945012+981284773
1673+984664860+987996825+991546651+995077370+998032214+1000549992+1003079466
1663+1005636803+1007881120+1009735982+1011441555+1013149429+1014922553
1655+1016952011+1019314877+1021341395+1022730305+1023934649+1025251343
1646+1026580754+1027776343+1029026189+1030482522+1032048520+1033615158
1638+1035288585+1037233302+1039210419+1040800000+1042078221+1043394979
1629+1044993698+1046781265+1048429961+1049771578+1050790973+1051391643
1621+1051410432+1050408293+1047102275+1039787827+1028216924+1012824713
1612+992993590+968856609+943444412+921778110+907650189+901932479+903297168
1602+909260411+916780706+923187981+927118635+928551513+928242455+926957267
1592+924629807+920278128+913014487+902980057+891258523+879266722+868474983
1582+860447324+856425730+856717469+861332640+870575699+882730401+894104085
1572+903792070+912973395+921683079+928825422+934829183+941203354+948197559
1562+955067847+962084292+971028071+981255375+988586695+993250819+997228956
1553+1000998689+1004478856+1007751195+1010900128+1014004772+1017265479
1544+1020765330+1024354332+1027910421+1031048681+1033143198+1034308366
1536+1034608222+1033235417+1029338698+1023553119+1017046531+1010028360
1527+1002554271+995577321+990628295+989349818+992900859+999707814+1006378901
1517+1010751478+1011405575+1007406859+999172394+988479265+977648287+968174201
1507+960657485+956149680+954394642+953424648+951892073+949121667+944528736
1497+937573643+928760748+919703532+911242386+903481989+897890818+897794764
1487+904604851+915880628+928607752+941100527+952335658+961308834+967551419
1477+971483542+973762114+974617648+973618193+969958765+963472819+954473248
1468+942812810+928710836+914816753+905243546+901066783+900340087+900925930
1458+901150822+900161400+898612401+897247329+896216304+895514467+895178440
1448+895624453+897752010+902303464+909376084+918285417+927843222+937549422
1438+947937007+958429082+966209545+969700768+969531668+966619962+962282151
1428+958576965+957448096+960170252+966715887+975415794+984250737+991238552
1418+993737541+990219732+981081035+966886905+948542790+928209095+908713040
1408+892022158+878627899+868696105+863171205+863116436+869043572+880558428
1398+895257877+909705274+921984468+931549815+938426302+943651729+948909365
1388+955525683+963654317+972259831+980364180+987724897+994323001+999965619
1378+1004394242+1007447185+1008948765+1008462170+1005303651+998842054+988954101
1368+977041738+966442617+960454514+960176579+963959733+967777333+967303137
1358+959779647+943878027+920174278+892496226+867135922+849519334+841568300
1349+841837736+847825584+857879953+870722432+884406065+896977319+907813217
1339+917802721+928079554+938743285+948970078+957910981+965368070+971963491
1329+978702064+986061439+993351601+999061450+1001928741+1001838631+999999873
1319+998382876+998564694+1000653459+1003177820+1003913655+1001158395+994892420
1309+987183853+981599008+981442625+987387911+996692961+1005174046+1010003244
1299+1010701630+1008134323+1003283651+996820201+989057504+979850680+968686551
1289+955170164+939514525+922490555+904922920+887309528+869892396+852990618
1279+837113219+822543438+808835967+795039280+780625116+766218045+753436215
1269+744033386+739165779+739306505+744390503+753702967+765829549+779044674
1259+791869003+803415238+813429026+822093783+829763750+836713219+842917204
1249+848006059+851535116+853352336+853655196+852655229+850150616+845325699
1239+836988982+824463550+808989026+794386270+785526849+785365482+793357033
1230+806597402+821989613+837400868+851727031+864698859+876694686+888364519
1220+900033840+911266671+921036012+928373721+932904278+934905745+934935015
1210+933235385+929341926+922445500+912662994+902268826+895199402+894532331
1200+900238090+909582635+919489888+928285976+935711751+942080554+947621430
1190+952247337+955593362+957252793+957109256+955389623+952188159+947051819
1180+939518679+930439352+922658185+919836589+923969894+933770613+945545063
1170+955601095+961827383+963714071+961897234+957965622+954191095+952805189
1160+955092452+960858412+968647567+976719514+984181078+991285077+998584953
1150+1005968932+1012654015+1017822372+1020874740+1021096692+1017235315
1142+1007312212+988893708+960155105+921476528+876283567+830060857+788211747
1132+754550065+731097794+718335968+715312550+719945487+729713997+742375488
1122+756338847+770518661+783831949+794901431+802270264+804789448+801937560
1112+794251296+783739794+773585280+766750909+764224311+764260291+763364686
1102+758483275+749172666+738476533+731587520+732794165+743008751+759811345
1092+779469789+798921236+816556485+831930610+845017152+855662734+863562322
1082+868436383+870078176+868569823+864849043+860847004+858517370+858617003
1072+860602940+863616643+867408489+872436313+879176101+887252330+895312455
1062+901984181+907072909+911839541+918040841+926465880+936244487+945635940
1052+953456027+959673687+964903077+969679104+974160771+978221860+981693911
1043+984546056+986888982+988883802+990665554+992247913+993382022+993383811
1033+990965985+984426803+972792503+957494749+942709855+933244971+931601964
1023+936861326+945885820+955218606+962283685+965486747+963347751+953865165
1013+935912741+912033502+888811938+872740323+865253899+862041314+856629084
1003+844095665+822432622+792629954+759083370+729691565+713462993+715561344
993+733871779+760938168+789283993+814815251+836497530+854646471+869866194
983+882733149+893733227+903226869+911479420+918781406+925439647+931608674
973+937265287+942360087+946907068+950973909+954547126+957366422+959117497
963+959878960+960176642+960685733+962071830+964737108+968338700+971825066
953+974135591+974260659+969827306+955990996+927972955+887192960+844638945
943+815527696+809032228+823166987+848643221+875968053+899383130+916883214
933+928732820+936196300+940771657+943714358+945862366+947831623+950234367
924+953497631+957516158+961734908+965678599+969279040+972654143+975780324
914+978538141+980969196+983352832+986002196+988962025+991956812+994712647
904+997227614+999628569+1001954943+1004198493+1006358706+1008358000+1010048491
894+1011339750+1012202186+1012480825+1011860599+1010331603+1008662905
885+1007840219+1007827821+1007440794+1005626003+1002280042+997751722+992237879
875+985747587+978140825+969448588+960921680+955435381+955642251+961401948
866+969724606+977304591+982460422+984787244+984033962+979924111+973020718
856+965637314+961255663+961978141+966486075+971381993+974598732+976809113
846+979717752+983969670+988883802+993464654+997265128+1000567247+1003982037
836+1007791393+1011572630+1014337093+1014841262+1011995189+1005550847+996519451
826+986727167+978202880+973034203+972919808+978021445+986421240+995111944
816+1001529189+1004244442+1002633900+996354824+985495854+971314506+956407420
806+943038469+930271082+913497056+888871564+858269152+827882110+802543726
796+784579799+777466150+785243482+806600278+833623785+858569647+879468607
786+898251641+916329964+933625287+949828233+964577977+976950861+985821529
776+990402062+989686869+981641187+964070996+936958466+903515541+868796696
766+838216204+817339804+810701885+818655411+836080148+855949488+874170645
756+890274086+904239170+914225286+918080209+916684525+914855162+918161947
747+928651146+943595426+958043653+968588708+975151790+979532419+982593159
737+983443197+981527176+978477620+976463947+974586717+967810629+949873927
727+917772237+875300600+833416723+805619676+800364276+816200966+844011051
717+874021611+900451031+921176417+935618893+943370598+943805235+936585372
707+922895091+906329788+891952754+883784817+883351649+890387331+903553247
697+920165267+936549967+949797621+959318999+966557396+973235321+979877074
687+985936691+991007716+995216944+998448701+1000242659+1000891963+1001733886
677+1003775359+1006597530+1008965764+1010100704+1010084152+1009314957
669+1007886488+1005369988+1001439718+996551277+992149303+990585477+993368601
659+999213359+1004999003+1008285081+1008505564+1006118668+1001457676+995168374
649+989319143+986800470+989138092+995326227+1002597920+1007957362+1009743779
639+1008820949+1008179250+1010581802+1016337665+1023359989+1029107480
630+1032400333+1033926772+1035266153+1037252091+1039395241+1040879501
622+1041523501+1041620513+1041463683+1041279245+1041278159+1041571943
613+1042081736+1042638693+1043283588+1044302726+1045692083+1046850478
605+1047239740+1047172254+1047497736+1048582764+1049967712+1051159274
596+1052351347+1053859957+1055193714+1055509547+1054922936+1054485743
588+1054862160+1055788760+1056669922+1057180226+1057380705+1057428125
579+1057199079+1056439662+1055291046+1054190360+1053107186+1051313675
571+1047965670+1042753216+1036440908+1031114059+1029322019+1032287663
562+1038833299+1046151325+1051644463+1054213751+1054294658+1052948630
554+1050754098+1047703072+1044268216+1041768843+1040934334+1040788305
545+1039873464+1037961340+1035721881+1033534825+1031548249+1030073319
537+1028903742+1026817725+1022549510+1015879318+1007641465+999488866+993692550
527+992133965+994848835+1000046079+1005959346+1011867948+1017453688+1022154048
517+1025178232+1026056390+1025143402+1023118865+1020003484+1015231036
509+1008760364+1001632911+995163581+989980653+986408267+985374685+987834882
499+993367642+1000301391+1006939629+1012324314+1016476473+1020487586+1025724708
489+1031941602+1036714945+1037771662+1035843753+1034136582+1034605538
480+1036241196+1037354599+1037843558+1038546864+1039646463+1040597604
472+1040745039+1039578401+1037256372+1035029503+1034368567+1035625060
463+1038087622+1040915354+1043547016+1045689975+1047252841+1048300228
455+1049227850+1050777105+1053408959+1056654648+1059458861+1061099121
446+1061621184+1061684389+1061907555+1062340339+1062967212+1064476524
438+1067443127+1070723071+1072196147+1072237815+1072069290+1072219538
429+1071317670+1068336623+1063245722+1056103762+1047752857+1040191725
421+1034947573+1032423276+1031707316+1030266321+1026406094+1020885349
412+1015422312+1010433025+1005611879+1002527174+1003478443+1007982733
404+1013303063+1017845060+1021829588+1025988584+1031707508+1040512606
395+1050447149+1056745205+1056951244+1052508241+1046380563+1041197187
387+1039764181+1044305666+1053049221+1061219651+1066989190+1071078654
378+1072196147+1073741823+1070685749+1072196147
##END=
