##TITLE=X9571
##JCAMP-DX=4.24
##DATA TYPE=INFRARED SPECTRUM
##DATE=19/11/2018
##SAMPLING PROCEDURE=Instrument type and / or accessory
##ORIGIN=Default
##XUNITS=1/CM
##YUNITS=TRANSMITTANCE
##RESOLUTION=4
##FIRSTX=3996.5625
##LASTX=399.65625
##DELTAX=-2.0390625
##MAXY=0.83475411
##MINY=0.59171557
##XFACTOR=1
##YFACTOR=7.7742535e-010
##NPOINTS=1765
##FIRSTY=0.7333011
##XYDATA=(X++(Y..Y))
3997+943243111+943701440+944442372+945086854+944931522+944539282+944647616
3982+944942026+944991708+944563050+943919641+943286659+942644247+941882615
3968+941199338+941265274+942282062+943411554+943810464+943954679+944198487
3954+944164599+943945019+943997384+944281367+944415768+943916958+942782482
3939+942520657+943311730+943929148+943792753+942839141+942289882+942888362
3925+943521574+943541891+944045762+944872334+944113538+942680665+942506933
3911+942681202+943511070+946297079+948225005+946408326+943523798+941388405
3897+940990798+943324611+945468207+944790297+944553543+945185911+943964339
3882+944069146+944901391+944561746+945978978+947177242+947894407+948368376
3868+945854390+944634582+945201321+944423128+944231762+946679505+951150475
3854+951848012+944121665+940353139+942314493+945249853+947208217+948580367
3840+949790438+948019454+944195344+943170199+943880616+944270326+944678897
3825+945642783+948650979+950456311+948467586+947710937+945932440+943908447
3811+945347070+948185980+948500247+947192653+948240262+946952908+944113844
3797+943985040+943461619+943067309+943598397+943676983+943475879+943260209
3782+943744145+945022529+944540049+943161535+943645932+945641480+947014167
3768+946077115+944298157+943128644+943863749+945249546+945146733+946508993
3754+950739681+953319909+949230139+946191889+948227151+946553461+942577162
3740+943958666+947534904+948295080+945825486+942972929+941569574+941980905
3725+942522420+942878012+943319474+943195806+943436471+945152253+947596240
3711+947226081+944174566+942805023+943906761+945377967+944551933+943720071
3697+944400817+944978520+946520800+948864657+947291403+942822044+941476344
3683+942902086+945440146+949387694+952481837+949995222+948314708+947819501
3668+942943181+940448669+941482094+941953687+942355664+943967329+944364400
3654+944204544+946967782+948834065+945062397+940391934+938941811+939893430
3640+941139843+941734106+942131330+942473582+943931908+944872870+940562983
3625+937525499+939612131+943040858+943724518+941603232+941878705+943917954
3611+944559906+943347075+940682664+938881626+939060878+939743465+940330752
3597+940829256+940399371+939579470+939923101+940488384+939041558+937694325
3583+938471905+939299550+939040101+938415016+937892822+938205096+939908994
3568+940539599+938224723+936360510+936664963+937531863+938068318+938836161
3554+939903704+939629688+938542441+938383122+937971178+937182251+937491765
3540+938254471+938465005+938221043+938015646+938300626+938992643+939398530
3526+939212530+938208239+936906702+936634909+937602629+939181096+940159089
3511+939695930+938470678+938133717+939012807+939503184+938811780+937673011
3497+937067324+937228329+937618039+937964738+937817993+937001081+936312438
3483+936267970+937040336+938571805+939848732+939786860+938217440+936562610
3468+936546126+937416322+937745770+937802199+937945954+937941277+937829570
3454+937860544+937885002+937541830+937185624+937435106+938016950+938156564
3440+937634906+937213225+937443233+937769154+938015186+938687652+939104580
3426+938733807+938468148+938184165+937385425+937138243+937918813+938524500
3411+938566515+938815920+939019937+938187922+936702455+936164390+936905092
3397+937720699+937838617+937675311+937512926+937201725+937188845+937607689
3383+937928090+937875265+937536233+937127432+936726375+936482567+936618808
3369+937142460+937826350+938058351+937658981+937372007+937613669+937969798
3354+937907159+937517602+937420232+937666111+937468841+936749070+936440476
3340+936599718+936876034+937662201+938603546+938866138+938620720+938148821
3326+937623253+937242590+936953470+936917282+937267354+937663964+937698695
3311+937549650+937385578+937483945+938109643+938278852+937613746+937119459
3297+937306992+937811706+937955077+937484865+936905705+936927556+937554634
3283+937727753+937098375+936888531+937401448+937635596+937275328+936914215
3269+936656223+936297027+936154959+936370093+937084804+937737873+937414482
3254+936537079+935981993+936166766+936638589+937096305+937973938+938727674
3240+938479112+937569278+936636212+935983220+935861853+936105968+936271650
3226+936082737+935787330+935893900+935911151+935527421+935722698+936418472
3212+936788708+937142000+937470298+937185778+936512851+936076603+935663663
3197+934845601+934548508+935279243+936275560+937182634+937660897+937370244
3183+936656836+936297257+936531942+936754206+936580704+936470070+936616968
3169+936402984+936113481+936134182+935888304+935442778+935083966+934674859
3154+935046168+936356523+936624865+935957076+935762949+935513697+935141085
3140+935155959+935572273+936074150+936189307+935882553+935463019+935557169
3126+936252023+936696934+936677537+936765630+937027839+936903712+936206864
3112+935539075+935314051+935371859+935350315+935207327+935200273+935186013
3097+935350852+935971106+936297717+935925411+935558626+935544825+935291816
3083+934940134+935264752+935485100+934970572+934512627+934381062+934535321
3069+934841768+935101140+935378759+935444695+935243668+934795230+934322333
3055+934462331+934711583+934225193+933571358+933419936+933458654+933187015
3040+932599881+932155353+931859869+931216384+930381609+929938077+929971352
3026+930210406+930173682+929656931+929378621+929604949+929781212+929781902
3012+929506429+928614075+927409754+926623511+926524147+926977953+927318211
2997+927265156+927363752+927463729+927279723+927244225+927452996+927338068
2983+927194927+927684767+927888937+927238552+926594683+925845471+924728706
2969+924344363+924737139+924924519+924938780+924744806+923812661+922555362
2955+921638014+920726493+919730482+919231058+919384627+919503157+919023974
2940+918715764+919122648+919558819+919741906+919978967+920222315+920320759
2926+920700655+921424183+921831527+922036234+922304270+922407543+922334094
2912+922338924+922867712+923837502+924648740+924940926+925146630+925855054
2898+926607103+926942148+927007547+927165102+927593684+927737745+927449775
2883+927331091+927425701+927517628+927648196+927733758+928011301+928532499
2869+928715662+928516092+928222448+928095561+928269140+928341056+928252963
2855+928208035+928124312+928060600+927984467+927762663+927470169+927306021
2840+927464649+927688370+927522075+927394420+927846999+928429072+928772091
2826+928897982+928739889+928645280+929039590+929495389+929476911+929260397
2812+929217999+929270594+929332926+929457744+929490098+929468401+929644280
2798+929789492+929439803+928789341+928484197+928423782+928598665+929371491
2783+930282705+930755448+930823607+930733291+930571672+930454215+930380995
2769+930338367+930426307+930422550+930359221+930522374+930789413+930870376
2755+930778296+930748931+930783893+930728001+930709677+930790946+930652635
2741+930257865+929848067+929552967+929621586+930012523+930067955+929571368
2726+929080071+929152830+929632550+929917300+930018810+929843620+929466638
2712+929537250+929788265+929899512+929989292+929878352+929643667+929671345
2698+930068491+930535331+930626184+930172838+929930410+930291982+930504893
2683+930448311+930503743+930453141+930123233+930094252+930571442+931095630
2669+931543609+931578570+931164632+930919061+930818164+930862325+931343425
2655+931780747+931715194+931587463+931975180+932648413+933199358+933616439
2641+933741717+933575191+933388118+933258240+932958233+932694338+933018496
2626+933748157+934043257+933381141+932552500+932612915+933314669+933697172
2612+933502662+933093248+933083971+933599802+933860708+933853654+933380988
2598+932174213+931717418+932599651+933111649+932458580+932041806+932790328
2583+933836710+934333834+934341117+933791629+933052537+933017729+933471304
2569+933150060+932344726+932567757+933254407+933272808+932958847+933139326
2555+934218293+935510171+935437335+933812176+932812102+933397855+934181339
2541+934066718+933522979+933305852+932682914+931346032+930526054+930517927
2526+931032301+931898051+932405908+932016658+931211861+931152442+931366196
2512+931392417+932160030+933061737+933270507+932928639+932422009+932213851
2498+932103141+932339742+933381831+934263988+934009063+933094321+932472304
2484+932812332+933413342+932778291+931810188+931904337+932378614+932665433
2469+932939756+933167081+933249040+933321263+933522749+933967815+934134264
2455+933296498+932041039+931166396+930815557+930968512+931397170+931867230
2441+932212778+932175133+932054303+932476290+933078144+932988748+932435042
2426+932198594+932125988+932262843+932940753+933575038+933696559+933289828
2412+932590834+932111958+931713278+931208410+930982159+931054918+931465559
2398+931956319+931918981+931505657+931028698+930480282+929857651+929156357
2384+928099011+926631561+924829679+922507597+919820492+916824639+914022147
2369+912358960+910892507+907794761+903791628+901648031+901706990+902308844
2355+903331612+905739871+910277389+915143742+916548477+913127800+909663958
2341+909438091+910090469+910869583+912030969+912504632+911938429+912306595
2327+913997690+914995157+914458319+914061478+915711708+918482613+920348513
2312+920963324+921714836+923213031+924734073+925929117+926808054+927224368
2298+927563476+928635926+929239313+928807435+929442563+930934778+931828895
2284+933009142+934081055+933209095+931990437+932128288+932345033+932711588
2269+933875121+934372552+933539233+932706758+932448153+932570747+932969734
2255+932539466+930230724+927402010+926005019+926516097+928195768+929684455
2241+931234248+933072777+934036740+933868758+932746550+931686290+932023558
2227+933068484+933975635+934156191+933117629+932975867+934311370+934024473
2212+931791787+931349635+934014583+936569970+937322709+936539762+933740797
2198+931435121+932447923+933981155+933252337+933221899+935277556+934434424
2184+930125917+928574284+930835338+932026165+931163866+931801447+934657071
2170+937347397+937325776+935384280+932998562+928792408+926318827+929453987
2155+933670414+932884631+927275276+924077554+927042202+931740112+932003778
2141+928046416+926492943+929272281+932994498+934462868+931903341+929259171
2127+930269058+932127905+932573124+932894981+933775068+934981306+936703605
2112+938304076+938213146+936347246+933884552+931667583+931121161+932021641
2098+933121002+934836018+936173130+936257389+935129891+932808728+931434815
2084+932372633+934082665+934759578+933704456+931747932+930824604+931235091
2070+931257019+929879885+928771937+930952948+935462942+937590132+936495754
2055+934611300+933971955+935728755+937001618+936602171+937958374+938974242
2041+936243129+933849361+934463022+933904716+931732215+931360522+932698555
2027+934523130+935172902+933871288+931959233+930655242+930577116+930475145
2013+928991441+928930873+931996571+935866683+939409264+940639346+937543057
1998+933612606+934129280+938384732+941549180+941479411+938035657+931499217
1984+925080081+924814115+932361593+939630225+939767156+937690185+938634904
1970+939956912+937961364+934580479+934162938+934935534+933736120+932003164
1955+931939222+934042951+934735351+932761807+931945892+933261077+934512780
1941+933799832+932087194+931149605+930812184+930599580+930341741+930162335
1927+931499524+933883095+934752831+934737958+934335137+932623649+931770703
1913+932459270+932794545+932522139+932086810+932152593+933906939+935604857
1898+934708210+932369873+931413501+932671950+934119160+934546284+934783039
1884+934701233+934155271+933563691+933293125+934167845+936151816+938313506
1870+939186693+937088254+935057975+935913374+936623102+935762643+935521364
1856+936051686+936180490+936283994+936735806+937454044+937686658+936260916
1841+935677846+937009668+937483101+936499741+936380367+936938443+936741096
1827+937362961+938198119+937505795+936552183+936097764+936142922+936741096
1813+937271571+937120302+936655686+936849353+937635213+937769308+937056053
1798+936457956+936840306+938257614+938517677+936640123+935414947+935129124
1784+934871822+935238301+935444005+934975556+935712347+937543747+937300092
1770+934512933+931922048+930556951+930388202+929469091+927687450+926332551
1756+925096105+924813502+924758990+923626508+922388759+921429243+920853304
1741+920914562+920609649+921240713+923345745+923098564+922178685+923059769
1727+923783987+924091201+924830983+927418494+930917757+931483576+929850444
1713+929898976+931806277+935358365+938909533+940706891+942867738+944407641
1699+942843741+940674384+937401985+935942585+937037806+939248028+942915963
1684+944319165+941199338+939920418+941281758+942917957+943219957+943945325
1670+944212748+942411940+942437010+943860529+943608670+943132401+944806858
1656+948899618+951315850+947259355+947075195+949140436+946634807+943804177
1641+944398977+947272312+950755398+950014389+945719759+944563203+945610045
1627+946788529+947987407+947913191+947111383+948271160+948902301+946809613
1613+945946470+946599002+946989326+946900773+946709483+946269171+945466827
1599+944688711+944097207+943959509+944498111+945043383+945261430+945533069
1584+945974915+946729954+948626752+951497940+951777936+949580748+950375195
1570+951922228+951097266+950824170+952490730+956310317+960638912+958351177
1556+954746264+954284868+954626660+955329871+956445715+958522150+962227576
1542+966418319+965274797+962298955+963439641+964797147+964910388+966697932
1527+969174197+970801655+970250097+960974800+943891120+925468181+910719848
1513+905865225+908062337+912362717+913216200+909944874+911067313+915676057
1499+920376267+922774866+923922912+926281489+928824839+929535947+929299882
1484+929914156+931150525+932204881+933470154+935073999+935825128+934122840
1470+932225965+932896975+934107583+933445390+933154277+935387116+936175737
1456+931081139+927183426+926241314+925086598+922202376+918149255+914647232
1442+912453340+911818365+910374376+906390103+903964977+903316508+902113030
1427+901080909+901127600+901947118+903468850+903723699+902358832+902882637
1413+904753291+906288746+907816612+909713870+911156019+912412399+914443675
1399+916760467+918918631+920524009+922050878+924885725+928618599+932112571
1385+935154042+936611218+932317585+917165051+891077024+862339383+845698161
1370+846229709+855672988+866497081+876313586+884703966+891485288+897404003
1356+903075767+908542977+913525943+917957581+922136824+925886642+928395031
1342+928967061+926926278+921039840+908368631+885958122+857365539+833318525
1327+821986345+822936201+830851614+840571133+849291114+856689163+863399565
1313+869505814+874738569+878964274+882236979+885055188+887911119+890713535
1299+893234497+895295521+896885412+898136118+899208798+900489098+901944281
1285+903305775+904565374+905745314+906785563+907444612+907815002+908350077
1270+909204096+910086789+911004137+912315489+913606906+914240808+914494966
1256+914276842+911860687+906122987+899815329+896904349+896906496+896286472
1242+893414824+889551228+886769743+886207527+887871788+890782614+893558195
1228+895428542+896720420+897826681+897473695+894214484+889608654+885925384
1213+882999991+881085176+881459169+883738777+886539582+888985946+890535202
1199+890539879+888453171+884754108+881028671+878270953+876387036+875292735
1185+874936759+875080131+875589445+876530714+878225948+880690176+883425736
1170+886009644+888021523+889566639+891077407+892151544+892220239+890795801
1156+887877921+885386629+885382566+887783771+890982490+893339228+894408381
1142+894440582+893494176+891321752+887720212+883428649+880354211+880386642
1128+883483544+887915489+891798712+893627427+892638087+889537964+886840816
1113+887247623+891092588+896042280+900050473+903310911+906445765+909342101
1099+911918112+914109243+916037706+917932817+919930282+921854298+923141192
1085+924431996+926085062+927190480+927853823+928473387+929172381+930403996
1071+932196294+933831343+934644804+934892906+935417631+936397771+937451744
1056+938639887+939756882+940188377+939981217+939119607+936772377+933459114
1042+931417718+929851211+925200835+918085542+913352594+913671078+917522867
1028+922164578+925732843+927573903+928270903+928003481+926355858+923676803
1013+920240946+916307812+912954911+911819668+913795973+917928447+922980033
999+928227815+933054223+937552334+941959054+946032416+949614175+952867406
985+956007320+959283782+963161255+967443081+971465688+975320006+979109002
971+982891021+987371958+992867152+998784641+1005248628+1013394893+1023344189
956+1034490906+1046447405+1057881862+1067321920+1073741823+1071554142
944+1047067966+987474158+901022410+820729505+774231885+761122051+765970233
930+777241921+790240891+803126621+815259842+826150484+835070802+841998178
916+848079662+854303368+859971912+864492179+868442564+872333300+876174355
901+879641417+882820739+885822954+888080865+889055178+888559051+886783850
887+884188289+880946021+877742242+876774062+878698001+881614961+884620397
873+887440753+889754325+891971678+894346125+897112123+900068261+901921281
858+902085276+901954862+902547055+903296344+904170067+905418627+906949866
844+908908612+910500420+911016864+911379510+912143903+913103956+914410784
830+915757710+916844267+917747431+918274916+918891260+920171637+921613863
816+921996519+921474555+921734847+922765052+922925138+922037384+921796642
801+922539798+923198770+923817721+924631413+925281338+925821550+926534114
787+927657933+929449694+930743258+930567992+930243681+930393493+930472462
773+931218301+932501285+932516542+931598197+932279404+934423614+935052225
759+934369408+934077682+933896282+933973718+934647718+936291201+938616273
744+939869203+939144755+938073991+939087943+941539826+942777039+942966718
730+943731571+944265649+944133702+944763156+945149493+944239889+944925925
716+947712547+949724809+950633954+951472486+951867486+952047735+953591011
701+955897760+956805908+955921757+953689455+951567939+952526535+955909797
687+957683004+957971434+959037214+960678856+961591451+961535789+962258627
673+963495379+962073854+958635007+960933322+967163315+971492752+973086477
659+972093763+970289581+968886227+967585686+966742477+966640277+966406129
644+963982919+958006855+951324820+948340009+949540036+952409384+956221151
630+961369953+966600562+972401897+980394133+989142405+996953855+1004815447
616+1014882814+1024706296+1014739212+961362747+880276392+817624936+797041303
602+809312069+833887718+856124570+871426610+881430111+889744588+898047335
587+905452744+909457641+910973546+914419984+919498327+922125707+922234041
573+922763135+924421722+927054239+929234943+930274579+932525205+934652931
559+934579559+935752829+938934144+940863527+940870810+940197347+942272018
544+945934586+946229457+945116832+943968403+942408643+943491903+946851781
530+948585427+947782086+946524403+947543338+951385773+953080777+951436834
516+952853836+956211644+957074710+956551902+956159432+956875370+958562784
502+959246751+959266762+961870067+966760647+970271411+972042624+973398674
487+973624388+973084407+973582450+976051355+978731559+979505459+980452862
473+981437755+978778021+974908599+976879000+983194402+983831600+979483608
459+978223012+979627977+979625753+981642079+986202214+985453309+978119509
445+971587516+973817748+982243089+986002108+985884804+986280877+985999118
430+987241083+989578883+988368582+984279119+983093812+987166331+987024799
416+981880290+983723190+992507956+997035891+992459655+994421468+1008349824
402+1014129308+1004001832
##END=
