##TITLE=JB185.1
##JCAMP-DX=4.24
##DATA TYPE=INFRARED SPECTRUM
##DATE=7/2/2018
##SAMPLING PROCEDURE=Diamant ATR
##ORIGIN=Lara
##XUNITS=1/CM
##YUNITS=TRANSMITTANCE
##RESOLUTION=4
##FIRSTX=3997.453
##LASTX=373.96442
##DELTAX=-1.4165319
##MAXY=0.90313089
##MINY=0.57445765
##XFACTOR=1
##YFACTOR=8.4110619e-010
##NPOINTS=2559
##FIRSTY=0.85696977
##XYDATA=(X++(Y..Y))
3997+1018860387+1019374935+1019894514+1019986000+1019757604+1019672070
3989+1019846114+1019940576+1019712250+1019329582+1019094240+1019116917
3980+1019386911+1019871908+1020333166+1020358252+1019877436+1019329865
3972+1019027911+1018771381+1018397074+1018252227+1018735665+1019691841
3963+1020586649+1021032812+1020893847+1020172870+1019178569+1018571685
3955+1018797459+1019568324+1020259750+1020657584+1021021332+1021498251
3946+1021776465+1021492511+1020825179+1020427203+1020576444+1020800660
3938+1020716260+1020650781+1021059528+1021763851+1022207463+1022291509
3929+1022366200+1022477954+1022320280+1021807716+1021198139+1020716969
3921+1020441660+1020464407+1020773306+1021149951+1021462251+1021779867
3912+1022082175+1022192865+1021975311+1021433339+1020745527+1020264356
3904+1020203909+1020204476+1019759730+1019116563+1018983975+1019499231
3895+1020179248+1020674662+1021033166+1021322294+1021386497+1021238745
3887+1021165045+1021227760+1021184817+1021074268+1021219115+1021570320
3878+1021725443+1021576343+1021284948+1020970522+1020782731+1020838360
3870+1020915531+1020734189+1020555185+1020813628+1021453110+1022025200
3861+1022272305+1022253738+1022106552+1022040577+1022302635+1022866929
3853+1023148900+1022739586+1022090183+1021705317+1021751308+1022049365
3844+1022094151+1021495203+1020579846+1020248128+1021039898+1022395396
3836+1023226213+1023207930+1022643777+1021781709+1020916665+1020515217
3827+1020818943+1021646358+1022753617+1024014156+1024936530+1024761140
3819+1023870159+1023451066+1023755571+1024008700+1023719430+1023249031
3810+1023015816+1023031548+1023016737+1022832843+1022787136+1023161017
3802+1023613133+1023501026+1022990730+1022804852+1023067051+1023375099
3793+1023509175+1023541348+1023493160+1023345620+1023166687+1022942258
3785+1022522527+1021945690+1021570887+1021756339+1022510835+1023374107
3776+1023796318+1023674927+1023368934+1023325990+1023691935+1024164106
3768+1024330779+1024099335+1023667487+1023372477+1023496845+1023961787
3759+1024282166+1024131083+1023808861+1023672731+1023690730+1023795114
3751+1024038108+1024177286+1023822184+1023046784+1022273297+1021996216
3742+1022237014+1022441600+1022300580+1021968508+1021852432+1022205479
3734+1022726901+1022971384+1022996682+1023178946+1023696399+1024317102
3725+1024608356+1024415604+1024008416+1023714824+1023689809+1023965897
3717+1024491217+1025122266+1025650916+1025905036+1025883989+1025679049
3708+1025251877+1024704661+1024440052+1024712668+1025275192+1025684647
3700+1025838423+1025842108+1025658286+1025318773+1025062456+1025002788
3691+1024981033+1024936175+1025092928+1025403669+1025479848+1025297160
3683+1025207374+1025400976+1025687978+1025960877+1026542959+1027502395
3674+1028007801+1027833616+1027955857+1028664645+1028807366+1027709036
3666+1026415686+1025982208+1026348436+1026698082+1026464441+1025833108
3657+1025255987+1024896491+1024710472+1024766596+1025140124+1025629585
3649+1025790235+1025457172+1024909530+1024345094+1023798373+1023354407
3640+1023131750+1023124664+1023213811+1023346257+1023521222+1023665857
3632+1023780728+1024033573+1024322275+1024035486+1023120766+1022304052
3623+1022042420+1022349263+1022984423+1023415634+1023092066+1022166220
3615+1021319176+1021031395+1021329026+1021896297+1022366058+1022617273
3606+1022825615+1023101633+1023277873+1023157191+1022734767+1022088411
3598+1021288421+1020594585+1020413385+1020744039+1021058890+1021100559
3589+1021248028+1021811756+1022290942+1022031790+1021293169+1020732134
3581+1020629167+1020861391+1021172982+1021380403+1021487904+1021682569
3572+1022112930+1022665390+1023003273+1022776081+1021974035+1021146124
3564+1020815683+1020955640+1021275311+1021522061+1021478621+1021011623
3555+1020273427+1019660448+1019428863+1019510924+1019786091+1020246569
3547+1020761755+1020981789+1020686001+1020074439+1019601064+1019557340
3538+1019714943+1019477405+1018679682+1017963879+1017902936+1018181292
3530+1018113687+1017641941+1017319437+1017450253+1017787993+1018066208
3521+1018337619+1018718233+1019119255+1019329015+1019215490+1018843096
3513+1018472829+1018383398+1018568850+1018720004+1018625684+1018371634
3504+1018038925+1017544503+1016936414+1016512785+1016433842+1016469416
3496+1016273121+1015801517+1015364424+1015324386+1015794289+1016535887
3488+1017095292+1017195494+1017002601+1016835715+1016688458+1016313443
3479+1015688346+1015053612+1014555576+1014156892+1013809797+1013530590
3471+1013381137+1013471206+1013885480+1014529710+1015090816+1015243884
3462+1014976370+1014619850+1014471318+1014539631+1014732667+1014967795
3454+1015023707+1014652235+1013905322+1013083860+1012498235+1012460393
3445+1013088608+1013924598+1014251638+1013978455+1013715972+1013869465
3437+1014175954+1014216347+1013907874+1013431734+1013022350+1012825559
3428+1012777654+1012709766+1012604178+1012545147+1012462874+1012258713
3420+1012109259+1012260839+1012577816+1012640744+1012285783+1011798873
3411+1011532493+1011523209+1011635459+1011900138+1012381592+1012744844
3403+1012402710+1011290206+1010146594+1009811971+1010432603+1011469565
3394+1012303783+1012649531+1012549329+1012268988+1012137180+1012286775
3386+1012579021+1012835125+1012962186+1012829598+1012375427+1011866194
3377+1011666639+1011747000+1011758834+1011525831+1011154146+1010798690
3369+1010577450+1010584891+1010813713+1011160241+1011499470+1011638435
3360+1011356607+1010697566+1010057021+1009787806+1009884395+1010157082
3352+1010515940+1010969828+1011443203+1011661395+1011295025+1010340834
3343+1009236055+1008451725+1008127095+1008180456+1008487299+1008857850
3335+1009131458+1009319533+1009443617+1009374099+1009021264+1008516070
3326+1008036671+1007622326+1007271476+1007065827+1007080283+1007229665
3318+1007268783+1006954640+1006225089+1005264023+1004325351+1003413536
3309+1002276868+1000877789+999660760+999141252+999433781+1000316966+1001449453
3299+1002347733+1002497045+1001808241+1000819467+1000217969+1000228527
3291+1000574063+1000896851+1001021148+1000903725+1000576827+1000186292
3282+999966612+1000059161+1000287841+1000234126+999711216+998998176+998403835
3272+997907712+997479052+997320953+997523343+997863067+998127109+998313199
3262+998455141+998471015+998173950+997369141+996063957+994622784+993604035
3252+993381449+993870344+994593304+995056971+995114372+994983981+994956982
3242+995091128+995212448+995222582+995191331+995046554+994545400+993797070
3233+993393283+993711182+994407285+994830843+994715546+994321114+994018663
3223+993877076+993692757+993346442+992933656+992575790+992363763+992472044
3213+992997930+993664907+993996695+993888273+993724575+993785023+993831723
3203+993572358+993226468+993202587+993439558+993499084+993175162+992662244
3193+992235994+992014825+991952323+991963378+992080942+992394872+992798871
3183+992983403+992773927+992318622+991906615+991749012+991922347+992344629
3173+992724109+992685275+992156413+991570008+991431397+991708336+991942898
3163+991928583+991904348+992073430+992297150+992305299+991959480+991315463
3153+990618155+990211959+990325697+990910259+991663621+992211546+992308347
3143+991906686+991103932+990141378+989406087+989201785+989422032+989590548
3133+989344364+988821596+988504265+988716858+989347624+989991004+990227195
3123+989826952+988894445+987864641+987202411+987041832+987208222+987517759
3114+987862373+988061290+987850893+987069753+985833945+984590059+983895869
3104+983949018+984424732+984910083+985247186+985317909+984902997+984005284
3094+983007440+982323172+982055233+981973455+981738822+981269628+980872432
3084+980802276+980800362+980346475+979312489+978145350+977415232+977325092
3074+977628889+977878403+977730367+977222409+976812528+976946321+977558307
3064+978255898+978891908+979514241+979884012+979634356+978868665+978106516
3054+977660778+977417429+977105908+976462883+975251948+973431437+971315066
3044+969425816+968172930+967676524+967801104+968291132+968929622+969642024
3034+970436912+971252847+971941438+972433239+972829159+973234221+973539931
3024+973520868+973187876+972875434+972855662+973047493+973259661+973478704
3014+973732753+973952150+974160988+974528350+975056150+975483959+975658286
3004+975777268+976085954+976488181+976708074+976783049+977055877+977611810
2995+978117429+978381896+978672582+979257215+979978829+980472826+980572037
2985+980373191+980065780+979790684+979613239+979567177+979649025+979784377
2975+979884650+979941271+979993711+980021844+979963806+979858926+979843832
2965+979947294+980066064+980234721+980635815+981197984+981514607+981330146
2955+980827007+980375458+980243934+980477291+980845361+981040239+981019830
2945+980986595+981086443+981351831+981812663+982412815+982909363+983048187
2935+982788327+982296314+981809687+981533527+981547842+981740594+981878851
2925+981810821+981581999+981343539+981181401+981057530+980917147+980828992
2915+980940320+981270832+981672635+982037233+982392194+982751477+983016369
2905+983065478+982848349+982441303+982078193+981994714+982161317+982316723
2895+982321967+982305526+982393186+982486798+982447610+982355273+982407926
2885+982622291+982813129+982862593+982860821+982925804+983005031+982962512
2876+982822200+982813413+983137051+983718283+984224469+984339340+984022930
2866+983507886+983079722+982873860+982839278+982857987+982913048+983106650
2856+983469619+983849666+984093227+984262027+984563697+985096103+985709507
2846+986106065+986086506+985736010+985380624+985378002+985892054+986758090
2836+987599111+988165177+988517091+988852068+989271657+989720655+990029979
2826+990059530+989875494+989689120+989623642+989680758+989833755+989977823
2816+989919289+989606209+989264712+989177407+989388867+989706128+989956563
2806+990149386+990347098+990499315+990552039+990593069+990733452+990983817
2796+991357273+991883301+992419321+992698385+992659268+992536956+992554388
2786+992719007+992966750+993328584+993848376+994455615+994993335+995323068
2776+995432199+995514757+995815293+996278252+996566742+996541939+996434296
2766+996465476+996630520+996899876+997288639+997684914+997904948+997963057
2757+998068858+998316388+998547690+998618980+998649310+998816763+999015255
2747+998964161+998624720+998297751+998324892+998787638+999441647+999915519
2737+1000040028+999965549+999922959+999967533+999988013+999889299+999740767
2727+999736940+999974761+1000363595+1000829955+1001418982+1002035433+1002342985
2717+1002168233+1001804769+1001677071+1001865074+1002170572+1002488187
2708+1002859305+1003224611+1003361734+1003151904+1002792763+1002632892
2700+1002786597+1003007057+1002990404+1002693410+1002270349+1001852744
2691+1001508696+1001269387+1001094918+1000953047+1000944472+1001175845
2683+1001534987+1001752329+1001658291+1001296173+1000860923+1000551103
2674+1000379256+1000162694+999779104+999340452+999020003+998818180+998595170
2664+998266925+997867603+997470478+997130044+996874223+996656173+996367612
2655+996043336+995948873+996254937+996735683+997030479+997097305+997165618
2645+997344126+997528587+997668828+997902823+998358482+998935603+999390908
2635+999640635+999862866+1000233984+1000638337+1000775390+1000580228+1000426169
2625+1000754626+1001493390+1002015732+1001858342+1001368384+1001334865
2616+1002038338+1003052269+1003979886+1004850458+1005681912+1006202908
2608+1006270726+1006167547+1006292694+1006803557+1007580941+1008279028
2599+1008466394+1008019522+1007388756+1007245185+1007854833+1008930416
2591+1009987432+1010688708+1010980883+1011071731+1011172500+1011232594
2582+1011117084+1010967347+1011086542+1011563248+1012231997+1012816630
2574+1012970902+1012509432+1011746220+1011301970+1011495359+1012107842
2565+1012671357+1012814787+1012462803+1011879162+1011467581+1011411456
2557+1011495714+1011381267+1011076550+1010926459+1011024110+1010987686
2548+1010599773+1010238647+1010256717+1010365211+1010139578+1009776043
2540+1009831388+1010390864+1010905057+1010851555+1010328928+1009851230
2531+1009660888+1009574929+1009536450+1009782562+1010256221+1010448902
2523+1010151696+1009804247+1009811546+1010056383+1010309370+1010616284
2514+1011083991+1011668340+1012268280+1012759867+1012966863+1012862054
2506+1012740379+1012977847+1013643620+1014415689+1014841302+1014747690
2497+1014464586+1014473656+1014835916+1015227089+1015472989+1015637962
2489+1015710669+1015665599+1015707622+1016054929+1016621704+1017135685
2480+1017413403+1017462300+1017466268+1017570652+1017621320+1017402136
2472+1017148724+1017384703+1018156631+1018865419+1019011116+1018728721
2463+1018434562+1018330178+1018460073+1018864214+1019404485+1019742864
2455+1019736770+1019644504+1019807563+1020258262+1020673103+1020693300
2446+1020333875+1019985079+1019953119+1020190303+1020494099+1020705205
2438+1020747228+1020724197+1020879248+1021251784+1021567131+1021632326
2429+1021624531+1021804882+1022147299+1022442025+1022642785+1022925251
2421+1023429523+1024045549+1024470737+1024521121+1024375424+1024339141
2412+1024391368+1024262111+1023964267+1023884687+1024293788+1025046015
2404+1025790306+1026245115+1026264816+1025855998+1025278239+1025012638
2395+1025386520+1026168794+1026726640+1026664917+1026189061+1025798881
2387+1025739780+1025857982+1025949185+1026067032+1026372813+1026863409
2378+1027401554+1027844600+1028022186+1027814978+1027398578+1027182583
2370+1027373634+1027761192+1028107224+1028637220+1029745188+1031119465
2361+1031800190+1031380601+1030468928+1029791038+1029447486+1029050715
2353+1028250512+1027181520+1026355522+1026152212+1026600855+1027404956
2344+1028062438+1028251788+1028077815+1027753539+1027416932+1027226802
2336+1027174433+1026975517+1026551392+1026281398+1026426954+1026678381
2327+1026581935+1026109693+1025689962+1025863155+1026758175+1027848781
2319+1028488475+1028633748+1028819130+1029501627+1030576926+1031563999
2310+1032154797+1032360162+1032261590+1031982879+1031776522+1031782758
2302+1031829670+1031655910+1031209321+1030686695+1030387221+1030449157
2293+1030734812+1031093387+1031563077+1032162308+1032770468+1033314425
2285+1033747337+1033872129+1033505122+1032765153+1032076775+1031999958
2276+1032857561+1034230775+1035152440+1035160164+1034800030+1034822494
2268+1035309476+1035834157+1036100041+1036196275+1036427435+1036974510
2259+1037640708+1038080210+1038275797+1038417951+1038377062+1037878671
2251+1037126727+1036647541+1036696650+1037265338+1038275797+1039364631
2242+1039941823+1039817172+1039392197+1039034544+1038674764+1038245608
2234+1038107281+1038497461+1038908334+1038848595+1038905358+1039895407
2225+1041314895+1041923622+1041525788+1040977438+1040821890+1040859732
2217+1040696035+1040185810+1039664388+1039797259+1040776395+1041810664
2208+1041938220+1041230992+1040595974+1040491661+1040660461+1041025626
2200+1041776649+1042612072+1043093313+1043647474+1044941178+1046458389
2191+1047081289+1046982645+1047592506+1049500181+1051484318+1052051093
2183+1051050698+1049262430+1047323858+1045727704+1045022106+1045248801
2174+1045616872+1045171559+1043702111+1041890103+1040596187+1039919713
2166+1039143746+1037843523+1036894079+1038128611+1042688464+1049249107
2157+1054701712+1057396905+1058071891+1057854974+1057092896+1055643290
2149+1053524581+1051467382+1050567189+1050958503+1051526554+1051398714
2140+1050867371+1050565701+1050664840+1051042052+1051490271+1051649858
2132+1051260315+1050442042+1049530227+1048798125+1048430763+1048517431
2123+1048937020+1049331665+1049339460+1049000373+1048814495+1049035309
2115+1049046364+1048114211+1046693872+1046056374+1046607984+1047493650
2106+1047857681+1047714251+1047564089+1047678110+1047881988+1047989206
2098+1048230854+1048836321+1049389561+1049237769+1048354796+1047323362
2089+1046785429+1047074982+1047982686+1048890320+1049446465+1049895889
2081+1050496182+1050933559+1050684045+1049853582+1049305161+1049723688
2072+1050774964+1051561136+1051738368+1051743045+1051977040+1052243491
2064+1052147540+1051729510+1051391840+1051433225+1051962229+1052922161
2055+1053861684+1054140394+1053665034+1052977223+1052666907+1053137589
2047+1054464387+1056014550+1056925514+1057121526+1057094314+1056921121
2038+1056551349+1056726668+1058418914+1061317276+1063737089+1064290329
2030+1063107599+1061179374+1059120545+1057106290+1055548048+1055063476
2021+1055782397+1057177863+1058450449+1058818945+1057920311+1056362920
2013+1055392430+1055606795+1056441296+1057226193+1058123338+1059414349
2004+1060536419+1060675314+1059783200+1058455055+1057257656+1056573813
1996+1056622710+1057279554+1058155086+1058953233+1059536803+1059831813
1987+1059952991+1060105704+1060082106+1059329312+1057785243+1056254710
1979+1055879411+1057206634+1059564299+1061757062+1063379081+1064524182
1970+1064706163+1063465395+1061606404+1060477743+1060493050+1061360787
1962+1062704592+1063723412+1063565881+1062552659+1061886390+1062083322
1953+1062602193+1062858652+1062830235+1062670790+1062394064+1062082543
1945+1061938617+1061853296+1061297080+1060019887+1058524999+1057547493
1936+1057469187+1058321263+1059940732+1061838344+1063201991+1063480914
1928+1062966650+1062552729+1062896068+1063865000+1064803601+1065405454
1919+1065984560+1066653522+1066781645+1065878121+1064489884+1063649642
1911+1063885055+1064895229+1065936797+1066376654+1066032110+1065282363
1902+1064837120+1065128586+1065862248+1066367158+1066361772+1066148257
1894+1066091353+1066264475+1066644522+1067185219+1067635846+1067711672
1885+1067431119+1067026765+1066766055+1066913524+1067541880+1068350445
1877+1068959951+1069308889+1069535868+1069697652+1069837609+1070064518
1868+1070322040+1070318496+1069920733+1069266512+1068482182+1067643642
1860+1067003167+1066926350+1067445221+1068126017+1068577779+1068851245
1851+1069167018+1069479601+1069542671+1069374793+1069468263+1070308363
1843+1071588602+1072494110+1072704861+1072426931+1072015349+1071753079
1834+1071690577+1071769165+1072053899+1072529046+1072785080+1072482914
1826+1071858384+1071365592+1071211532+1071402370+1071961492+1072804922
1817+1073538938+1073741823+1073464742+1073112333+1072869622+1072573620
1809+1072142905+1071711340+1071313719+1070816674+1070099808+1069146750
1800+1068087821+1067098480+1066148470+1065062612+1063818725+1062574272
1792+1061407416+1060168703+1058728026+1057204721+1055891458+1055002816
1783+1054433632+1053870400+1053101094+1052114092+1051017675+1049896881
1775+1048770488+1047773565+1047285024+1047522350+1048196343+1048906335
1766+1049486858+1050028972+1050686241+1051373770+1051828862+1052054424
1758+1052233853+1052325694+1052191972+1051903128+1051680046+1051719376
1749+1052000709+1052238318+1052211814+1051895829+1051333022+1050573637
1741+1049570904+1048245523+1046835247+1045702618+1044747434+1043552941
1732+1042281063+1041417720+1040877307+1040381184+1039803070+1039100377
1724+1038307331+1037448949+1036313627+1034509981+1031699704+1027821781
1715+1023331659+1018801357+1014380044+1010001109+1005698069+1001479784
1707+997208562+993009623+989319420+986083459+982687486+978934002+975228988
1697+970949618+964816429+957227044+949459789+941396107+932750840+924863895
1687+919515886+917520622+919187995+923167042+926840450+929185926+929901871
1677+928158106+922984353+914755203+904814460+892347181+874342969+850854334
1667+827179750+806344569+787150470+769081700+754083918+742978728+733812606
1657+724841503+715806268+707811184+705093739+710698632+720359035+731915065
1647+746171107+761561337+774610343+785467790+796067077+806796685+817123215
1638+827474689+838950571+850041872+857787797+862510355+865973436+869212019
1628+872634779+876426318+880749908+885535890+890024807+893373088+895408886
1618+895917127+894204259+890379697+885499394+880235785+875164077+871156898
1608+868702148+867449971+866719286+866004262+865079834+863889946+862184094
1598+859197718+853942401+846194208+837340528+829872676+825835520+825749916
1588+828554169+832226089+834589990+834003443+830106033+824391158+819609428
1578+818764297+824285499+834795072+845249158+853846237+861990209+870233178
1568+877188750+881980401+885044940+886729037+887143240+886341053+884134401
1558+881512127+881065822+883218618+886923489+890956606+894335784+896735471
1548+898281666+899288014+900049525+900602835+900864538+900984441+901112139
1538+901154658+901340040+902203241+904181781+907083898+910049510+912743640
1528+915611814+918974126+922441247+925542706+928558774+931918110+935287863
1519+938289758+941140286+943920375+946369030+948422331+950251559+951992206
1509+953797977+955819744+957576619+958460726+958747869+958835670+958847575
1499+958765373+958645470+958648942+958804773+959045075+959438232+960154531
1489+961167540+962166235+962923281+963372280+963421743+963047507+962530125
1479+962334326+962659807+963224173+963369587+962304563+959665778+955980819
1469+951905113+947588184+942914523+937825595+932594938+927821003+924244751
1459+923090437+926030397+932190514+937752392+941562143+944485236+947003268
1449+949211905+951162311+952782417+953920290+954523418+954629148+954393665
1439+954091357+953913061+953676941+952814660+950720753+946448894+938352757
1429+925628665+910542090+897284247+889265989+887668560+891271032+898371168
1419+907669027+916450780+921863488+923972985+924050794+922710036+920164013
1409+916717868+912739743+908542929+904616818+901746377+900456500+900726069
1400+902365592+905128106+908694225+912875590+917459254+922002524+926255321
1390+930398065+934647885+938843423+942646159+946050990+949255912+952311026
1380+955168640+957847747+960419494+962949289+965459029+967850567+969939018
1370+971526030+972388523+972328784+971148818+968446113+963789247+957332349
1360+949691941+941110310+931376492+920442086+909027643+898743774+891515373
1350+888657262+890141450+894644186+900481586+906485588+912101182+916959304
1340+920498211+922078562+921468276+918881860+914530987+908471781+900963536
1330+893042717+886736052+884252674+886482853+892277663+899340454+905762415
1320+910687433+913970802+915735827+916153077+915191091+912462946+907433544
1310+899712067+889089749+875522581+859279355+841088131+822198466+804379210
1300+789602668+779347711+774060859+773180224+775418482+778774062+780308777
1290+776615385+765737033+749344494+732430888+719924139+713613789+712448633
1281+714953980+720606777+729194715+739760130+750636710+760351820+768344496
1271+774936532+780746791+786179979+791403195+796493399+801246783+804693495
1261+804843940+799270653+786723652+768832186+750172335+736080415+729737042
1251+730769114+735981134+741275852+743795443+743296910+741734630+741324536
1241+742934367+746154879+750360976+755285569+760750363+766322871+771470687
1231+775922542+779696790+782807108+785019288+785903395+785230535+783492510
1221+781945678+781858231+783615248+786628268+790043375+793344956+796378031
1211+799167899+801865785+804670747+807667894+810829093+814167028+817715714
1201+821373815+824970405+828508320+832163444+836017769+839959967+843852771
1191+847641546+851276971+854698455+857928605+861058056+864118626+867071058
1181+869894657+872617488+875300988+878005322+880674366+883058889+884859558
1171+885937125+886325038+886115279+885428601+884458110+883402157+882289725
1162+881024508+879761418+879079771+879513108+880988155+882933671+884826039
1152+886477964+887978876+889527763+891177845+892610302+893249713+892686339
1142+890954763+888456999+885770239+883576129+882588702+883279419+885564236
1132+888850297+892433636+895798500+898629469+900799981+902431142+903771758
1122+904924158+905776092+906200500+906244932+906153163+906267680+906896957
1112+908219361+910190743+912386554+913895402+913444987+909895805+903182873
1102+895148317+888960350+886933552+888837400+892510170+895800342+897760173
1092+898614304+899232031+900548553+903084301+906718308+910760353+914266024
1082+916462897+917018618+915982932+913473191+909306283+902992531+894485095
1072+885170654+877731360+874489801+875848488+880482748+886745832+893523250
1062+900106216+905974159+910870973+914789076+917723508+919393148+919148240
1052+916371553+911396363+906061464+902862140+903111584+906014622+909736997
1043+913173788+916487204+920329836+924997687+930186605+935092206+938382803
1033+938083684+932438256+922156442+911541068+905758589+906335143+909886876
1023+911157620+906571831+895279346+878523342+859464524+843310019+835623621
1013+838808913+850249505+864449281+876912023+886078287+892576074+897606610
1003+902032174+906306726+910611396+914886231+918990637+922931346+926744216
993+930239611+933186445+935692429+938095376+940450419+942163996+941886845
983+937690881+927827452+911841392+891119523+868593513+848200314+834058647
973+828803116+832057573+840887513+851947350+863091303+873389557+882473760
963+890148112+896230561+900446295+902592217+903012373+902719773+902554092
953+902074268+899599534+893600209+884120795+873024463+862996698+856138069
943+853159985+853592188+856486156+860902791+866033671+871187653+875747931
933+879163391+881137962+881951984+882409911+883195516+884274217+885085687
924+885248676+884901368+884443229+884151550+884044899+883972121+883789432
914+883471179+883062786+882588702+882096406+881739815+881674974+881843632
904+881916197+881464648+880279084+878704756+877633425+877868695+879409575
894+881554363+883706875+885787246+887813123+889506929+890628290+891410919
884+892288010+893337798+894339043+895204938+896052266+896983143+898028325
874+899239046+900809973+903149496+906601665+910948711+915434936+919416321
864+922767224+925639720+928135500+930354766+932567726+935092135+937950246
854+940792483+943250563+945109554+945818058+944057427+938584271+930077898
844+921815300+917611116+918803555+923697534+929766378+935471332+940072782
834+943093102+944610596+945354462+946040927+946962521+948279114+950172970
824+952487975+954664935+956290427+957194872+956822478+954605054+951693228
815+951053675+954518529+960339062+964440634+963462278+956279372+943634649
805+927183222+908936865+891412690+877636897+870109590+869574775+874899327
795+883741102+893114574+899968030+901915531+897691860+887321181+872454428
785+856851321+845845625+843414474+848127890+852495983+848279682+833645577
775+815113070+802476850+801988664+813610457+832976474+854827712+875198234
765+891893365+903794151+909603701+906903052+892521083+864703614+825951880
755+783497967+745642103+716958030+697463253+686038960+682978743+688708429
745+701490700+717506806+732839139+744905891+752463103+755086440+753100743
735+748073609+743025712+741367976+744881088+752346956+760271247+765642571
725+768685779+772797697+781304212+794318139+808687494+820334018+826327604
715+825860323+820931336+816034239+815680057+821551472+832059415+844156426
705+855174098+863561985+868993827+871933361+872516789+869564995+860697497
696+843978060+820818732+797847338+784346641+785765988+799471696+817694596
686+833980625+845833720+852750600+854096460+849077972+838114086+824136825
676+811863645+804910057+803400216+804751391+806715403+809527381+815191375
666+823540145+832578286+840727572+846419416+848886212+849474601+850777730
656+854631700+860984357+868352148+875324940+881490089+886960268+891599631
646+894824253+895585977+892506485+884615500+872332187+857732735+843579446
636+831903655+823608175+819273742+819814864+825846291+836423611+848885220
626+860216397+868675928+874331702+878293174+881666116+885101561+888815574
616+892730063+896699543+900734077+904984322+909492019+913960456+917850143
606+920876486+923347605+925666011+927353297+926466639+919555641+902605752
596+874086652+838626295+806635964+788030324+785360784+793431765+805004236
586+815520045+823669190+830127009+836194860+842663592+849398421+855864248
577+861800079+867250629+872124979+875993548+878470194+879729103+880391829
567+880809292+880784702+880005901+878276521+875461142+871935416+868963072
557+867751429+868194403+869277285+870427063+871641115+872649164+872852333
547+872083877+870994122+870659074+871800915+874232846+877144814+879954453
537+882525633+884610894+885744657+885842804+885445679+885310044+885939464
527+887357181+889295681+891705786+894650139+897644026+899963141+901751409
517+903822214+906172013+907924777+908645683+908659289+908469088+908585377
507+909596827+911777614+914566136+916699302+917221361+916520085+915840635
497+915940838+916783276+917994210+918922324+918540364+916172778+912501567
487+909422713+908809167+911148691+915112006+918853727+921780151+924484698
477+927133475+928706881+928124445+925577714+922351107+919499162+917311147
467+915925460+915525359+916073142+917090687+916657775+910360181+893724718
458+869003394+846463848+833062078+827518554+827535703+832948766+842755858
448+854323652+865452298+874953397+881979621+886660511+890629991+895099279
438+899401043+902408749+904377721+906296947+908005067+908579283+908287321
428+908021153+906721922+902054709+894477584+887559499+883265459+879670357
418+873896452+866391112+859466224+854971567+854356675+857806788+863752469
408+870128369+875688901+880370499+884556541+888132014+890628290+891983788
398+893239012+896324102+901681961+907266658+910623372+910881319+909124231
388+906900997+903789970+896409778+881556985+860340127+836269480+812069365
378+791017409+779530755+784920007+802365735
##END=
