##TITLE=X7339
##JCAMP-DX=5.0
##DATA TYPE=LINK
##BLOCKS=1


$$ === CHEMSPECTRA SPECTRUM ORIG ===
##TITLE=X7339
##JCAMP-DX=5.00
##DATA TYPE=INFRARED SPECTRUM
##DATA CLASS=XYDATA
##ORIGIN=ComPlat
##OWNER=
##XUNITS=1/CM
##YUNITS=TRANSMITTANCE
##XFACTOR=1
##YFACTOR=9.1935259e-010
##FIRSTX=3997.453
##LASTX=373.96442
##MAXX=3997.453
##MAXY=0.9871473259663716
##MINX=373.96442
##MINY=0.2759266783010531
##NPOINTS=2559
##XYDATA= (X++(Y..Y))
2559A046627184A046786673A046306972A045615655A044932247A044447424A044632717
2552A045641005A046772799A047130679A046557293A045696696A045295962A045400279
2545A045251421A044288128A042959565A042001523A041473262A041200768A041440780
2538A042309028A043012728A042426570A040609812A039234309A039736313A041503798
2531A043077756A044150293A044943528A044654631A042024280A037263831A032816787
2524A031340987A032251506A032270372A030297171A029365452A032209364A037246391
2517A041021957A041393193A037719869A030923979A024441494A022761016A026554605
2510A031440312A032936275A030956331A029170239A029511975A029593925A026997611
2503A023487148A023666866A029252124A036895578A042464368A044463891A042983618
2496A037412559A026913198A013241026A001750365I97078803I98900229A005176220
2489A014701007A024549506A030232338A029048418A022862026A018437025A019980316
2482A022840242A021040276A015249626A010852179A009029197A008133979A011105353
2475A019695828A027391927A027474784A020431426A011560094A004482309A001352288
2468A003936802A008572058A009379686A006777408A007546136A014620225A022851717
2461A026676881A023861107A012970866I94203965I80111220I86729466A005400414
2454A021941069A030953284A031765515A025981155A016614561A006403773I96917173
2447I90733894I91619192I98831959A007020727A013281158A018395337A022848087
2440A025117122A024494722A022723931A020402900A014425790A003802273I96571612
2433I99090320A005690737A011865848A019965145A030184297A037677338A038582605
2426A032503772A022974123A016092977A013027466A008625285A001494986I98376246
2419A002761829A009965130A017738641A027219082A036940119A043529903A046025985
2412A045784740A043687189A039956422A036437402A035420816A035769489A034460829
2405A032048513A032604653A037029330A041642088A042743540A038991314A032156979
2398A026766156A025530303A026554087A027782288A028820658A027986124A023031954
2391A015681286A011575200A012185346A012228590A006052053I92233552I77475423
2384I73180672I78329212I83323774I85000881I87900550I95223793A002474423
2377A004427072I98358027I85036799I72848466I74132749I89635553A007898829
2370A019352989A021252734A015738664A008482069A005409296A007924957A013802807
2363A020899587A027475562A031205161A029610911A021208777A007809229I97981282
2356A001161743A014303320A027653918A035537386A036522398A032407559A028621231
2349A029807939A034396191A038136876A038747736A035426651A027327937A014632024
2342A002094240I99054532A008069600A021202359A031560253A036592224A035728320
2335A029723137A019572709A005546159I92021223I89130956I95596714I99970497
2328A000063532A004853026A017996094A032040409A041152596A044995913A045616238
2321A044285535A040367790A033555562A026821783A022902417A018039273A005593487
2314I84857470I69291323I75125541I95540763A015198927A027965896A034393792
2307A037244446A038601018A038768288A037410744A034730536A030737260A023621677
2300A011210902I98226676I97857710A010886152A024459583A030787765A028294212
2293A018810789A008632871A005004088A006850734A008260663A008003081A008657962
2286A010525420A012105796A014937519A021434527A029118891A033055243A031628069
2279A027669932A024930208A024052495A023664273A024008602A026575287A029985583
2272A029395081A021357633A009650754A005198912A012294785A023274625A031294372
2265A035471386A037603623A039195604A040687872A041805143A042009952A040406884
2258A035035123A023457714A006962636I95362795I98578785A012005499A024792113
2251A032593825A037099479A040442218A042067394A040548156A036746138A033924075
2244A033991177A034420698A031338783A025094106A021024845A023573182A031155694
2237A038818274A042940374A043057528A041611811A041695057A043844020A045671865
2230A044730032A040834460A035913808A032060377A030049314A030100856A032773349
2223A037776209A043105505A046718793A048246071A048439468A047658292A045529556
2216A042095013A039004216A038471546A040113125A040624983A038076970A035027796
2209A035484547A039505248A043680057A045690018A046051659A046290180A046773512
2202A046734677A045832068A044886345A044822160A045267111A044896589A043313944
2195A042041072A043040153A046276046A049652628A051304840A051150796A050336879
2188A049790075A049613534A049538976A049496834A049558750A049532233A049093053
2181A048393890A048068168A048554807A049740089A051120713A052077781A052207773
2174A051405331A049556416A046739151A044033528A043139412A044438023A046508539
2167A048003983A048719937A048810250A048268179A047452317A047081017A047354743
2160A047786856A048052803A048376191A048975315A049619628A049744173A048843898
2153A047148702A045981379A046649486A048808434A050776643A051402414A050873115
2146A049941655A049104334A048560836A048480313A048984586A049925706A050882127
2139A051397811A051121297A049969598A048441736A047373155A047063641A047125233
2132A047327513A047860118A048661004A049244049A049380847A049477773A050114112
2125A051314306A052385157A052593790A051968862A051284482A051270608A051965750
2118A052797043A053136639A052730459A051730795A050515235A049482247A048909704
2111A048968832A049665271A050517051A050679782A049879999A048885066A048619899
2104A049233741A050305694A051382770A052077264A052214710A052018784A051715429
2097A051065994A049815295A048409386A047663025A047781735A048230511A048542488
2090A048789049A049170204A049529251A049515830A049175456A049157691A050082473
2083A051705510A052974038A053013391A051941697A050677319A050033135A050038387
2076A050082344A049636485A048850252A048500801A049223238A050676411A051757182
2069A051767750A051044145A050419088A050452801A051085833A051675362A051604370
2062A051046933A050765881A051123242A051717569A051931907A051497589A050715700
2055A050326700A050888156A052150979A053231685A053371919A052438061A050932113
2048A049727187A049557388A050479058A051878939A053042890A053580358A053410171
2041A052727930A052049969A051909216A052343404A052862265A053001657A052795098
2034A052607276A052574081A052420167A051913300A051227688A050720368A050599583
2027A050898400A051479177A052061250A052482731A052803007A052950438A052569543
2020A051534350A050381614A049913258A050465249A051725867A053128211A054195237
2013A054588127A054230636A053525704A053093720A053088209A053145392A053137353
2006A053400965A053996718A054404973A054299489A053993735A053787306A053475717
1999A052829784A052057749A051488772A051115462A050748765A050467453A050530017
1992A050796417A050801669A050667918A051174525A052426131A053310782A052943436
1985A051824025A050928872A050491571A050271722A050252207A050475168A050635047
1978A050362423A049791372A049469215A049650295A049981204A050057059A049973035
1971A050064579A050345437A050481522A050234961A049763234A049437447A049397769
1964A049385840A049062127A048385916A047628987A047119916A047030058A047350593
1957A047941160A048478303A048534773A048040290A047491541A047306896A047246990
1950A046947071A046657850A046884961A047575565A048179552A048263057A047713271
1943A046643133A045401575A044431215A043877410A043543583A043348435A043481991
1936A043965453A044441329A044589668A044399966A043973752A043475832A043228104
1929A043359262A043351482A042431887A040555158A038676678A037842209A038159114
1922A038818987A039061075A038868261A038585847A038214287A037467927A036347413
1915A035217174A034369220A033905208A033942034A034523199A035394623A036126980
1908A036328352A035758079A034628359A033623183A033130645A032776590A032201454
1901A031790087A032085986A032911120A033503501A033301027A032473754A031810834
1894A031991265A032927198A033937625A034426338A034311972A034093095A034517170
1887A035827126A037353561A038210073A038293254A038217399A038371573A038516605
1880A038233219A037319523A035878279A034429645A033698001A033853536A034289345
1873A034413696A034195856A033750062A032983473A031905555A030758914A029624332
1866A028247986A026458587A024579589A023202465A022526643A022133235A021552005
1859A020836051A020313235A019959181A019374190A018321492A016963883A015549610
1852A014121916A012619859A011076632A009542677A007822715A005433025A001969307
1845I97473054I92269275I86513312I80111803I73002056I65254739I56902461I47805509
1837I37731974I26595626I14578259I01898749H88601767H74816915H61052875H47946179
1829H35914224H25223216H16109472H08736696H03304380H00169432G99556044H01195872
1821H04504769H09013729H14352296H19848472H24439187H27179690H27835414H26901814
1813H25032736H22499570H19209021H15168936H10815251H06857374H03967819H02700977
1805H03479365H06384739H10991338H16579319H22581389H28799938H35217396H41716608
1797H48115912H54434628H60934943H67824711H75028207H82281300H89289389H95764354
1789I01552734I06865951I12149150I17542047I22707704I27354888I31614046I35669562
1781I39375497I42491255I44965941I46748079I47612695I47386622I46093068I43695274
1773I39902527I34423985I27335568I19076262I10169077I01128270H92647559H85713315
1765H81313145H79854785H80831434H83139563H85669682H87554840H88296727H88173219
1757H88276628H89681630H92720950H97245600I03155283I10342960I18391233I26632062
1749I34487976I41739708I48473876I54771197I60537015I65764393I70866448I76508110
1741I82992541I89906297I96460164A002104419A006766580A010696515A014198160
1734A017360209A020018244A022139135A024054958A026029910A027826310A029049196
1727A029709263A030128475A030493746A030817005A031182340A031693032A032261296
1720A032752926A033279891A034065476A035080052A036003148A036476172A036360250
1713A035905509A035615445A035765340A036190970A036635338A037037888A037403029
1706A037664436A037786712A037867040A038088057A038565165A039193464A039700396
1699A039872010A039698321A039389066A039286500A039615075A040284673A041006657
1692A041514950A041622184A041313707A040890346A040755622A040999201A041403436
1685A041793992A042123605A042318429A042336712A042296839A042314344A042325560
1678A042268961A042269220A042442714A042681236A042786071A042653552A042267859
1671A041700114A041145465A040806776A040720807A040770988A040797245A040678536
1664A040398910A040070270A039858978A039872463A040063138A040273328A040466336
1657A040805025A041329397A041755805A041869004A041905635A042209314A042666907
1650A042820044A042481938A041982916A041771430A041941488A042247501A042431368
1643A042404851A042206656A041957567A041847155A042029985A042518699A043198670
1636A043951838A044701635A045283838A045426147A045079548A044621501A044409237
1629A044312117A044026007A043623263A043406655A043432848A043522966A043585854
1622A043671953A043797794A043917152A044032361A044188091A044324565A044329816
1615A044322231A044604839A045147558A045424072A045052967A044349590A043947235
1608A044064259A044398604A044605682A044616444A044505255A044308681A044086497
1601A044002214A044231399A044866182A045912137A047234347A048507738A049352256
1594A049550387A049186153A048643045A048359594A048434735A048599477A048683177
1587A048857513A049223108A049436604A049101481A048392529A047891044A047817069
1580A047834250A047679882A047488494A047351306A047124131A046888073A047016767
1573A047536730A047969881A047998083A047806047A047638777A047452835A047116091
1566A046695064A046498943A046855332A047697581A048428900A048454056A047809354
1559A047092622A046913033A047528431A048713065A049769653A049982435A049318154
1552A048477785A048134881A048354601A048792810A049163915A049445357A049798114
1545A050294543A050667529A050519903A049846286A049067379A048485435A048090989
1538A047933250A048144023A048459242A048332817A047807603A047710548A048571793
1531A049748387A050059522A049070491A047402784A046002256A045441772A045722241
1524A046411872A047048535A047492513A047803972A047956460A047919440A047821413
1517A047797684A047884431A048151414A048603756A048915539A048604793A047554753
1510A046201229A045242150A045147883A045780526A046488700A046761388A046805605
1503A047279147A048395835A049582933A050249743A050536047A050840245A050982100
1496A050499935A049504096A048533995A047776159A047074533A046558201A046625433
1489A047257882A047847670A047926248A047794636A048165807A049237760A050318142
1482A050465703A049483543A048150766A047424698A047605064A048319397A049014475
1475A049257146A048823216A047836000A046858833A046589191A047211915A048174106
1468A048863478A049282236A049647766A049761095A049418645A048983679A048781788
1461A048438561A047633720A046993945A047367191A048585019A049698855A050174666
1454A050271203A050466481A050956426A051563330A051959462A052023776A051826748
1447A051278907A050280798A049177076A048436227A048011763A047619781A047319279
1440A047281092A047450761A047814605A048463846A049173122A049474467A049278930
1433A048939592A048618019A048028036A046992130A045947471A045576949A046045824
1426A046852220A047375619A047380092A047020008A046511975A045901894A045163572
1419A044433938A044043837A044353027A045561519A047592551A050254152A053530631
1412A057310671A060853096A063360135A065189924A067478928A070423072A072876882
1405A073741823A073015107A071436611A069656094A067936846A066192636A063866936
1398A060443415A056733395A054643041A055425903A058885342A063711920A068269828
1391A071521867A073098807A072924470A071497424A069701996A067881413A065822308
1384A063638334A061927384A060967981A060257797A059054751A057109688A054718507
1377A052341589A050373056A049066795A048334957A047711779A046748227A045311327
1370A043502479A041627954A040186775A039541554A039702211A040480340A041504317
1363A042271749A042756572A043629228A045219264A046654154A046741614A045495130
1356A044226342A044146727A045138676A046012953A045976128A045516525A045590435
1349A046386393A047374128A048237253A049210919A050586163A052306060A054027384
1342A055323012A055905474A055827480A055389920A054821203A054120938A053196156
1335A052180088A051637564A052156684A053545478A054836503A055349399A055265635
1328A054950091A054304416A053143317A051914013A051588615A052584325A054122948
1321A055195485A055771658A056377201A057040640A057404809A057391842A057288692
1314A057439884A057646961A056795052A054107453A050844459A049279319A049921881
1307A051177702A051746744A051910901A052355269A053184033A054335342A055757914
1300A056939046A057295046A057115588A057096721A057103529A056707721A056592772
1293A057809887A059829184A060945419A060770629A060848428A062344975A064304756
1286A064884754A063534925A061191267A058954195A057385424A056722503A057048874
1279A058061764A058893122A058726176A057945000A058047112A059857257A062505437
1272A064616409A065649981A065695689A064982198A063920812A062851258A061551999
1265A059630470A057485137A056242283A056588947A058057615A059739909A061216098
1258A062159098A061956235A060421566A058276946A056838166A057410449A060080802
1251A062709597A062568715A059692257A057052310A057023070A059192133A061622732
1244A062801012A062227886A060228493A057591788A055143554A053467808A052707638
1237A052515926A052506849A052717427A053226174A053498409A052767544A051099254
1230A049605624A049451386A050823518A052878538A054413661A054555840A053266111
1223A051488318A050473159A050656507A051452660A052199863A052768775A053055209
1216A052592234A051249926A049892058A049612302A050359182A051028715A051101717
1209A051242600A051881402A052347294A051981699A051083369A050299730A050001561
1202A050444826A051625051A052898831A053390267A052665950A050815608A048399077
1195A046585301A046610003A048490168A050708503A051664016A051269311A050783580
1188A051327467A052971768A054989639A056432504A056600552A055610483A054407501
1181A053700105A053450562A053757548A055019981A056734044A057798736A058572585
1174A060290862A061981779A061304920A059076016A058643319A060524586A061965506
1167A061715119A061424213A062238778A062878618A061399576A057853066A054790407
1160A054413466A055890174A057101000A057723400A058578356A059358689A059214111
1153A058520979A057959328A056955579A054675846A051770084A049955335A049794678
1146A049549284A047115313A043140839A041049512A042855896A046557423A049196202
1139A050270814A050794083A050972180A050405862A049363991A048524789A048314470
1132A049325674A052388982A057207197A061233344A061003769A055761739A049534567
1125A047640463A050742606A054903022A056945011A056886856A055748383A053453091
1118A049624491A045357100A042958398A043573147A045694881A046595091A044731977
1111A040444034A035386584A032165796A032976277A037164248A041898374A045294989
1104A046973458A046891703A045322154A043302144A042029856A041951278A042323097
1097A041325377A037615487A032521147A029162330A028432631A028594974A029161487
1090A031641100A035758273A038584032A038136617A035762228A034668231A036301770
1083A039114886A041064683A041752693A041809228A041589767A041023124A040116172
1076A039397171A039698581A040678147A040257832A037317189A034166551A034060614
1069A036671709A039226659A040385943A040574089A040416220A040306132A040486953
1062A040798736A040817084A039902027A036683055A029754906A020590527A015180968
1055A018179572A026501507A034156502A038331247A039610472A039939955A040789854
1048A042332951A043826904A044650935A044619167A043274979A039821180A034096142
1041A026901723A019946992A016634206A019745813A026666702A032380718A034889896
1034A035544064A036223322A036414516A033730936A027355685A020603883A018028186
1027A019153303A020822695A023212709A028063341A033922389A037565760A038038589
1020A036969748A035707444A033597898A029628286A024812600A021994686A022635628
1013A025014685A026189788A024055088A018355724A011565475A007604032A007642284
1006A008946989A008327960A004163265I97553771I94237354I99132851A008005285
999A013523375A013036607A008336000A001845021I94300826I86303252I78771959
992I70575606I58454311I39245896I11944212H81362743H56229214H38089380
985H22641684H08217317G94851547G81750167G70426062G65312532G67424541
978G74482162G85458955G98278829H08658442H14235725H16968448H21263005
971H27982780H32641570H30795247H21579845H06057396G84670712G59652586
964G35682945G12403388F83510177F49760500F26172467F18192722F18150256
957F21259919F25648873F30122759F34874649F39965099F43527688F43508173
950F41600648F46726432F66225495F94883102G25270460G54259754G80290965
943H02570597H22653678H42846458H61525963H74830984H82209336H87654229
936H95821537I08771336I27464392I47454567I60885494I65276912I63360829
929I58884091I52084636I40661854I29769474I32502651I46612707I61064823
922I70959484I74952306I73960940I71411372I68884430I64941075I62063580
915I67188132I78810924I87517320I88917460I86418590I86955540I91592675
908I94734561I91682534I80280046I61098925I46938948I51707565I59659562
901I58515967I52683695I54912145I66869865I77266660I80127688I75106156
894I62526295I42679985I20631936I07368798I02015449H92394255H70742922
887H36140103G94666642G53712626G13874131F74279084F40642153F16491172
880E95823554E72351443E50395328E39433512E37476195E37841660E39163092
873E44686823E58218955E80584167F10100167F45068321F83684773G22516018
866G57314374G85260371H05647325H18859246H24925566H23224211H13784810
859G98389304G80197021G62812885G49845062G44425583G47735581G57329869
852G68672517G80343933G97041226H20974756H42530201H53702661H55113433
845H52790521H53367019H56625669H59055167H59247203H55691357H45509420
838H32689676H38966704H66341325H93156176I13522060I27951355I38029299
831I46699518I53794484I54667204I46106164I30538916I13764406I03431602
824I11891308I35619057I54278723I60486380I58972588I59408527I64735165
817I67586014I62599167I51865240I40754500I29904457I16837893I05069356
810I00841578I03105815I10009003I22249657I35585733I42060503I37140889
803I20860474H97385251H82482608H94929689I17483827I29134951I27764375
796I16533047H99954723H84901343H77165630H74162747H68584557H57611848
789H47774889H52035019H72478768H96833584I15079938I25033857I29140397
782I30186547I28035119I20548561I06568950H86923882H64972954H46543900
775H32803912H17855043G96769445G70835031G48807988G38264152G35157730
768G30971251G22272116G16167738G26048265G47645592G68679972G86099638
761H01110746H16570372H36234565H60445322H85001121I06100075I22002836
754I31385833I33569093I30833324I30205608I36479913I44699217I48801738
747I47906325I43966601I36638560I21736760H96379622H64109893H31122720
740G98094313G64057554G35480730G16239444F98282635F75206979F51382304
733F38662793F46201671F73766902G15940044G66852452H17559014H58071581
726H85054090I01596237I12429035I21459857I31883363I45055087I57892336
719I65348163I65314904I60347054I56085368I55086416I53810951I48366252
712I39078755I29269674I21322541I15154432I10867720I10621030I15093424
705I20597121I23362131I23093137I20612876I15055432I06318369H98814500
698H97902231I02279709I06305208I06899275I04592702I01004244H96628063
691H90941341H84198161H78075177H74256432H72832887H71745114H67539574
684H57690426H42787783H25140100H04029670G74881211G33801223F80780048
677F19484719E55328557D93395367D37335715C89589018C52480231C29010681
670C22550012C35686434C68104242D14625394D67173709E19410499E68019932
663F10863449F46379185F74526230F96856303G15284060G30934490G44188682
656G55491716G65650248G75333747G84555698G92617392G98433067H01004744
649G99790222G94945231G87536343G79354578G72127028G66954824G64640794
642G66158606G72454696G83888693G99811747H18422918H37212834H53998430
635H67701139H78139167H85341885H89426641H91015835H91188097H90877027
628H90781397H91814321H94794253H99426462I04192226I07343837I07711117
621I04846589H98910518H90443551H79981794H67814013H54173869H39556039
614H24619553H09828813G95486459G82170870G70924436G62998437G59528431
607G61260841G68242477G79620588G93720012H08330191H21037385H29458839
600H31434115H25457005H11490944G91778514G70894483G54517142G47195260
593G50260319G61343762G76057027G90587268H03176010H13784097H22950485
586H31049653H38251723H44758521H50845458H56627096H61877165H66183585
579H69250200H70995447H71441241H70548681H68079246H63561923H56400114
572H46011942H31991551H14288629G93173208G68966341G41945969G12513281
565F81299687F49257912F17898897E89318896E65850221E49811245E43411390
558E48233916E64308615E89540691F20046305F51301392F79506009G02394686
551G19177169G29959463G35174846G35286295G30747835G22100437G10024072
544F95199683F78038119F58639612F37153279F14056423E89933645E65218032
537E40390127E16182644D93310403D72128916D52630307D34541789D17394262
530D00869166C85352358C72010965C62058830C55744976C51809012C47785816
523C41258628C31532890C20323151C10508851C04043612C00982930C00131507
516C00292099C01127119C03337480C08279008C17305940C31237510C50233239
509C73965267D01734464D32519801D65217008D98845447E32334332E64315877
502E93612545F19923187F43516990F63818754F77815481F79299061F60272957
495F15414616E47410599D68362751C95302484C43296954C20554800C26841878
488C54832512C93980565D35241340D73863952E09029426E41705983E72726957
481F02044308F29078943F53466824F75337877F94962004G12440408G27881621
474G41690137G54458922G66534056G77809730G88100393G97602423H06719798
467H15480848H23381173H29727443H33812329H34554022H29925833H17042293
460G93564671G59627366G18652603F76971935F43253313F26878890F33642492
453F61077733F98872747G35394890G64361233G85874925H02752325H17081388
446H29509798H40077363H48893587H56273689H62554673H67738807H71248297
439H72149609H69755511H64162797H56557140H49198239H44645257H44339763
432H47837648H53483330H59578890H64939111H68977382H71705307H73470069
425H74561342H75097384H75001301H73735820H70071962H62219485H48387239
418H28008778H03367593G79859629G63224057G55146933G51346211G44510125
411G29704149G07715294F84376285F67216537F61712969F68952772F85784983
404G07121615G28630964G48144809G65488749G81452129G96713429H11294823
397H24705717H36395741H45941923H52927579H57056940H58618774H58626748
390H58337657H58784682H60754317H64832914H71150269H79048972H87157476
383H94009771H98761467I01410943I02580276I03347384I05025269I08489311
376I13521476I19032564I23935776I27686770I30236404I31822290I32744284
369I33113964I32812878I31739952I30112507I28571809I27855336I28132628
362I28849231I29581782I30807844I33380429I37475947I42439713I47354659
355I51427356I54142963I55341406I54966151I52714684I48187896I41266684
348I31998378I20233536I05773121H88864407H70194043H50278686H29006173
341H05675398G79179139G48185524G11653137F69681239F24117641E78531546
334E37693840E06661974D89321081D86867044D97373926E16847445E41075933
327E67254250E94458554F22808851F52179883F81466827G08796907G32422220
320G51558605G66557720G78513495G88703342G98055154H06911963H15392416
313H23962662H33354411H43786735H54565592H64748566H73993273H82441244
306H90066157H96587866I01841307I05933713I09219658I12198229I15109891
299I17590478I19056358I19463511I19481989I19870470I20742348I21252521
292I19544682I12941802H99265870H79523098H59494347H47261280H47578315
285H57840450H69603152H74881878H72133725H66750488H65566179H70890028
278H79889341H88591783H95089893H99262563I01223251I00996205H99104564
271H96739965H95097932H94265473H92704677H88482215H81369420H73010660
264H64610925H55384047H43965999H30670897H17560895H06610489G98414979
257G92607667G89066603G88554615G92335173H01120147H14153711H29382271
250H44587620H58094597H68515704H74692371H76530200H75632583H74545004
243H75333831H78931689H85158731H92727757H99445847I02989374I01910225
236H96191281H87113390H76568840H65803728H54481179H41810551H29090845
229H20235203H19004083H25995575H38481168H52482304H64661819H73079643
222H77154350H77347164H74888556H71411612H68371255H66558906H66000108
215H66119595H66044908H65137955H63579557H62242954H61665808H60986356
208H58769057H56121915H55341776H57520628H62847395H70751998H79970513
201H88642936H94480914H95617441H91604326H83662703H73994764H64821698
194H57967329H54891379H56516425H62585663H71303081H79718895H83907708
187H79449448H64989616H47234633H38932213H47923746H69742414H93093741
180I10599894I22186509I30520049I36720834I40420480I41437779I40101565
173I36763818I31980354I26717837I21518272I15759521I08214289H97977373
166H84628460H68048904H48523195H26845734H04464183G84127604G70104165
159G66405297G74122143G90905210H13121306H37934559H62925714H85103558
152I02172605I13998649I21597628I25782227I27729041I29353115I31806536
145I34807279I38089140I41960724I46123345I49493833I51376397I52054034
138I52358362I52598699I51656282I47523874I38734620I24842275I06346960
131H85645499H67819394H58851525H61895837H74951639H92052000I06990560
124I16892677I22882170I27514702I31906379I35497559I38058604I40649925
117I44086089I47610685I49926206I50675938I50268331I48954939I46676178
110I43608916I40473254I37514328I32957651I23964691I09431404H91418903
103H74870727H65277281H64552445H69612488H75471991H78437919H77345802
96H74003971H72175802H74458258H80892507H91304278I06164325I23982520
89I40851557I53270047I60052581I62495369I63271877I64464291I66380115
82I68187731I69020580I68568886I67695971I67883145I69029397I69333076
75I67927102I65585064I62468723I57771487I52686159I50690461I52758318
68I56091397I58322505I59373323I59996954I60199428I58435509I52448545
61I42833899I35200753I34167569I37434000I41459498I46019936I50806447
54I53514923I53239511I51778428I50689877I50220290I50886581I52130862
47I50635612I44272031I36908461I35570886I42081444I51501849I58039572
40I58656007I52354731I39588021I23143254I06615110H89815317H69669542
33H49818888H42582845H47905917H53520090H54152798H52184330H50844810
26H50234210H48486758H44090673H36254988H24593944H08904355G89418518
19G69089330G55987950G56207087G64561244G73733856G81561243G87910626
12G91564629G89783076G82082697G75800482G81319934G96540324H09409147
5H13536952H08884257G96041238G79197033G69008677
##END=


$$ === CHEMSPECTRA PEAK TABLE EDIT ===
##TITLE=X7339
##JCAMP-DX=5.00
##DATA TYPE=INFRAREDPEAKTABLE
##DATA CLASS=PEAKTABLE
##$CSTHRESHOLD=0.93
##MAXX=3997.453
##MAXY=0.9871473259663716
##MINX=373.96442
##MINY=0.2759266783010531
##$CSSOLVENTNAME=- - -
##$CSSOLVENTVALUE=0
##$CSSOLVENTX=0
##NPOINTS=23
##PEAKTABLE= (XY..XY)
398.0454621657541, 0.6950194798412905
609.10871408916, 0.825557823628946
735.1800524863443, 0.7254304251505518
841.4199443940574, 0.44760247788704394
949.0763681939011, 0.6083475318867397
1017.0698990148553, 0.5763227311378251
1066.648515238467, 0.294702885616932
1104.8948763252538, 0.2759266783010531
1164.3892157935884, 0.4995866688320001
1213.9678320172006, 0.6869358975167233
1233.7992785066458, 0.6982744302184862
1277.7117671618676, 0.7353090011168747
1321.6242558170443, 0.2965371889367311
1410.8657650195464, 0.5871562928811839
1457.6113174589523, 0.6584106648047414
1583.6826558561374, 0.6843895877933099
1613.4298255903045, 0.49413013193659505
1718.2531856059418, 0.5898572174844783
1729.5854407427678, 0.5682980388627631
1762.16567426116, 0.7082931955032006
2872.726677670064, 0.8102375224567956
2930.804485246295, 0.7379652222004804
2954.885527412049, 0.7350739199015539
##END=


$$ === CHEMSPECTRA PEAK TABLE AUTO ===
##TITLE=X7339
##JCAMP-DX=5.00
##DATA TYPE=INFRAREDPEAKTABLE
##DATA CLASS=PEAKTABLE
##$CSTHRESHOLD=0.93
##MAXX=3997.453
##MAXY=0.9871473259663716
##MINX=373.96442
##MINY=0.2759266783010531
##NPOINTS=74
##PEAKTABLE= (XY..XY)
3902.545363229085, 0.9166669799721497
3852.966747005473, 0.9010677885950598
3838.801428084441, 0.9108337714496855
3820.3865134870994, 0.9162006926126751
3800.555066997654, 0.9178597875545771
3749.5599188819388, 0.8946961713411404
3735.394599960907, 0.8943907568946269
3711.3135577951525, 0.9174966763782204
3674.483728600469, 0.9093601062477761
3648.9861545426115, 0.8911204882645766
3627.738176161063, 0.9173830701399689
3566.8273048006254, 0.9150893635728891
2954.8855274120406, 0.7350739199015539
2930.8044852462863, 0.7379652222004804
2871.310145777951, 0.8088967754136431
2862.810954425332, 0.8165443492562872
1791.9128439953088, 0.9140546864746468
1760.749142369038, 0.7035920584536579
1729.5854407427678, 0.5682980388627631
1718.2531856059418, 0.5898572174844783
1684.2564201954651, 0.8547859740248377
1670.0911012744327, 0.8844756440176722
1663.0084418139168, 0.9068664855406481
1653.0927185691944, 0.8705707744156753
1647.4265910007816, 0.8758522224490201
1613.4298255903045, 0.49413013193659505
1583.6826558561374, 0.6843895877933099
1569.5173369351055, 0.7840151742087994
1559.6016136903827, 0.7655354102968608
1541.1866990930412, 0.8305721831865491
1534.1040396325252, 0.8816339325168029
1519.9387207114933, 0.828191037913987
1507.1899336825645, 0.8113126712947547
1490.1915509773257, 0.7794040399391126
1457.6113174589523, 0.6584106648047414
1436.363339077404, 0.8551869349473247
1410.8657650195464, 0.5871562928811839
1374.035935824863, 0.8371818024389677
1361.2871487959342, 0.8254887416366283
1321.6242558170443, 0.2965371889367311
1283.3778947302576, 0.7029744943835564
1262.1299163487097, 0.8189421844557683
1233.7992785066458, 0.6982744302184862
1213.9678320172006, 0.6869358975167233
1164.3892157935884, 0.4995866688320001
1104.8948763252538, 0.2759266783010531
1066.648515238467, 0.294702885616932
1017.0698990148553, 0.5763227311378251
985.9061973885846, 0.7762459479540361
949.0763681939011, 0.6083475318867397
924.9953260281468, 0.7891149480574816
888.1654968334633, 0.8530262062969203
841.4199443940574, 0.44760247788704394
779.0925411415164, 0.7789318521747152
769.1768178967941, 0.7957605084800536
733.7635205942138, 0.7249597276567028
718.1816697810787, 0.8040152144989604
695.5171595074276, 0.7529535249266249
678.5187768021888, 0.7961594422300797
664.3534578811568, 0.7863606771007998
645.9385432838153, 0.7859466034523216
633.1897562548866, 0.7712745028559816
597.7764589523063, 0.7045966947866692
555.28050218921, 0.7895873739341998
515.6176092103201, 0.7948285295015826
507.11841785770093, 0.8018370825040272
484.45390758404983, 0.8896537972714149
471.7051205551211, 0.8740197376086439
456.1232697419855, 0.8588293740541537
443.37448271305675, 0.873587484682051
434.8752913604376, 0.8601195171726947
417.87690865519926, 0.7746307208403186
398.0454621657541, 0.6950194798412905
385.29667513682534, 0.7132341824499484
##END=

##END=

