##TITLE=ZZ_110
##JCAMP-DX=4.24
##DATA TYPE=INFRARED SPECTRUM
##DATE=24/10/2019
##SAMPLING PROCEDURE=ATR platinum Diamond 1 Refl
##ORIGIN=Marie
##XUNITS=1/CM
##YUNITS=TRANSMITTANCE
##RESOLUTION=4
##FIRSTX=3997.453
##LASTX=373.96442
##DELTAX=-1.4165319
##MAXY=1.0019346
##MINY=0.35819557
##XFACTOR=1
##YFACTOR=9.3312436e-010
##NPOINTS=2559
##FIRSTY=1.0009129
##XYDATA=(X++(Y..Y))
3997+1072646853+1071669544+1070909670+1070623823+1070608174+1070679907
3989+1070860166+1071043044+1070896895+1070330567+1069750569+1069611510
3980+1069903553+1070261005+1070413414+1070391952+1070368445+1070406196
3972+1070474480+1070642731+1071025606+1071491201+1071668522+1071370602
3963+1070845283+1070503672+1070456212+1070462599+1070359311+1070291410
3955+1070432641+1070659913+1070661638+1070299459+1069759320+1069334989
3946+1069140996+1069163033+1069410043+1069775097+1069961361+1069797326
3938+1069375422+1068826149+1068281603+1067992242+1068100768+1068297763
3929+1068171033+1067853758+1067802657+1068124786+1068412677+1068314499
3921+1068026416+1068044621+1068600665+1069278075+1069319658+1068598494
3912+1067882183+1067879373+1068320631+1068375756+1067844624+1067386119
3904+1067657019+1068574476+1069613107+1070365507+1070534971+1069961744
3895+1068796383+1067507612+1066719377+1066587025+1066370101+1065699526
3887+1065486243+1066645344+1068363045+1069209344+1069329687+1069453863
3878+1069273667+1068275151+1066827711+1065672762+1065290078+1065870076
3870+1067122118+1067944527+1067656125+1066986125+1067009120+1067892595
3861+1068810883+1068962014+1068110925+1066510757+1064923811+1064731670
3853+1066671342+1068512452+1068432159+1067204455+1065913193+1065027610
3844+1064545662+1064380606+1064626466+1065457626+1066691782+1067484744
3836+1067206626+1066453587+1066179302+1066411301+1066316700+1065482729
3827+1064440458+1063755511+1063429805+1063593840+1064780153+1066417050
3819+1066866995+1066239729+1065935613+1066195207+1066071862+1065324635
3810+1064553200+1064466711+1065433608+1066684948+1066864440+1066143531
3802+1065991761+1066927486+1067874518+1068326061+1068428646+1067849287
3793+1066558664+1065443701+1065187173+1065391450+1065228885+1064580986
3785+1064040400+1063960810+1064157869+1064594719+1065471615+1066436085
3776+1066698745+1066065346+1065012727+1064133979+1063763240+1063670236
3768+1063334885+1062784717+1062360067+1061902392+1061262223+1061120992
3759+1062218197+1063900447+1064748853+1064403090+1063413900+1062575586
3751+1062706085+1063528750+1063755894+1063250951+1062928567+1063121346
3742+1062912342+1061846181+1060442305+1059317313+1059065513+1060123306
3734+1062007469+1063452034+1063854519+1063532710+1062919560+1062210340
3725+1061562378+1061300037+1061647653+1062280796+1062562874+1062311521
3717+1061853463+1061368832+1060797011+1060429338+1061027668+1062679513
3708+1064353458+1065190559+1065037128+1064256174+1063495789+1063140764
3700+1062896501+1062406952+1061830531+1061505975+1061552222+1061884507
3691+1062478557+1063451459+1064549942+1064949425+1064369172+1063364523
3683+1062539112+1062063808+1061740913+1061553116+1062081246+1063619390
3674+1064553519+1063431849+1061600065+1061183591+1062481879+1063599333
3666+1063404766+1062421005+1061542257+1061267972+1061520411+1062055823
3657+1062782162+1063276182+1062787528+1061418912+1060231577+1060295964
3649+1061595210+1062614550+1062464888+1061684637+1060935048+1060530518
3640+1060550320+1060904195+1061326993+1061525457+1061377136+1060839488
3632+1059984183+1059473683+1060436556+1062500595+1063666084+1063521979
3623+1062873761+1062275239+1062118678+1062660733+1063263152+1062902633
3615+1061632259+1060291301+1059458097+1059176274+1059373205+1059918710
3606+1060374724+1060376512+1060097500+1059994403+1060215224+1060356710
3598+1060057577+1059616063+1059570456+1059899994+1060140744+1060221101
3589+1060586218+1061436861+1062024013+1061485662+1060193634+1059132008
3581+1058814287+1059110418+1059731552+1060510269+1061155805+1061232328
3572+1060584622+1059526573+1058630642+1058483854+1059213770+1060097436
3564+1060415541+1060153264+1059542733+1058843031+1058394618+1058256007
3555+1058033078+1057513252+1057100546+1057152925+1057337528+1057223061
3547+1056970749+1057023192+1057385882+1057625993+1057514018+1057331715
3538+1057549342+1058263800+1059031466+1059404632+1059435038+1059437976
3530+1059520696+1059485692+1059055676+1058178908+1057172471+1056484075
3521+1056274368+1056370758+1056576376+1056792662+1056953502+1057034626
3513+1057051808+1057027216+1057055960+1057241905+1057404023+1057146729
3504+1056366159+1055458347+1054984831+1055248449+1056145721+1057221209
3496+1057927235+1058002928+1057479397+1056439681+1055152635+1054211352
3488+1054031667+1054363058+1054701348+1054879946+1054950593+1054901025
3479+1054776402+1054712654+1054701412+1054625335+1054545234+1054653185
3471+1054959472+1055267868+1055464032+1055690346+1056127644+1056587746
3462+1056524508+1055683575+1054550983+1053866547+1053857540+1054126971
3454+1054147539+1053775651+1053374315+1053442790+1054097652+1054959472
3445+1055562402+1055681020+1055262374+1054392186+1053372526+1052582120
3437+1052214000+1052230352+1052475190+1052776176+1053054166+1053389326
3428+1053861309+1054339360+1054562033+1054407899+1054004647+1053614810
3420+1053443302+1053494594+1053590473+1053544865+1053332348+1053107823
3411+1053040752+1053103096+1053083613+1052875632+1052650212+1052650020
3403+1052898563+1053218520+1053460740+1053595519+1053626563+1053565880
3394+1053509158+1053594689+1053792386+1053829882+1053436914+1052662987
3386+1051888038+1051455659+1051322349+1051193318+1050965663+1050827051
3377+1050928167+1051164957+1051331994+1051365338+1051345153+1051298459
3369+1051133402+1050851005+1050657395+1050715459+1050945733+1051158761
3360+1051200664+1050986934+1050615620+1050372826+1050448903+1050721783
3352+1050906897+1050890736+1050917053+1051330078+1051992476+1052219557
3343+1051582517+1050500579+1049764467+1049692350+1049943129+1049983818
3335+1049624769+1049163070+1049030782+1049375651+1050026360+1050745864
3326+1051365465+1051720235+1051615669+1050977161+1050022527+1049203312
3318+1048892681+1049079967+1049385871+1049453325+1049332982+1049364920
3309+1049680916+1050023039+1050112146+1049997488+1049917898+1049944726
3301+1049952327+1049918153+1049992953+1050181388+1050245073+1050065069
3292+1049858173+1049881297+1050091897+1050215307+1050091131+1049886662
3284+1049893497+1050129329+1050318978+1050286082+1050113999+1049888132
3275+1049523142+1048947360+1048355353+1048125717+1048384928+1048715488
3267+1048515236+1047728789+1047036944+1047180985+1048176052+1049321484
3258+1049991867+1050237663+1050468321+1050783232+1050911432+1050649986
3250+1050095858+1049575393+1049508706+1050124858+1051154226+1051961688
3241+1052071811+1051440584+1050319553+1049111075+1048277615+1048094865
3233+1048425809+1048868025+1049166009+1049409442+1049784141+1050204384
3224+1050358198+1050142296+1049819848+1049642782+1049582866+1049594428
3216+1049820359+1050288956+1050700384+1050802970+1050743117+1050774097
3207+1050825199+1050622902+1050118917+1049567089+1049214874+1049088846
3199+1049103090+1049247643+1049561787+1049922689+1050030512+1049764595
3190+1049400818+1049282328+1049424580+1049640355+1049840096+1049994741
3182+1050036708+1049982285+1049918090+1049806817+1049579672+1049403118
3173+1049506342+1049801260+1049994039+1049954116+1049707617+1049266103
3165+1048700094+1048166790+1047763921+1047593371+1047854753+1048518621
3156+1049122764+1049290631+1049203376+1049200885+1049263101+1049230332
3148+1049185108+1049259779+1049317843+1049105326+1048574257+1047925401
3139+1047470409+1047450224+1047795923+1048088286+1047961683+1047507138
3131+1047086192+1046841226+1046622194+1046311946+1046019392+1045921214
3122+1046039896+1046284990+1046621747+1046975750+1047015289+1046384574
3114+1045206629+1043957525+1042784499+1041372574+1039571898+1037715074
3105+1036176355+1034996494+1034080122+1033413380+1032929453+1032467562
3097+1032019788+1031786448+1031808166+1031687120+1030868224+1029208396
3088+1027175145+1025406471+1024128942+1023140774+1022308592+1021833224
3080+1022003007+1022886035+1024274836+1025736520+1026726222+1026862470
3071+1026116904+1024595176+1022155544+1018427269+1013336446+1007668308
3063+1003004818+1000799485+1001307941+1003487085+1005970089+1008007939
3054+1009561988+1010918468+1012337100+1013757392+1014742175+1014910106
3046+1014420237+1013871347+1013713125+1013770486+1013307638+1011627944
3037+1008675895+1004988884+1001150805+997605408+995012409+994277574+995871036
3027+999330072+1003645179+1007987690+1011957610+1015384580+1018191310
3019+1020405778+1022067395+1023124358+1023594999+1023803811+1024235808
3010+1025123307+1026323800+1027591556+1028804249+1029960860+1031123091
3002+1032332336+1033530146+1034626394+1035593355+1036348374+1036719432
2993+1036774749+1037009687+1037865950+1039176758+1040334774+1040888966
2985+1040761852+1040113825+1039314412+1038756451+1038284596+1037066856
2976+1034380022+1030139139+1024358067+1016859295+1008291614+1000910758
2968+997353352+998528997+1003096225+1008858709+1014241511+1018595839+1021815466
2958+1024035427+1025463321+1026257624+1026532548+1026318690+1025341189
2949+1023013852+1018949842+1013512937+1007799319+1003102230+1000315876
2941+999612789+1000497860+1002125815+1003684719+1004681702+1004979749
2932+1004642099+1003878201+1003111300+1002792301+1003042952+1003680503
2924+1004555035+1005574247+1006456125+1006799333+1006466218+1005749269
2915+1005150044+1005033150+1005415195+1006010012+1006466665+1006611856
2907+1006560819+1006591990+1006873302+1007343177+1007823911+1008103115
2898+1008018479+1007725605+1007771852+1008653027+1010395959+1012660953
2890+1015034920+1017183851+1018956677+1020390383+1021563218+1022567228
2881+1023592253+1024781440+1025965901+1026762376+1027019989+1027083291
2873+1027500915+1028465257+1029652209+1030616104+1031147492+1031212518
2864+1030811374+1030017199+1028993835+1027904039+1026811561+1025602891
2856+1024055804+1022116516+1020040213+1018111273+1016295521+1014233910
2847+1011447557+1007571919+1002720440+997817797+994355184+993491894+995304579
2837+998931930+1003312064+1007675462+1011532065+1014583569+1016832339
2829+1018633909+1020418617+1022286938+1023949641+1025099609+1025753001
2820+1026127763+1026321501+1026329741+1026282153+1026359379+1026494095
2812+1026453916+1026255197+1026243252+1026684766+1027407783+1027936297
2803+1028000045+1027853193+1027954118+1028396015+1028890483+1029241292
2795+1029472205+1029518963+1029230305+1028749188+1028500836+1028672792
2786+1028998625+1029164449+1029180098+1029227814+1029349818+1029421487
2778+1029355886+1029244550+1029287730+1029566934+1029930391+1030172929
2769+1030265295+1030300874+1030303174+1030227735+1030106690+1030054119
2761+1030104326+1030139203+1030066767+1030022309+1030253925+1030767555
2752+1031238771+1031363650+1031179622+1030940980+1030790551+1030710322
2744+1030692884+1030772026+1030922008+1031101246+1031337652+1031614237
2735+1031763325+1031636722+1031256401+1030720159+1030144313+1029728222
2727+1029636623+1029799444+1030006595+1030142908+1030200396+1030195414
2718+1030193178+1030303557+1030586721+1031012841+1031495427+1031931447
2710+1032257984+1032459003+1032510232+1032428278+1032359675+1032459769
2701+1032690363+1032878862+1032942931+1032948424+1032992562+1033086589
2693+1033126831+1032996778+1032721982+1032458939+1032296246+1032144284
2684+1031899445+1031647325+1031589389+1031786320+1032093757+1032371492
2676+1032611220+1032867492+1033166626+1033451898+1033555953+1033326764
2667+1032797101+1032082834+1031164547+1029995545+1028764582+1027801262
2659+1027257610+1027075690+1027209766+1027690564+1028483781+1029420465
2650+1030297872+1030984990+1031410918+1031526918+1031382430+1031204917
2642+1031230212+1031407405+1031430401+1031087001+1030390365+1029380031
2633+1028059642+1026578859+1025259683+1024337052+1023712021+1022990729
2625+1021811314+1020120186+1018062599+1015781380+1013593549+1012154541
2616+1012021933+1013076980+1014628858+1016045828+1017189472+1018361796
2608+1019926577+1021938301+1024073881+1025864082+1026995972+1027489226
2599+1027610655+1027623941+1027696377+1027971045+1028488317+1029077321
2591+1029565018+1030012472+1030572668+1031232384+1031800181+1032069804
2582+1032003564+1031814298+1031739499+1031737263+1031606955+1031360392
2574+1031207855+1031219417+1031233470+1031069627+1030706681+1030336836
2565+1030305537+1030820700+1031616089+1032044253+1031562944+1030068939
2557+1027906402+1025782448+1024513798+1024514309+1025523301+1026912549
2548+1028092666+1028672217+1028572186+1028032111+1027297405+1026441269
2540+1025649393+1025319727+1025620776+1026247596+1026778536+1027029635
2531+1027035703+1026946531+1026969463+1027243557+1027739429+1028306844
2523+1028832738+1029398747+1030235465+1031411685+1032610390+1033384955
2514+1033690923+1033993953+1034674876+1035447525+1035718233+1035460364
2506+1035208883+1035187420+1035091861+1034840635+1034906108+1035703669
2497+1037010964+1038117240+1038418928+1037933851+1037285058+1037095026
2489+1037407829+1037751100+1037659054+1037051654+1036155787+1035171770
2480+1034102479+1032881545+1031591305+1030519715+1029942527+1029802830
2472+1029792354+1029833490+1030166222+1030835392+1031503028+1031891652
2463+1032043359+1032126654+1032302569+1032704033+1033312392+1033958055
2455+1034506817+1034919203+1035164616+1035181735+1034880047+1034260829
2446+1033639503+1033539600+1034106951+1034803140+1034954527+1034473665
2438+1033801366+1033301469+1033055034+1033080201+1033315841+1033517627
2429+1033605329+1033911872+1034638338+1035321114+1035329226+1034725466
2421+1034248245+1034508350+1035412585+1036305896+1036537704+1035882907
2412+1034559707+1033007957+1031662336+1030790998+1030473468+1030729932
2404+1031596096+1033002080+1034602121+1035831422+1036264888+1035936946
2395+1035232836+1034503495+1033869266+1033285244+1032678993+1032105766
2387+1031799543+1031942562+1032382990+1032726453+1032739101+1032573469
2378+1032566826+1032910290+1033612611+1034685032+1036068340+1037411789
2370+1038327841+1038874431+1039342007+1039682851+1039634177+1039231692
2361+1038785962+1038466389+1038086515+1037304732+1036108965+1034968452
2353+1034330582+1034172743+1034214007+1034300688+1034481266+1034830862
2344+1035182693+1035208116+1034978417+1034985507+1035475439+1036258500
2336+1037053634+1037555383+1037395309+1036466035+1035071293+1033565151
2327+1032203497+1031353685+1031354771+1032048469+1032756411+1032932455
2319+1032675799+1032409115+1032293435+1032216911+1032170026+1032278743
2310+1032510232+1032671520+1032709079+1032741337+1032788988+1032703011
2302+1032449357+1032312279+1032617608+1033261099+1033727461+1033654450
2293+1033191218+1032717383+1032413970+1032288069+1032456575+1033104282
2285+1034144191+1035180202+1035874667+1036207399+1036400561+1036693179
2276+1037060916+1037144466+1036698161+1036017111+1035579302+1035429703
2268+1035252446+1034861139+1034353769+1033953392+1033831196+1033997786
2259+1034358113+1034886051+1035626507+1036512984+1037264745+1037510031
2251+1037137184+1036523651+1036160003+1036050646+1035845539+1035511976
2242+1035511785+1036374947+1038225127+1040492740+1042184507+1042820908
2234+1042819822+1042592422+1041980358+1041064562+1040569328+1040895545
2225+1041588668+1042081475+1042186487+1041808850+1040956675+1040094599
2217+1039894154+1040479135+1041178773+1041144408+1040109929+1038480825
2208+1036959480+1036275236+1036805538+1038090604+1039206397+1039846566
2200+1040407210+1040941344+1040839909+1039728523+1038107020+1036921537
2191+1036746133+1037377551+1038129121+1038595802+1039163216+1040640167
2183+1043174081+1045698541+1046836499+1046173015+1044367101+1042492775
2174+1041346576+1040809951+1040015456+1038681141+1037808589+1038433812
2166+1040146849+1041474776+1041720381+1042144265+1044734773+1049045410
2157+1051647927+1050627373+1047917927+1046033317+1045351820+1045014999
2149+1044717016+1044848026+1045669541+1046939979+1048055772+1048339384
2140+1047430231+1045633706+1043828112+1042801873+1042603281+1042686448
2132+1042670160+1042664666+1042854124+1043171334+1043583273+1044403383
2123+1045820800+1047250291+1047766285+1047157287+1045875798+1044042098
2115+1041481994+1038802698+1037270622+1037256633+1037794728+1038059304
2106+1038381816+1039320225+1040468595+1040897461+1040458630+1040042220
2098+1040520016+1041763370+1042885040+1043354404+1043555615+1044094412
2089+1044911903+1045465967+1045565742+1045463092+1045159105+1044298689
2081+1042978172+1042000926+1041879370+1042150461+1042162278+1041959343
2072+1041856885+1041751489+1041366506+1040645469+1039568321+1038111874
2064+1036585100+1035581729+1035446056+1035998140+1036822146+1037644363
2055+1038204878+1038003412+1036849868+1035496454+1034937472+1035187292
2047+1035472181+1035446950+1035436794+1035875561+1036994867+1038588456
2038+1040051418+1041096947+1042130148+1043325212+1043673594+1041996775
2030+1038962133+1036825148+1036916619+1038649139+1041080531+1043825556
2021+1046292208+1047753893+1048361230+1048929857+1049736872+1050227954
2013+1049747859+1048246571+1046434653+1045362806+1045759287+1047520744
2004+1049685707+1051167512+1051473289+1050683648+1049374821+1048650462
1996+1049254733+1050612107+1051552623+1051546683+1050514248+1048508912
1987+1046441871+1045714510+1046560362+1047960469+1049110755+1049740896
1979+1049505767+1048426256+1047440579+1047300689+1047639362+1047857117
1970+1047944628+1048051748+1048166854+1048416291+1048944038+1049618573
1962+1050417923+1051492643+1052341242+1051894937+1049967019+1047738179
1953+1046543434+1046899737+1048514341+1050494191+1051810492+1052210678
1945+1052421662+1053051100+1053537264+1052757588+1050521083+1047714545
1936+1045224450+1043131348+1040940258+1038460831+1036172906+1034673151
1928+1034001746+1033810181+1034114935+1035340468+1037427886+1039663241
1919+1041644879+1043520738+1045261882+1046579141+1047482482+1048241908
1911+1048982875+1049549331+1049590084+1048889168+1047714672+1046546437
1902+1045363701+1043530831+1040510242+1036518413+1032509082+1029532632
1894+1027887942+1027055568+1026579114+1026468225+1026660557+1026748067
1885+1026431432+1025803782+1025263771+1025304333+1026199305+1027867118
1877+1030058207+1032488514+1034814254+1036804707+1038496602+1039957456
1868+1041042461+1041610897+1041781383+1041752767+1041666533+1041670110
1860+1041913033+1042444484+1043159006+1043853407+1044325453+1044483356
1851+1044421523+1044323920+1044291407+1044338867+1044449310+1044418905
1843+1043904316+1042933203+1041933090+1041353858+1041531435+1042524010
1834+1043967745+1045331188+1046244237+1046558892+1046438549+1046342479
1826+1046571668+1046942917+1047028001+1046699357+1046232037+1045957113
1817+1045989817+1046219198+1046510985+1046871248+1047404169+1048119841
1809+1048813475+1049253264+1049435950+1049560062+1049808478+1050169571
1800+1050384387+1050143318+1049402926+1048353564+1047115256+1045604834
1792+1043668740+1041386755+1039187873+1037655925+1037316485+1038301460
1783+1040185622+1042376137+1044339378+1045528310+1045712147+1045225280
1775+1044629186+1044350876+1044450012+1044479459+1043822874+1042098849
1766+1039365002+1036241062+1033750648+1033029611+1034485738+1037295662
1758+1040522826+1043563088+1045785030+1046941640+1047319852+1047138890
1749+1046285629+1044807976+1043109246+1041508695+1040167865+1039378608
1741+1039556567+1040687180+1042161192+1043709812+1045819076+1048607026
1732+1050821366+1051762393+1052040448+1052147696+1052289821+1052684066
1724+1053385429+1054169896+1054935774+1055945405+1057434811+1059028911
1715+1060116280+1060825180+1061508402+1062130686+1062468018+1062466740
1707+1062312287+1062180127+1062047136+1061880994+1061743020+1061511405
1698+1060884713+1059976135+1059206360+1058653957+1058037358+1057294730
1690+1056699977+1056525594+1056878001+1057949208+1059648257+1060789601
1681+1060803015+1060451439+1060340103+1060659357+1061350691+1062080543
1673+1062588744+1063120196+1064042252+1065134156+1065811629+1066076716
1664+1066344870+1066904299+1067698539+1068483516+1069128796+1069606144
1656+1069970112+1070462727+1071234482+1071712469+1071668522+1071490115
1647+1071235632+1070507313+1068953774+1066598714+1063479629+1059673233
1639+1055250621+1049785929+1042426854+1033549182+1024556659+1015266472
1630+1004965697+994586289+987127950+985409164+990145025+999902724+1010836962
1621+1019553666+1026184358+1032407135+1038392739+1042536019+1044256786
1612+1043795343+1040391113+1032870367+1022144047+1011894053+1005335477
1604+1002158583+999194462+993310421+983257039+969541366+953887555+938885602
1594+927110303+920080959+918221388+921432137+929244351+940763314+954940941
1584+970792578+986866121+1000893191+1010924281+1015818237+1013928261+1004950430
1574+993046867+982108222+974275887+972635668+978766399+990373959+1004675570
1564+1018851728+1030297233+1039296207+1048770805+1058479319+1064048001
1555+1066451926+1067908692+1068980027+1069818022+1070434685+1070755728
1547+1070929344+1071152848+1071434032+1071668522+1071820548+1071390085
1538+1070656017+1069638849+1067819648+1064754027+1060410367+1055153273
1530+1048898302+1040514267+1028924145+1015437278+1002759788+991449063+980789493
1520+971095607+961946715+951400910+937909443+920737992+899944683+877676596
1510+858150021+845928354+844322373+847386653+841732695+822997741+791195012
1500+747814873+698357212+650584484+609722992+575583856+543592627+508201672
1490+467721236+429586469+404266814+393906665+395896192+408219040+428426729
1480+452705358+478366241+505413658+534607866+566754601+602858896+639034158
1470+667154538+684265179+687940756+668232070+618819953+559067010+517169028
1460+501277852+508218184+535977536+575177729+609514755+636191018+659359507
1451+681442736+704067764+728175365+751992136+772461526+787512600+794053801
1441+786176050+756136629+700503907+638841251+609692523+621719687+655702582
1431+695618319+732383607+761215635+782230084+797924201+809869795+818793203
1421+826516565+835721413+846834505+857475933+866466093+874138034+880590958
1411+885610559+888962666+890634439+891182563+891447714+891720530+891270712
1401+888525304+881805185+870751753+857054860+844476379+838977897+844645141
1391+859784811+880271640+902562914+923076955+939165573+951225186+961236537
1381+970435317+978963075+986505602+992959421+998702613+1004081072+1008837502
1371+1012711096+1015996644+1018980822+1021582126+1023629620+1024798751
1363+1024395116+1022104252+1018808292+1015804439+1013579049+1011287738
1354+1007014916+998502553+983267898+958417671+921582566+872547831+814300646
1344+752702697+694270910+644435356+608342240+590238576+589587994+601031264
1334+619156390+641073476+665722812+692482498+720455452+748500012+775360749
1324+799749725+820761555+838410610+853632553+867683641+881525917+895754198
1315+910745228+926376363+941914686+956693454+970474473+982857428+992848084
1305+998983223+999247160+990569165+968627103+929330648+872214460+802348090
1295+728012991+658192804+604093883+579691493+594646943+643259391+701987884
1285+743808033+758803215+757890804+753646790+742309173+710783604+657150980
1275+596309710+546943840+518453359+508894955+510064980+512975285+511223378
1265+503163899+492822657+487497855+492815982+509646781+535086683+564967339
1255+594759877+618672462+628960910+618308494+586120080+543452546+508873493
1245+496435476+507206382+532143481+561084674+588136020+611429451+631244300
1235+648722103+664950930+680402189+694930881+708185175+720064273+730805285
1225+740708941+749991718+758840454+767395807+775718202+783856122+791814805
1215+799279914+805148688+807043582+801350852+784728674+757358713+725737329
1205+701062187+692639634+701910594+722740759+746780267+768370817+785721441
1196+799232326+809433072+815758881+816149486+808250272+792609683+774703908
1186+762155321+759446195+765867180+777719450+791214813+803856468+814617665
1176+823548866+831180757+838076089+844658299+851158428+857576667+863768975
1166+869599231+874911130+879476123+883149592+885970439+888061433+889403158
1156+889277960+886279026+880383807+874970152+874261060+877257567+875313488
1146+857840157+822789631+782581085+757159355+758183102+780644096+810440530
1136+836883580+856788623+871132457+881673855+889786672+896308582+901742038
1126+906200037+908601024+905520967+891479588+863028711+825100616+792126074
1116+779314572+791149979+818858229+848913171+872887334+889682872+901597039
1106+910831142+918703464+925829517+932160246+936282830+934678893+924386868
1096+908570939+896781715+896639590+906915581+920607748+932386113+941143953
1086+947777392+953187086+957891265+962118671+966040874+969999041+974299329
1077+978828615+983096965+986623646+989100838+990066841+988424322+982196563
1067+967613959+936897193+879583627+793794271+699380002+632235854+617747851
1057+651648601+709339677+768350568+818422528+856471413+878642152+878487571
1047+854249152+818097844+792092923+790022816+806294887+825448998+838702589
1037+848418832+860372538+876326888+893707981+909089424+920041100+924398174
1027+919194673+900337523+863631832+809042850+746329491+694055455+668670901
1017+673417174+698469571+730509728+760747421+785975286+806111114+822198647
1007+835398390+846585770+856350623+865020058+872704456+879513491+885633746
997+891231812+896505002+901696175+906895971+911996823+916848301+921309686
987+925325788+929065114+932761961+936425338+939897341+943117671+946216635
977+949380115+952622418+955749105+958599655+961111595+963025332+963739279
967+962445909+957775968+946265501+921321119+877332686+819408205+767616244
958+744803994+757767842+793476039+833039689+864962250+886411952+899144759
948+907333844+915670739+926367612+938308798+949361847+958449034+965279340
938+968842878+965648929+949095099+913780380+864359895+818397616+795186841
928+800575328+824644539+852678623+875354241+890315696+899364494+906071646
918+913779294+923683014+934454176+943916573+951036878+956275767+960480496
908+964058789+967152707+970014499+972972169+976171483+979488394+982860686
898+986607869+991024604+995599433+998409612+995349612+980831907+953106218
888+920491173+898311874+896219155+910510993+930402622+948376744+962656255
878+973771199+982404289+989305050+995073922+999986593+1004303618+1008318762
868+1011982266+1014526336+1013837940+1005653773+984792820+950400222+911315389
858+883391684+878167806+894302798+920772549+946560099+966416212+980098478
849+989234275+995229078+998661733+999115064+994819055+983369909+964821665
839+944700848+932284996+934114353+949103530+970355982+991033291+1007975490
829+1021228634+1032038121+1041117707+1047684012+1048770869+1037555511
820+1004281069+946319540+880086973+835121294+829974387+857419531+895792780
810+929050294+953203502+970541224+983844383+994490347+1002787511+1009245097
800+1015038944+1021005833+1026965247+1032319688+1036804132+1040613211
792+1044156309+1047734666+1051348858+1054739801+1057630145+1060083447
783+1062587914+1065501381+1068485241+1070728070+1071668522+1071458880
775+1070661702+1069928528+1069529684+1069300687+1068717368+1066864376
766+1062668270+1055413506+1044575849+1028711884+1005444706+974748317+942798544
756+918829492+903554148+881882859+832886769+749371605+645169296+543169829
747+460621148+406229353+383866920+393035295+427266573+475792117+528256505
737+578261236+623385648+663365709+698734083+730238254+758057457+779262705
727+785541501+768989460+735199727+705225844+697180545+709319684+727749948
717+744808146+760400381+771151932+768150379+744916480+705180556+664435064
707+642250910+648572121+677194315+713720897+747646623+775797728+798718696
697+817558408+833183411+846140679+857002737+866538401+874961082+880625515
687+880125363+871532004+858464229+849440344+851302150+863495903+879776023
677+894543804+906400737+916398036+924982516+931867308+937791974+944748819
667+952748958+958895594+962649867+965674926+969257308+973648620+978499779
657+983355153+987798078+991711403+995285097+998492268+1000592461+999901829
647+994313473+983231042+969520159+958352453+951262553+939352795+905997358
637+843975524+771448063+722996328+719278529+750829840+793421361+830485399
628+858666909+880511624+898308042+913036028+925023525+934477107+942001239
618+948604464+954863139+960359642+964266068+966125511+966146462+965425936
608+965688021+968025770+971953148+975964524+978621911+978949661+975889788
598+966732656+945823348+906804947+849707858+787947854+744897445+736935313
588+760502391+798647154+835896434+865634230+888012440+905032696+918207847
578+928713538+937701717+945727087+952249125+956533763+959112199+961907303
568+966617487+972912444+978586395+981602065+981399768+978442418+973909619
558+970023633+969015216+971108191+974566652+977797458+980402849+982390619
548+983633335+984408859+985227371+985004634+980534435+969895689+956319777
538+946746235+945895082+952698815+962476570+971443095+978659725+984509273
528+988828724+991193365+992040686+992392837+992992509+994580157+997950149
518+1002632099+1006394229+1007466203+1006639195+1006170087+1007301338
510+1009276652+1010610073+1010964715+1011295339+1012367249+1013957453
501+1015465703+1016621036+1017420066+1017790613+1017666309+1017346927
493+1017538876+1018722442+1020473998+1021832074+1022378601+1022631104
484+1023502634+1025462363+1028151624+1030832837+1033029164+1034755424
476+1036447127+1038546809+1040588938+1040897908+1038344385+1033538578
467+1026848417+1016899345+1002986422+988235312+977465747+970944284+963418492
458+952733244+946073233+950339603+962883846+975871520+984137703+988156552
448+991021027+995156195+1001369390+1008685093+1015122112+1019666216+1023147737
438+1026996291+1031575783+1035612518+1037649345+1037674065+1036855234
429+1036727864+1038117432+1038892125+1033934867+1020696351+1002483906+982543667
419+961102844+942988385+936794352+944088592+961117727+981573001+997762353
409+1004934142+1003169683+995339073+985634903+978555287+976992487+981682038
399+992448984+1007503060+1021555553+1030053161+1033364834+1034123495+1034785063
390+1036656642+1039234439+1040749907+1040398075+1040653134+1045237673
381+1054029432+1063303713+1069761875+1071668522+1073741823+1071668522
##END=
