##TITLE= 
##JCAMP-DX= 4.24
##DATA TYPE= INFRARED SPECTRUM
##ORIGIN= JASCO
##OWNER= 
##DATE= 21/07/22
##TIME= 12:09:32
##SPECTROMETER/DATA SYSTEM= 
##RESOLUTION= 
##DELTAX=   0.96423347
##XUNITS= 1/CM
##YUNITS= TRANSMITTANCE
##XFACTOR= 1.00000
##YFACTOR= 1E-005
##FIRSTX=   649.8934
##LASTX=  4000.6047
##NPOINTS=     3476
##FIRSTY=      0.65322
##MAXY=      0.85012
##MINY=      0.29041
##XYDATA= (X++(Y..Y))
649.8934 65322 67526 68757 69495 70050 70508 70826 70949 70869 70606 70186
660.4999 69643 69049 68502 68078 67795 67582 67256 66512 65101 63191 61290
671.1065 59694 58375 57216 56147 55163 54267 53393 52357 50880 48676 45581
681.7131 41676 37356 33289 30274 29041 30024 33181 37939 43336 48332 52158
692.3196 54559 55811 56532 57381 58765 60701 62868 64827 66252 67057 67349
702.9262 67305 67050 66619 65986 65105 63932 62448 60702 58868 57268 56300
713.5328 56277 57292 59187 61626 64231 66703 68883 70720 72183 73215 73758
724.1393 73817 73511 73045 72622 72341 72183 72067 71939 71805 71708 71675
734.7459 71682 71663 71544 71291 70920 70481 70022 69554 69038 68411 67611
745.3525 66610 65407 64002 62360 60390 57963 54961 51328 47129 42578 38049
755.9590 34062 31222 30094 31041 34076 38807 44529 50428 55804 60232 63591
766.5656 66001 67693 68902 69800 70486 71014 71415 71719 71956 72151 72318
777.1722 72457 72557 72604 72593 72531 72439 72344 72266 72214 72185 72170
787.7787 72160 72153 72149 72147 72139 72114 72061 71974 71854 71706 71535
798.3853 71338 71114 70859 70577 70279 69980 69696 69439 69206 68982 68733
808.9919 68413 67975 67383 66625 65712 64671 63529 62295 60954 59475 57833
819.5984 56040 54183 52441 51093 50469 50879 52506 55324 59069 63291 67472
830.2050 71161 74080 76150 77440 78078 78170 77793 77029 76025 75015 74272
840.8116 74011 74302 75042 76005 76945 77685 78158 78387 78442 78393 78291
851.4182 78172 78061 77969 77897 77830 77756 77673 77595 77542 77524 77533
862.0247 77543 77531 77488 77423 77359 77314 77292 77282 77272 77255 77235
872.6313 77221 77218 77215 77195 77136 77030 76885 76728 76585 76476 76407
883.2379 76371 76354 76344 76325 76282 76204 76091 75957 75831 75744 75713
893.8444 75732 75771 75789 75750 75635 75450 75219 74977 74745 74501 74178
904.4510 73680 72937 71976 70950 70110 69709 69891 70618 71683 72810 73764
915.0576 74434 74834 75051 75177 75266 75333 75371 75377 75347 75280 75171
925.6641 75017 74820 74588 74338 74081 73827 73588 73384 73241 73179 73207
936.2707 73306 73441 73572 73672 73730 73755 73759 73750 73724 73675 73593
946.8773 73478 73333 73164 72976 72771 72545 72295 72014 71695 71332 70918
957.4838 70442 69894 69263 68542 67733 66846 65895 64890 63824 62663 61338
968.0904 59751 57804 55467 52853 50271 48208 47208 47687 49752 53131 57252
978.6970 61439 65127 68007 70034 71342 72116 72512 72628 72533 72298 72009
989.3035 71754 71602 71582 71661 71734 71632 71179 70289 69053 67765 66832
999.9101 66593 67151 68312 69670 70801 71440 71559 71317 70920 70511 70127
1010.5167 69732 69283 68766 68195 67589 66953 66280 65563 64812 64051 63310
1021.1232 62627 62040 61594 61331 61278 61429 61734 62099 62405 62533 62395
1031.7299 61956 61235 60295 59225 58112 57028 56027 55151 54450 53982 53817
1042.3364 54018 54615 55584 56839 58241 59627 60854 61827 62520 62976 63287
1052.9430 63568 63927 64442 65149 66033 67035 68073 69063 69940 70665 71226
1063.5496 71631 71895 72035 72069 72009 71848 71562 71118 70516 69821 69182
1074.1561 68798 68842 69389 70372 71604 72859 73954 74809 75441 75911 76272
1084.7627 76548 76738 76843 76878 76862 76812 76736 76633 76502 76340 76137
1095.3693 75871 75526 75110 74677 74325 74157 74246 74596 75137 75754 76328
1105.9758 76775 77065 77212 77256 77237 77188 77127 77066 77009 76955 76903
1116.5824 76853 76810 76784 76784 76811 76858 76912 76960 76996 77020 77036
1127.1890 77045 77050 77051 77052 77058 77071 77086 77096 77094 77074 77034
1137.7955 76976 76906 76826 76743 76661 76581 76504 76425 76339 76239 76115
1148.4021 75951 75735 75458 75119 74714 74227 73625 72877 71989 71044 70201
1159.0087 69655 69552 69908 70580 71312 71837 71987 71763 71325 70917 70756
1169.6152 70937 71393 71919 72263 72232 71796 71108 70455 70126 70297 70952
1180.2218 71903 72883 73665 74139 74322 74311 74214 74101 73996 73887 73754
1190.8284 73587 73385 73154 72901 72629 72337 72019 71666 71270 70826 70335
1201.4349 69802 69230 68619 67962 67257 66509 65737 64970 64236 63551 62901
1212.0415 62244 61514 60639 59556 58230 56654 54843 52823 50645 48413 46337
1222.6481 44773 44186 45034 47586 51766 57106 62869 68266 72683 75816 77682
1233.2546 78520 78658 78394 77950 77472 77048 76728 76526 76421 76361 76286
1243.8612 76138 75879 75493 74976 74332 73562 72664 71627 70437 69083 67554
1254.4678 65843 63943 61839 59528 57036 54466 52024 50027 48848 48830 50176
1265.0743 52861 56612 60956 65346 69303 72523 74918 76574 77662 78358 78791
1275.6809 79038 79135 79104 78960 78717 78390 77993 77543 77058 76560 76078
1286.2875 75645 75296 75064 74973 75030 75236 75586 76076 76690 77392 78120
1296.8940 78794 79337 79700 79876 79894 79799 79613 79311 78818 78044 76948
1307.5006 75600 74192 72999 72292 72241 72850 73945 75248 76499 77533 78308
1318.1072 78861 79252 79523 79689 79750 79707 79568 79330 78965 78428 77683
1328.7137 76757 75772 74936 74475 74527 75085 75999 77052 78038 78816 79337
1339.3203 79641 79813 79922 79997 80038 80042 80011 79954 79884 79813 79747
1349.9269 79687 79629 79566 79495 79416 79337 79265 79202 79139 79062 78956
1360.5334 78810 78630 78442 78273 78131 77999 77853 77679 77477 77258 77025
1371.1400 76759 76421 75979 75461 74978 74674 74649 74914 75409 76023 76625
1381.7466 77103 77402 77531 77533 77458 77350 77241 77145 77063 76993 76930
1392.3531 76876 76833 76807 76797 76798 76798 76790 76767 76724 76658 76568
1402.9597 76460 76340 76224 76121 76032 75952 75874 75793 75710 75623 75526
1413.5663 75412 75269 75087 74862 74600 74334 74102 73908 73718 73490 73202
1424.1729 72860 72482 72080 71635 71106 70465 69738 69006 68361 67851 67488
1434.7794 67282 67258 67409 67660 67902 68071 68151 68149 68062 67883 67609
1445.3860 67247 66813 66316 65737 65046 64225 63285 62246 61097 59782 58247
1455.9926 56683 55844 56495 58312 60513 62759 65071 67537 70108 72476 74226
1466.5991 75201 75594 75684 75644 75521 75289 74923 74484 74088 73777 73510
1477.2057 73233 72921 72570 72188 71782 71360 70929 70498 70066 69603 69039
1487.8123 68266 67222 66015 64862 63858 62932 61963 60885 59808 59169 59635
1498.4188 61505 64299 67248 69860 71959 73504 74428 74515 73364 70942 68306
1509.0254 66350 64895 63552 62137 60620 59042 57488 56068 54913 54202 54209
1519.6320 55275 57581 60839 64345 67519 70251 72713 75008 77050 78693 79888
1530.2385 80724 81360 81942 82518 83020 83367 83554 83638 83688 83764 83908
1540.8451 84112 84322 84504 84663 84802 84908 84977 85008 85012 85000 84979
1551.4517 84954 84926 84895 84860 84812 84741 84639 84537 84501 84534 84581
1562.0582 84605 84601 84572 84521 84449 84350 84211 84026 83812 83600 83403
1572.6648 83197 82924 82509 81912 81232 80692 80433 80442 80658 81035 81535
1583.2714 82093 82622 83042 83316 83451 83475 83415 83289 83105 82868 82596
1593.8779 82319 82086 81941 81910 81988 82150 82360 82585 82802 82998 83170
1604.4845 83322 83463 83599 83741 83894 84057 84216 84353 84455 84516 84535
1615.0911 84518 84485 84464 84474 84506 84545 84582 84614 84645 84677 84712
1625.6976 84745 84771 84784 84782 84766 84741 84711 84673 84622 84549 84455
1636.3042 84365 84304 84266 84232 84191 84137 84068 83978 83858 83698 83512
1646.9108 83353 83269 83252 83264 83267 83233 83151 83060 83018 83018 83030
1657.5173 83031 83016 82977 82910 82812 82693 82569 82455 82346 82230 82087
1668.1239 81905 81691 81481 81307 81163 81019 80854 80679 80537 80469 80482
1678.7305 80552 80652 80776 80937 81171 81487 81810 82045 82173 82235 82265
1689.3370 82286 82304 82317 82315 82288 82226 82129 82011 81910 81866 81894
1699.9436 81967 82045 82099 82127 82133 82127 82114 82098 82078 82051 82013
1710.5502 81959 81887 81796 81685 81555 81418 81310 81272 81300 81351 81384
1721.1567 81383 81346 81281 81197 81110 81028 80955 80884 80810 80728 80645
1731.7633 80578 80562 80619 80728 80846 80946 81025 81090 81146 81186 81202
1742.3699 81188 81148 81085 81005 80904 80788 80679 80618 80648 80769 80948
1752.9764 81150 81360 81577 81798 82014 82206 82361 82479 82571 82652 82730
1763.5830 82802 82860 82898 82914 82909 82882 82836 82769 82686 82595 82511
1774.1896 82446 82402 82377 82370 82382 82416 82465 82520 82570 82609 82635
1784.7961 82649 82650 82637 82605 82550 82471 82378 82298 82262 82277 82307
1795.4027 82298 82203 81992 81671 81299 80986 80837 80885 81078 81336 81594
1806.0093 81825 82029 82220 82408 82590 82754 82886 82984 83051 83092 83110
1816.6158 83099 83059 82990 82899 82790 82661 82506 82327 82136 81956 81814
1827.2224 81737 81746 81856 82053 82292 82524 82719 82872 82990 83084 83155
1837.8290 83206 83233 83238 83218 83174 83107 83032 82970 82939 82939 82959
1848.4355 82987 83019 83051 83081 83103 83109 83094 83055 82995 82926 82859
1859.0421 82804 82764 82734 82706 82671 82624 82563 82488 82404 82314 82222
1869.6487 82126 82014 81873 81694 81479 81244 81017 80834 80723 80694 80739
1880.2552 80840 80978 81137 81300 81452 81583 81690 81778 81856 81927 81992
1890.8618 82041 82066 82066 82042 81997 81930 81835 81710 81558 81389 81223
1901.4684 81085 80996 80967 81000 81087 81212 81362 81521 81673 81809 81926
1912.0750 82023 82101 82153 82173 82156 82105 82037 81971 81918 81876 81835
1922.6815 81789 81736 81679 81610 81517 81386 81213 81012 80821 80679 80615
1933.2881 80634 80715 80829 80945 81043 81114 81157 81175 81174 81162 81149
1943.8947 81137 81120 81080 81001 80874 80702 80494 80264 80020 79771 79528
1954.5012 79314 79163 79111 79177 79361 79638 79965 80291 80578 80799 80943
1965.1078 81014 81026 81006 80982 80975 80984 80990 80964 80883 80741 80546
1975.7144 80318 80085 79875 79720 79648 79671 79780 79944 80126 80295 80439
1986.3209 80565 80683 80795 80888 80941 80946 80923 80916 80965 81091 81277
1996.9275 81487 81673 81798 81847 81835 81794 81755 81741 81752 81774 81788
2007.5341 81785 81771 81761 81767 81788 81812 81826 81823 81813 81809 81819
2018.1406 81838 81847 81830 81780 81705 81623 81557 81522 81526 81557 81596
2028.7472 81618 81610 81573 81522 81474 81433 81390 81333 81266 81211 81199
2039.3538 81252 81360 81486 81585 81625 81609 81562 81519 81505 81526 81575
2049.9604 81638 81701 81754 81786 81794 81776 81739 81698 81668 81661 81677
2060.5669 81706 81732 81737 81716 81676 81631 81598 81587 81598 81630 81679
2071.1736 81745 81826 81914 81997 82058 82089 82090 82073 82057 82054 82071
2081.7800 82101 82135 82161 82174 82175 82174 82179 82194 82211 82219 82207
2092.3867 82173 82128 82088 82066 82059 82057 82042 82008 81964 81926 81910
2102.9932 81917 81942 81970 81994 82012 82029 82052 82079 82106 82125 82133
2113.5999 82134 82133 82138 82153 82175 82200 82218 82223 82213 82190 82160
2124.2063 82129 82098 82068 82039 82016 82008 82019 82047 82080 82101 82094
2134.8130 82059 82010 81973 81967 81994 82033 82057 82046 82002 81948 81917
2145.4194 81926 81971 82026 82054 82027 81933 81789 81647 81589 81705 82039
2156.0261 82542 83047 83319 83183 82657 81964 81385 81087 81068 81207 81359
2166.6326 81441 81444 81409 81372 81339 81294 81227 81155 81111 81121 81187
2177.2393 81279 81362 81411 81420 81401 81369 81332 81295 81259 81226 81200
2187.8457 81183 81175 81172 81176 81190 81222 81273 81334 81381 81391 81352
2198.4524 81275 81186 81116 81085 81094 81131 81181 81232 81281 81323 81351
2209.0588 81358 81344 81320 81302 81302 81326 81364 81403 81429 81439 81435
2219.6655 81429 81431 81449 81484 81531 81581 81624 81652 81664 81663 81658
2230.2720 81654 81653 81649 81637 81609 81570 81526 81491 81474 81479 81503
2240.8787 81540 81584 81631 81678 81721 81751 81763 81754 81728 81692 81653
2251.4851 81614 81572 81529 81488 81459 81453 81471 81511 81560 81608 81649
2262.0918 81680 81699 81707 81708 81710 81723 81753 81800 81853 81899 81927
2272.6982 81931 81918 81898 81878 81866 81863 81865 81869 81872 81871 81869
2283.3049 81869 81876 81892 81919 81957 82004 82056 82110 82160 82198 82220
2293.9114 82224 82219 82216 82228 82259 82302 82344 82372 82378 82366 82346
2304.5181 82326 82311 82299 82285 82265 82243 82225 82213 82206 82200 82190
2315.1245 82175 82157 82134 82098 82040 81956 81856 81769 81732 81771 81887
2325.7312 82058 82246 82410 82520 82561 82543 82495 82447 82419 82416 82426
2336.3376 82436 82436 82422 82393 82354 82310 82268 82242 82246 82283 82344
2346.9443 82410 82470 82517 82553 82585 82623 82670 82725 82768 82780 82752
2357.5508 82697 82637 82595 82580 82587 82608 82639 82679 82726 82773 82812
2368.1575 82839 82853 82854 82841 82811 82763 82702 82638 82584 82546 82520
2378.7639 82503 82490 82480 82472 82467 82462 82455 82444 82431 82422 82422
2389.3706 82432 82449 82468 82482 82489 82488 82480 82463 82439 82410 82381
2399.9771 82357 82339 82325 82311 82295 82274 82253 82233 82218 82210 82209
2410.5837 82215 82226 82236 82241 82235 82220 82202 82187 82182 82187 82203
2421.1902 82223 82243 82257 82258 82242 82211 82171 82129 82094 82068 82050
2431.7969 82036 82027 82025 82030 82040 82049 82051 82046 82036 82030 82032
2442.4033 82040 82049 82055 82058 82060 82063 82068 82071 82071 82067 82065
2453.0100 82072 82093 82127 82169 82210 82242 82259 82260 82250 82235 82222
2463.6165 82213 82206 82197 82183 82165 82150 82144 82150 82163 82175 82180
2474.2231 82174 82160 82142 82122 82098 82068 82029 81985 81941 81905 81885
2484.8296 81880 81887 81900 81914 81928 81943 81964 81992 82026 82061 82091
2495.4363 82113 82126 82136 82148 82167 82191 82215 82230 82230 82216 82191
2506.0427 82162 82136 82117 82104 82097 82097 82100 82103 82106 82107 82112
2516.6494 82122 82135 82143 82134 82098 82036 81961 81892 81844 81822 81823
2527.2559 81837 81854 81871 81888 81906 81926 81945 81959 81965 81960 81945
2537.8625 81921 81893 81866 81846 81836 81839 81855 81884 81926 81981 82045
2548.4690 82114 82179 82232 82267 82287 82296 82305 82318 82338 82360 82378
2559.0757 82386 82384 82374 82362 82351 82345 82344 82348 82357 82371 82388
2569.6821 82405 82419 82430 82434 82432 82424 82409 82389 82368 82352 82348
2580.2888 82355 82369 82381 82385 82379 82366 82352 82342 82335 82325 82308
2590.8953 82283 82252 82222 82197 82179 82170 82169 82176 82190 82207 82223
2601.5020 82236 82249 82266 82293 82331 82377 82422 82457 82477 82484 82483
2612.1084 82481 82481 82482 82480 82473 82462 82453 82452 82464 82486 82512
2622.7151 82536 82552 82561 82567 82576 82590 82613 82642 82676 82710 82740
2633.3215 82764 82782 82796 82809 82822 82835 82845 82853 82859 82868 82884
2643.9282 82907 82934 82957 82972 82976 82968 82953 82932 82908 82885 82865
2654.5347 82854 82856 82871 82897 82930 82963 82993 83019 83040 83054 83063
2665.1414 83066 83067 83071 83083 83106 83136 83167 83192 83208 83215 83216
2675.7478 83214 83209 83201 83187 83166 83139 83112 83088 83069 83056 83048
2686.3545 83044 83045 83052 83061 83070 83074 83070 83060 83048 83042 83045
2696.9609 83060 83084 83112 83139 83161 83177 83190 83202 83216 83234 83253
2707.5676 83269 83278 83275 83262 83241 83218 83199 83184 83172 83160 83144
2718.1741 83122 83096 83068 83039 83011 82987 82967 82950 82935 82920 82902
2728.7808 82878 82849 82814 82776 82739 82708 82690 82691 82712 82749 82792
2739.3872 82829 82853 82862 82862 82864 82876 82905 82948 83000 83048 83085
2749.9939 83106 83113 83112 83109 83108 83106 83101 83090 83072 83050 83029
2760.6003 83010 82996 82985 82978 82977 82983 82997 83017 83039 83061 83080
2771.2070 83100 83119 83139 83155 83164 83162 83153 83142 83136 83139 83151
2781.8135 83163 83169 83166 83156 83147 83144 83148 83154 83156 83149 83134
2792.4202 83114 83095 83080 83068 83055 83037 83014 82989 82963 82937 82911
2803.0266 82885 82856 82827 82798 82770 82744 82719 82695 82675 82659 82648
2813.6333 82640 82633 82623 82608 82586 82557 82524 82489 82455 82424 82399
2824.2397 82380 82366 82352 82333 82304 82263 82210 82147 82074 81995 81910
2834.8464 81820 81724 81619 81500 81362 81202 81020 80820 80607 80389 80169
2845.4529 79948 79724 79496 79270 79056 78875 78747 78685 78693 78765 78885
2856.0596 79037 79205 79375 79539 79689 79821 79935 80033 80116 80188 80248
2866.6660 80297 80335 80366 80396 80430 80472 80524 80585 80651 80708 80742
2877.2727 80739 80693 80614 80522 80440 80381 80344 80318 80288 80246 80190
2887.8792 80126 80057 79987 79919 79855 79799 79753 79712 79664 79600 79514
2898.4858 79413 79308 79211 79127 79050 78969 78872 78755 78621 78476 78324
2909.0923 78161 77979 77766 77517 77231 76911 76566 76202 75830 75471 75156
2919.6990 74927 74822 74868 75063 75382 75783 76218 76648 77048 77407 77721
2930.3054 77991 78222 78425 78608 78778 78939 79085 79212 79314 79393 79454
2940.9121 79503 79543 79570 79580 79568 79533 79478 79412 79343 79282 79235
2951.5186 79204 79190 79192 79206 79231 79264 79307 79358 79419 79489 79566
2962.1252 79647 79726 79797 79858 79908 79953 80000 80054 80118 80190 80260
2972.7317 80318 80357 80380 80395 80414 80443 80481 80517 80538 80535 80507
2983.3384 80462 80415 80380 80369 80387 80434 80501 80576 80646 80699 80732
2993.9448 80749 80755 80753 80746 80732 80713 80697 80691 80701 80726 80762
3004.5515 80798 80825 80835 80826 80800 80757 80703 80641 80583 80542 80531
3015.1580 80558 80622 80710 80801 80872 80912 80920 80909 80893 80886 80890
3025.7646 80900 80909 80913 80914 80920 80941 80981 81036 81098 81155 81197
3036.3711 81224 81240 81251 81264 81283 81309 81337 81361 81379 81387 81385
3046.9778 81376 81360 81336 81301 81254 81198 81139 81090 81062 81065 81101
3057.5842 81165 81245 81327 81394 81435 81443 81419 81374 81323 81283 81266
3068.1909 81278 81320 81393 81496 81628 81786 81961 82138 82301 82438 82542
3078.7974 82615 82662 82688 82695 82686 82663 82634 82614 82613 82635 82675
3089.4041 82721 82762 82793 82815 82833 82852 82873 82892 82908 82921 82930
3100.0105 82937 82940 82938 82930 82918 82903 82888 82874 82858 82840 82823
3110.6172 82810 82805 82811 82827 82849 82872 82893 82911 82926 82941 82957
3121.2236 82975 82995 83017 83042 83070 83099 83127 83151 83169 83182 83189
3131.8303 83191 83191 83194 83203 83222 83252 83287 83318 83335 83336 83325
3142.4368 83310 83303 83310 83326 83344 83354 83353 83345 83336 83333 83337
3153.0435 83343 83344 83335 83315 83290 83268 83255 83251 83257 83267 83280
3163.6499 83292 83304 83314 83323 83330 83338 83348 83360 83371 83378 83378
3174.2566 83369 83352 83332 83312 83299 83294 83296 83305 83316 83326 83329
3184.8630 83325 83316 83307 83305 83312 83326 83341 83348 83343 83331 83320
3195.4697 83321 83340 83370 83399 83414 83408 83385 83359 83344 83346 83361
3206.0762 83381 83394 83395 83388 83381 83382 83396 83422 83453 83483 83510
3216.6829 83531 83550 83567 83579 83582 83572 83550 83523 83502 83495 83507
3227.2893 83535 83570 83606 83634 83653 83664 83677 83708 83770 83863 83964
3237.8960 84032 84031 83947 83803 83650 83537 83491 83505 83545 83579 83588
3248.5024 83577 83561 83553 83559 83571 83584 83591 83590 83585 83578 83572
3259.1091 83570 83575 83585 83599 83613 83621 83623 83619 83612 83608 83606
3269.7156 83607 83611 83619 83632 83653 83680 83707 83727 83730 83716 83690
3280.3223 83660 83637 83626 83624 83626 83626 83623 83622 83625 83632 83643
3290.9287 83652 83657 83659 83660 83662 83663 83664 83665 83668 83675 83683
3301.5354 83686 83680 83662 83640 83624 83621 83632 83646 83653 83645 83623
3312.1418 83598 83578 83567 83562 83559 83557 83558 83568 83591 83622 83653
3322.7485 83674 83680 83667 83640 83605 83570 83545 83536 83545 83567 83592
3333.3550 83613 83624 83629 83633 83640 83650 83657 83660 83659 83657 83656
3343.9617 83656 83653 83646 83637 83633 83638 83650 83660 83656 83631 83590
3354.5681 83546 83516 83513 83536 83577 83621 83654 83667 83663 83650 83642
3365.1748 83646 83664 83688 83706 83709 83695 83673 83652 83642 83646 83658
3375.7813 83671 83677 83671 83654 83629 83601 83576 83561 83558 83566 83583
3386.3879 83602 83620 83633 83642 83647 83649 83647 83643 83642 83648 83665
3396.9944 83693 83727 83758 83778 83781 83768 83746 83721 83700 83687 83681
3407.6011 83680 83681 83680 83673 83659 83641 83624 83613 83608 83608 83609
3418.2075 83606 83599 83591 83586 83586 83593 83602 83613 83625 83639 83656
3428.8142 83675 83695 83711 83724 83733 83739 83742 83742 83736 83723 83705
3439.4207 83683 83661 83641 83624 83610 83597 83586 83576 83569 83568 83575
3450.0273 83591 83614 83641 83667 83687 83699 83701 83692 83673 83651 83631
3460.6338 83625 83636 83665 83701 83734 83754 83759 83753 83741 83723 83701
3471.2405 83673 83645 83626 83625 83644 83675 83704 83718 83713 83694 83677
3481.8469 83673 83682 83695 83697 83677 83635 83585 83545 83528 83540 83571
3492.4536 83612 83653 83690 83720 83741 83747 83733 83695 83640 83582 83546
3503.0601 83548 83588 83646 83694 83714 83700 83662 83622 83598 83600 83623
3513.6667 83659 83697 83732 83756 83763 83749 83714 83663 83609 83565 83541
3524.2732 83537 83546 83563 83581 83601 83622 83641 83655 83660 83662 83666
3534.8799 83679 83707 83743 83777 83796 83792 83761 83705 83632 83557 83504
3545.4863 83492 83524 83581 83637 83670 83674 83658 83640 83638 83657 83685
3556.0930 83707 83707 83685 83647 83602 83558 83509 83446 83362 83268 83197
3566.6995 83195 83272 83389 83497 83571 83612 83628 83632 83632 83629 83621
3577.3062 83608 83594 83585 83586 83592 83592 83569 83510 83416 83312 83248
3587.9126 83263 83342 83436 83505 83528 83502 83444 83391 83377 83420 83505
3598.5193 83600 83663 83665 83598 83482 83343 83204 83082 82993 82949 82954
3609.1257 82997 83057 83116 83165 83201 83221 83222 83197 83147 83088 83052
3619.7324 83067 83135 83226 83304 83347 83341 83279 83162 83013 82893 82862
3630.3391 82915 83007 83103 83186 83249 83285 83291 83269 83232 83200 83185
3640.9456 83190 83203 83201 83161 83066 82903 82679 82455 82359 82461 82664
3651.5522 82848 82971 83037 83061 83062 83059 83063 83076 83090 83101 83107
3662.1587 83110 83113 83110 83091 83042 82955 82835 82715 82640 82627 82650
3672.7654 82669 82664 82642 82639 82687 82780 82886 82983 83058 83108 83134
3683.3718 83137 83123 83095 83059 83023 83003 83015 83057 83108 83150 83178
3693.9785 83198 83214 83233 83254 83277 83296 83311 83323 83335 83350 83366
3704.5850 83376 83375 83356 83317 83256 83184 83124 83105 83135 83190 83247
3715.1917 83291 83317 83320 83299 83258 83207 83162 83137 83139 83165 83204
3725.7981 83244 83274 83291 83291 83270 83226 83155 83065 82985 82958 83007
3736.4048 83097 83179 83225 83232 83207 83161 83110 83077 83083 83124 83168
3747.0112 83181 83155 83102 83062 83084 83175 83286 83371 83417 83428 83418
3757.6179 83410 83423 83463 83515 83558 83574 83559 83518 83464 83417 83393
3768.2244 83404 83450 83518 83589 83645 83674 83674 83651 83613 83577 83562
3778.8311 83578 83615 83652 83671 83669 83658 83653 83666 83698 83736 83769
3789.4375 83788 83791 83781 83764 83744 83723 83703 83681 83655 83620 83582
3800.0442 83554 83554 83584 83629 83667 83688 83701 83722 83763 83819 83872
3810.6506 83903 83905 83875 83818 83746 83676 83620 83574 83531 83496 83489
3821.2573 83523 83588 83656 83706 83732 83740 83741 83743 83748 83752 83749
3831.8638 83736 83711 83675 83630 83580 83537 83518 83536 83587 83650 83706
3842.4705 83749 83782 83811 83836 83852 83848 83813 83742 83631 83493 83373
3853.0769 83348 83434 83563 83672 83750 83803 83831 83834 83806 83753 83691
3863.6836 83648 83636 83647 83661 83665 83653 83634 83624 83637 83674 83724
3874.2900 83774 83813 83832 83831 83807 83765 83713 83663 83625 83608 83618
3884.8967 83656 83713 83769 83801 83799 83764 83717 83687 83692 83725 83762
3895.5032 83783 83778 83746 83695 83637 83580 83531 83500 83500 83545 83628
3906.1099 83728 83823 83899 83950 83976 83981 83968 83938 83894 83839 83786
3916.7163 83752 83747 83771 83808 83840 83862 83874 83886 83903 83923 83935
3927.3230 83931 83911 83884 83865 83869 83898 83942 83984 84011 84022 84024
3937.9294 84020 84014 84005 83986 83955 83912 83867 83828 83803 83795 83802
3948.5361 83818 83835 83849 83858 83865 83870 83875 83877 83872 83861 83849
3959.1426 83842 83849 83869 83896 83920 83936 83945 83951 83959 83970 83977
3969.7493 83972 83952 83921 83889 83870 83870 83885 83907 83926 83934 83929
3980.3557 83915 83900 83890 83888 83891 83893 83888 83876 83859 83844 83836
3990.9624 83834 83833 83825 83808 83786 83766 83755 83758 83775 83805 83841
##END= 
