##TITLE=X7707
##JCAMP-DX=4.24
##DATA TYPE=INFRARED SPECTRUM
##DATE=30/10/2018
##SAMPLING PROCEDURE=Diamant-ATR
##ORIGIN=ComPlat
##XUNITS=1/CM
##YUNITS=TRANSMITTANCE
##RESOLUTION=4
##FIRSTX=3997.453
##LASTX=373.96442
##DELTAX=-1.4165319
##MAXY=0.84270233
##MINY=0.57096416
##XFACTOR=1
##YFACTOR=7.848277e-010
##NPOINTS=2559
##FIRSTY=0.76632559
##XYDATA=(X++(Y..Y))
3997+976425258+977328562+978271053+978519245+978347531+978429401+978827435
3988+979184230+979410474+979566543+979543455+979346147+979226532+979226304
3978+979069172+978661644+978239764+977977825+977857451+977937498+978377530
3968+979096664+979642109+979613174+979172762+978897533+979059678+979364374
3958+979435308+979086183+978163514+976701474+975284927+974890386+976042869
3948+977891019+978703643+977942662+977038979+977509238+978856674+979532215
3938+979034768+977680648+975767792+974039713+973849013+975511550+977289070
3928+977531945+976630389+976106512+976516318+976817900+976121929+975011976
3918+974767354+975824296+977263324+978071619+978311229+978514689+978357556
3908+976795647+973820305+971277552+971150266+973054540+975270953+977479846
3898+979566847+980082141+978175741+975365581+974713584+977364180+979889846
3888+979207925+976901213+975893027+975779488+974649181+974114141+976492850
3878+979370982+979407739+977393420+975398390+973827824+973217520+975228575
3869+978556915+979615148+978634380+978676454+980332308+980983698+979189242
3859+975578990+971051156+967250735+968366232+977407090+986805578+989557335
3849+987703490+984191588+980425342+977171429+974679104+972613065+971160367
3839+971629334+974452101+977697888+979741978+980772796+981028506+980095432
3829+978287686+976944502+976365792+975092251+973017023+973119474+976690766
3819+979556822+980080850+981515549+984528637+985616945+983215907+978780272
3809+974794770+973927997+975964189+976775674+975103339+974720723+977611157
3799+980385394+981666074+983390432+985349311+985553150+984197739+982986854
3789+982427283+981926190+981404060+981134375+980583310+979199875+977983521
3779+978605216+980805073+982403056+982044666+980022827+977784694+977253603
3769+978756577+980222034+980530451+980565311+980333143+978959885+977185403
3759+976863467+977865957+977876741+975732477+972407403+970452929+972679366
3750+976976096+977653231+974892968+973796610+977121153+980108343+978372973
3740+973252076+967703298+964651174+966250448+971510023+976794736+979765750
3730+980247704+979204735+978191917+978298470+979050261+979411689+979296858
3720+979103727+978883863+978198677+976381741+973607960+972043241+974439874
3710+979614541+983334156+983911726+982163446+979827950+979016921+980486782
3700+982398347+982989056+982495406+981585040+980277930+978538080+977287475
3690+978619342+983104798+987025670+987276596+984828548+981869078+979447763
3680+977085002+974108900+972048937+974541793+980358054+982404119+979973842
3670+978770855+982170585+986460631+987843686+986780060+985011882+983439797
3660+981816600+980038776+979499938+981153893+982183647+979271720+973743523
3650+971143051+976180484+984302925+987940290+987255635+985289617+983751556
3640+983038193+982889339+982831392+982447560+981333050+978863357+974911651
3631+971707179+973850608+981293331+986337446+985926122+982791520+979763016
3621+978709718+980376888+982815064+983160846+981669644+980564703+980753581
3611+981546535+982946982+985519582+987963605+988076537+985862251+983248640
3601+981699035+980911397+980012575+979237544+979420954+980263956+980117608
3591+978083466+975612558+975777210+979661855+983939902+985601452+984896064
3581+983347750+982331818+982396980+982911819+982957539+982431384+981576686
3571+980223477+978643949+978534435+981222549+984484664+985366399+984472133
3561+983920308+984501828+985457838+985762762+985017730+983665433+982713751
3551+982564365+982436396+981810144+981401630+981946088+983017156+984009089
3541+984989934+985886706+986182440+985739218+985052437+984452159+983770086
3531+982946450+982291719+982009275+981936670+982024692+982616692+983850817
3521+985096562+985486014+984917101+984180272+984010152+984194929+983962762
3512+983185833+982663855+982963462+983539058+983603005+983323751+983534274
3502+984434995+985215266+985161344+984473879+983917194+984011975+984591368
3492+985072259+985078107+984732704+984364669+984126198+984069694+984348265
3482+984985984+985578364+985583757+984966694+984370972+984532966+985415384
3472+986164745+986141429+985572441+985010895+984666707+984447526+984220067
3462+983876715+983453771+983174593+983185529+983355496+983416101+983205579
3452+982857897+982842024+983591081+984855129+985662589+985389562+984612557
3442+984370137+984892874+985473407+985469002+985002693+984629037+984634354
3432+984810777+984808194+984587723+984461500+984668302+985012034+985064285
3422+984740906+984469702+984635949+985145395+985723118+986217831+986415671
3412+986032522+985127928+984175867+983618498+983606423+984116629+984983554
3403+985790330+986044218+985620590+984863483+984152551+983550602+982988145
3393+982556163+982442396+982707068+983208161+983685862+983952509+984050783
3383+984236548+984786018+985654842+986323624+986317017+985892706+985704511
3373+985864074+985855416+985315363+984536231+984234345+984773335+985577453
3363+985801570+985601224+985883972+986782794+987411325+987240370+986730240
3353+986388102+986100722+985700714+985469002+985648235+985954526+985968879
3343+985682714+985373993+985205773+985104460+984903279+984596988+984424363
3333+984596608+985074841+985681727+986211148+986493895+986605992+986835045
3323+987244623+987522130+987346011+986701304+985871061+985239948+985018337
3313+985157471+985508190+985877668+985987258+985714080+985364424+985409004
3303+985946020+986566272+986793807+986547361+986058724+985478875+984868344
3293+984492714+984746222+985699878+986927548+987857281+988203291+988002490
3284+987410793+986747935+986562930+987136020+987913936+987999224+987290115
3274+986623232+986638573+987031290+987172398+986948129+986604169+986237045
3264+985918983+985942298+986430708+986998557+987154399+986846589+986436176
3254+986209249+986019839+985589149+985156559+985370044+986370027+987472461
3244+988015780+988180052+988611958+989394583+989838032+989487920+988854454
3234+988616438+988635349+988385030+987857812+987456209+987372137+987489321
3224+987625873+987652834+987557065+987463880+987526991+987751412+987951909
3214+987936416+987718603+987491372+987433273+987589874+987894494+988272630
3204+988662917+988882933+988717219+988353589+988403409+989202211+990371250
3194+991237416+991407004+990934847+990175461+989395874+988571934+987779816
3184+987474284+987940973+988822404+989613156+990230978+990723640+990854951
3174+990475220+989956053+989779706+989954002+990221560+990489043+990697743
3165+990727741+990715970+990950188+991325362+991409510+990998869+990205763
3155+989312789+988777824+988893718+989339901+989552627+989391393+989045534
3145+988656386+988331336+988104106+987833661+987553116+987650783+988243011
3135+988776457+988691245+988124003+987658454+987691870+988194785+988818987
3125+989198414+989227805+989022219+988708181+988404321+988256226+988330273
3115+988535935+988641273+988297844+987253737+985770888+984658125+984539725
3105+985086081+985283921+984594482+983537767+982908022+982837392+983014194
3095+983356408+983905726+984372719+984343632+983831907+983262994+982871112
3085+982209013+980342105+976716588+971938359+967560899+964986097+964604315
3075+965966865+968483797+971667080+974846565+977212820+978453552+979077146
3065+979889238+981268420+982932704+984214220+984672858+984536155+984253484
3055+983726645+982611908+981260218+980550729+980792769+981382947+981510840
3046+980791858+979257974+977045890+974198441+970647958+966234348+960861613
3036+955040037+950237050+948084964+949007482+951854627+954919358+957104785
3026+958270634+958858078+959358639+960128125+961399312+963056381+964611606
3016+965858794+967213673+968967953+970664363+971650523+971784265+971289324
3006+970402728+969391049+968547212+968057815+968008374+968413319+969193438
2996+970297391+971730419+973270835+974460911+975135161+975612710+976142435
2986+976475307+976110993+974716166+972284674+969168223+966061874+963913813
2976+963606383+965319880+968158519+970810863+972665012+973975767+975066430
2966+975848295+976170763+976268809+976590517+977282310+978116731+978904748
2956+979644919+980284538+980715532+980966762+981069213+980912840+980551564
2946+980362079+980577082+980946788+981116908+981059189+980970332+981072099
2936+981621646+982707448+983888487+984449273+984199866+983706520+983693381
2927+984461121+985743623+986942585+987708578+988293060+989024953+989628573
2917+989525666+988646133+987522510+986684748+986200819+985750686+985099828
2907+984490891+984418667+984983022+985696613+985987790+985698511+985050311
2897+984338240+983768795+983459467+983468352+983795377+984368162+985048716
2887+985672234+986039130+985920957+985292807+984539649+984146020+984150045
2877+984153083+983846716+983346839+983095229+983500174+984501068+985517987
2867+985994170+985879491+985506443+985258859+985399815+985908958+986414152
2857+986432910+985643146+983954028+981608355+979284555+977808313+977580171
2847+978343962+979517406+980650598+981576989+982288605+982853416+983410861
2837+984050556+984680605+985167420+985575858+986085685+986691507+987186980
2827+987453703+987574685+987622151+987536940+987293229+986994836+986739733
2817+986576753+986599384+986856158+987192068+987406388+987528282+987756424
2808+988179748+988685929+989116164+989428303+989643914+989677254+989405215
2798+988946880+988636184+988661854+988918400+989163630+989186946+988961158
2788+988737724+988832201+989270031+989759580+989963267+989762390+989363141
2778+989124518+989182389+989332838+989319244+989099228+988834784+988726940
2768+988857947+989190819+989711886+990398287+991023172+991267567+991109523
2758+990860799+990783562+990841129+990812573+990544483+990082883+989548146
2748+988882326+987862141+986410582+984720021+983038573+981576838+980682116
2738+980789883+981990061+983816641+985596364+986874917+987463576+987356416
2728+986820692+986371090+986397140+986850235+987405021+987866318+988312882
2718+988882174+989528324+989996456+990019164+989582853+989022674+988760888
2708+988918324+989253323+989472200+989490579+989397545+989291144+989212008
2698+989189908+989295625+989595764+990024632+990389249+990603645+990832319
2689+991228758+991616767+991688232+991480672+991355436+991478165+991637273
2679+991625273+991473153+991248960+990947302+990643821+990473094+990436260
2669+990459803+990534914+990575393+990338897+989727151+988938830+988149901
2659+987297330+986315574+985370879+984749564+984616886+984884141+985287187
2649+985639957+985973436+986383773+986888587+987496005+988222809+988971866
2639+989550424+989845095+989844943+989547082+989045686+988665500+988743268
2629+989284081+990061162+990978136+991972651+992673102+992673937+992185983
2619+991911590+992188186+992682519+993001569+993189992+993471676+993826344
2609+994070359+994191645+994362069+994667372+994991055+995135656+994940247
2599+994350753+993561748+993048124+993237534+994080536+995075583+995761984
2589+996056579+996062807+995765174+995162009+994587781+994533631+995027737
2580+995549031+995782262+996050200+996652301+997272705+997564034+997792860
2570+998254081+998632900+998710442+999042250+1000001678+1000760608+1000230580
2560+998560524+996774954+995455465+994599628+994205620+994232049+994440673
2550+994744154+995206666+995545310+995352938+994936146+995146744+996207104
2540+997342044+997729065+997363536+996864798+996731968+996950010+997243769
2530+997528264+997929032+998464452+999008226+999470814+999671844+999244951
2520+998180945+997251288+997268528+998045609+998638217+998512450+998011889
2510+997802126+998222639+999072401+999832546+1000156456+1000052182+999517142
2500+998429365+997036740+996045415+995883118+996226850+996466461+996354136
2490+996105716+996074958+996430690+997133268+998145250+999440208+1000718762
2480+1001394758+1001089607+1000079978+999106577+998686898+998648318+998461262
2470+997989409+997624639+997582034+997393080+996413222+994722965+993122020
2461+992170035+991690966+991396143+991393637+991759090+992264892+992883701
2451+993871684+995108391+996049744+996494788+996757866+997068106+997365587
2441+997619095+997889236+998087531+997996700+997608994+997225466+997081928
2431+997061195+996947428+996726652+996476106+996262925+996242192+996501851
2421+996904138+997395130+998114796+998910636+999273354+999036478+998628496
2411+998500223+998711657+999037769+999203940+999166498+999185713+999392894
2401+999462688+999063667+998376051+997840023+997666562+997872376+998473414
2391+999370186+1000238934+1000639854+1000143697+998611863+996600581+995043078
2381+994158989+993137665+991249567+988752534+986373597+984482461+983064395
2371+981988162+981105136+980195073+978754375+976389260+973975843+973291416
2361+974672193+976480319+977571589+978659062+980664648+983160846+984837054
2351+984781006+983128873+980750164+978721870+977989597+978783082+980198415
2342+981019317+980719709+979509128+978136629+977531945+978084985+979429992
2332+981069213+982674867+983706368+983591005+982518190+981392516+980906841
2322+981123439+981941379+983288056+984670276+985356981+985245265+984944973
2312+984954543+985337387+986167023+987604987+989458150+991107700+991970676
2302+991894958+991171039+990273052+989560677+989110164+988739851+988321463
2292+988197595+988959943+990549724+992124619+993186498+994158913+995445744
2282+996731892+997570566+997890071+997714180+997073498+996255406+995664469
2272+995495489+995738669+996283962+996917429+997426648+997844048+998408024
2262+999079008+999318466+998813652+998070367+997595020+997057701+996119766
2252+995259069+994994396+995421214+996901328+999650959+1002414867+1003293488
2242+1002179434+1000905285+1000860097+1001611205+1001963443+1001523107
2234+1000890552+1000767671+1001240815+1001755654+1001644545+1000883261
2225+1000234225+1000402218+1001362481+1002577012+1003355688+1003165443
2217+1002189383+1001353747+1001488780+1002768548+1004678594+1006145722
2208+1006352751+1005642654+1004886307+1004304104+1003755924+1003388649
2200+1003255363+1003081370+1002588708+1001491590+999661135+997556592+995698493
2190+993966161+992206793+990934087+990839382+992223273+994896274+997958347
2180+1000238402+1001455591+1002137208+1002256975+1001003863+998157554+994798455
2170+992261778+990999097+990873178+991980929+994454191+998049634+1002465979
2160+1007031937+1009956624+1009899057+1007916027+1005844519+1004478020
2152+1003914804+1004030545+1004516069+1005146194+1005706905+1005690349
2143+1004859346+1003568869+1001845954+999407020+997331791+998001256+1002262823
2133+1007995390+1012341485+1014145206+1013826460+1012250501+1010159856
2125+1008080906+1006566539+1006216276+1006801897+1006867286+1005379957
2116+1003334043+1002427778+1002723284+1002913378+1002374616+1001776767
2108+1001985619+1003103167+1004380505+1004897699+1004448477+1003532263
2099+1002588936+1001858789+1001734921+1002365426+1003174329+1003598336
2091+1003822225+1004063430+1003832630+1002799990+1001738111+1001577257
2082+1002026630+1002201003+1002153081+1002595011+1003501581+1004233094
2074+1004726972+1005327174+1005805939+1005776927+1005710322+1006406217
2065+1007666164+1008347021+1007751147+1006342346+1005016554+1004264763
2057+1004252308+1004924280+1005265126+1003332145+998597130+993986363+993831737
2047+999089033+1006127647+1010996099+1012980800+1013226713+1011856493
2038+1008298719+1003780227+1001283421+1002199256+1004447490+1005277885
2030+1004706998+1004440275+1004832765+1005066983+1005347072+1006675522
2021+1008798293+1010087707+1009393255+1007149882+1005185990+1005529874
2013+1008092905+1009877640+1008456308+1005624807+1004878940+1006088610
2004+1005974311+1003251490+1000176962+999281784+1000472620+1001442225
1996+1000572413+998976405+999015062+1001207475+1003901741+1005765232+1006486340
1986+1005551823+1002736651+999421753+997806834+999133386+1003235085+1008708221
1976+1013123275+1014714726+1013990504+1012394267+1010209069+1007228562
1968+1004752262+1004828056+1007299648+1009680939+1010231093+1009584640
1959+1009272273+1009660054+1009704710+1008213584+1005324592+1002885126
1951+1002874037+1005270442+1007923773+1008810596+1007986201+1006939359
1942+1006632233+1006934195+1007598648+1008538329+1009346093+1009643194
1934+1009484315+1008734270+1007086619+1005233457+1004511892+1005019440
1925+1005648047+1005892289+1006092104+1006264274+1006246199+1006460139
1917+1007200082+1007754033+1007355696+1006366953+1005892289+1006308247
1908+1006668611+1006193644+1005503293+1005445270+1005719284+1005581746
1900+1005072375+1004746414+1004880155+1005319807+1005590479+1005290340
1891+1004592547+1004023179+1003907361+1004498450+1006027474+1007936380
1883+1008901732+1008376564+1007265776+1006644232+1006670813+1006865463
1874+1006769088+1006281286+1005711690+1005493496+1005679716+1005955249
1866+1006332777+1007100289+1008094576+1008628098+1008249202+1007322507
1857+1006663295+1006785796+1007514651+1008157004+1008103386+1007280813
1849+1006011905+1004775122+1004272054+1005095159+1006688357+1007801804
1840+1008160877+1008247152+1008232190+1007684467+1006178910+1003951106
1832+1001864789+1000901944+1001350254+1002650908+1004264308+1005750042
1823+1006437279+1005984260+1004891091+1004150009+1004380809+1005145739
1815+1005518786+1005252063+1004852207+1004751958+1004904458+1005117107
1806+1005193205+1004883876+1004225651+1003715445+1003664941+1003564312
1798+1002646275+1000723166+998302079+996521446+996452259+997384498+997406218
1788+995518045+991313742+984563344+976317035+969217740+965750647+966229107
1778+968751127+971386155+973701070+976434144+980123912+983960635+987081415
1768+989517995+991052487+991364550+991100865+991300223+991757723+991427357
1758+990326442+989147302+987986921+986658319+985506216+985203798+985919135
1748+986976533+987633467+987620556+987111793+986649661+986827375+987513017
1738+987750424+987298393+987531092+989843576+992633914+993868495+994318855
1728+994783949+994949512+994720838+994471887+993977401+992598903+990627568
1718+989733151+991391587+994142129+995776945+996249330+996160625+995646774
1708+994851921+994463533+994914653+995341014+994945487+994442572+994796025
1698+995396607+996020429+997580439+999184346+999237508+998112138+996945909
1689+995818488+994229543+993103033+994705345+998241702+1000152887+1000002286
1679+998954608+997953106+997662612+997799923+997270578+996257305+996649339
1669+999179713+1001381088+1001549764+1000764101+1000852047+1002181105
1660+1003261515+1002859684+1000825998+997815188+996075034+998771122+1002322592
1650+1001758313+999348009+998936229+1001860384+1004782716+1005331123+1004270611
1640+1002569266+1000665068+999365477+1000250781+1002978767+1004365240
1632+1003477050+1001695201+1000429635+1000121901+1000283970+1000795619
1623+1002118525+1003658637+1003998496+1003191948+1003013854+1004846815
1615+1007061708+1007577535+1006728912+1005805559+1005676982+1006260856
1606+1006804099+1006813668+1006507833+1006366877+1006482391+1006535174
1598+1006337790+1006113369+1006146253+1006275362+1006033549+1005322997
1589+1004633330+1004509386+1004992555+1005686627+1006214301+1006363991
1581+1005881885+1004666898+1003530972+1004288535+1006955915+1008440890
1572+1007491108+1005768269+1005415348+1006475176+1007210335+1006934802
1564+1005655641+1003020917+999307226+997761039+1002541545+1008237507+1010241194
1554+1010379112+1010238688+1010260408+1010380403+1009969307+1008339426
1545+1005657084+1002739233+1000334322+999936364+1003559300+1008125866
1537+1009478847+1008317858+1007291749+1008150928+1009648358+1009913183
1528+1009135038+1008339806+1007629558+1006415407+1005212040+1005331199
1520+1006332397+1006843287+1007330254+1008635540+1009984420+1010112086
1511+1008508938+1005280999+1001978025+1003265768+1010523714+1016160437
1503+1017488052+1016583837+1015316448+1015167289+1017126168+1020112675
1494+1021707316+1021253462+1020004907+1020042425+1022808460+1027174452
1486+1031070945+1033797792+1035423192+1035264768+1030343153+1015621599
1477+987915911+951317612+918783875+905048026+911786348+925046015+934969519
1468+941827229+948872677+957661166+965971574+970943541+972601673+973352401
1458+977042017+984310140+990002228+992211349+992477389+992126138+992097962
1448+993197662+995421821+997875262+999708450+1000347689+998568726+990039897
1438+965735154+922854513+881856425+864525209+871511951+893597776+919066394
1428+938654806+951053927+959400409+965658220+969873383+972532942+975658810
1418+980546552+985608439+989279980+991747091+993650681+995388785+996941048
1408+998097100+999161486+1000778531+1002692526+1003925968+1004308660+1004424706
1398+1004566042+1004714517+1005217128+1006326094+1007398605+1007720997
1390+1007582927+1008077032+1009885234+1012274045+1014118017+1015163492
1381+1015765669+1016265850+1016621430+1016579888+1016368074+1016789347
1373+1018167010+1019975744+1021675647+1022376478+1019500093+1008352185
1364+983537919+944729815+903520293+875257616+864741124+867667101+877780243
1354+889974081+901194974+910537717+918407182+925368862+931661608+937282155
1344+941998487+945577374+948413507+951601954+955841724+960536563+964723703
1334+968173177+971119812+973662489+975753438+977509313+979199875+980919600
1324+982490166+983675761+984402186+984858775+985422903+986358939+987625341
1315+989081153+990689692+992406683+994047500+995396683+996382312+997066587
1305+997479734+997528567+997136761+996447018+995842411+995737453+996254419
1295+997067726+997610665+997333158+995653761+991981536+986282233+979647274
1285+973897770+970466295+969708504+971108572+973883720+977329549+980832261
1275+983940737+986589967+989077356+991684359+994375891+996933833+999306543
1265+1001702036+1004316711+1007025938+1009398496+1011077817+1012136278
1256+1012995609+1014028325+1015319182+1016753956+1018247969+1019892811
1248+1021881537+1024305966+1027118935+1030267359+1033683873+1037188104
1239+1040625883+1044028270+1047449796+1050789756+1053927624+1056863170
1231+1059571562+1061780152+1062837550+1061267971+1053476276+1033019800
1222+994037627+938642047+880295352+836460675+816476508+817328852+829810982
1213+846035662+861874385+875936422+888193372+899008712+908557649+916739328
1203+923416666+928674874+932877734+936358650+938579391+937196792+928912737
1193+913263957+895777203+885065302+885498878+893919484+904017285+912261543
1183+918848885+924908856+930707193+935997374+940637608+944507672+947358007
1173+949023354+949629481+949560901+949413718+949918000+951581980+954318624
1163+957582030+960865486+963914496+966563119+968675713+970339465+971878438
1153+973480750+974871552+975540182+975363607+974925625+975100605+976328199
1143+978365606+980681736+982879086+984720249+986039054+986811958+987200954
1133+987419223+987638328+988056184+988903667+990244648+991864731+993537749
1123+995330914+997391788+999515775+1001285016+1002636782+1003952701+1005555848
1113+1007372708+1009037523+1010052240+1009922144+1008593998+1006974294
1105+1006613930+1008389551+1011659640+1015085116+1018049066+1020911553
1096+1024193490+1027981684+1032009032+1035992940+1039808474+1043431637
1088+1046854758+1050077230+1053076039+1055828404+1058444977+1061119800
1079+1063930719+1066884417+1069939959+1072657008+1073741823+1070158228
1071+1055880123+1023470102+970626162+906052869+846297677+804936642+785076268
1061+781377994+786574230+795432589+805139495+814669066+824246180+834383700
1051+844915609+855068698+864194615+872042359+878606233+884112937+888972807
1041+893501097+897775878+901752874+905358114+908546561+911410567+914146147
1031+916835628+919403292+921858783+924358778+926928416+929396666+931701708
1021+933891311+935763156+936977915+937613508+938171105+939005525+940082290
1011+941241000+942402673+943557814+944697538+945770125+946730464+947682677
1001+948880424+950479926+952314177+953970563+955084085+955593608+955811574
992+956224113+957064457+958088971+958918683+959524429+960175971+961017910
982+961937694+962794594+963612990+964533685+965603615+966694657+967719551
972+968774215+969883484+970826584+971472885+972050532+972822069+973705019
962+974448456+975044709+975753362+976745599+977873779+978843611+979553176
952+980181251+980962965+981983605+983186896+984424818+985441965+985989309
942+986097380+986085305+986184187+986361445+986637661+987248952+988288047
932+989519818+990746956+992005384+993241559+994242985+995111429+996383907
922+998428150+1000968548+1003363966+1005217128+1006659725+1008116069+1009822883
912+1011565239+1012758353+1012713773+1010800310+1005626174+993005898+966040001
902+921225240+866381637+819389803+795627771+797065203+814363762+836924706
892+859001645+878997432+896809691+912443890+925773503+936859287+946166108
882+954088811+960396291+964625049+966929027+967521939+964272734+951667648
873+924879085+886487545+847722654+821011253+811405052+815531662+826889941
863+840515289+853925329+866145292+876772514+885499942+892170368+897125627
853+901138849+904823909+908345228+911776931+915366678+919162618+922628497
843+925086342+926569647+927870680+929703944+932155486+934872991+937383315
833+939384876+941143485+943342810+946154185+948770758+950236594+950531873
823+950581466+951304321+952863116+954846222+956885756+958779397+960245006
813+961080794+961549153+962278464+963790704+966163490+968964156+971456557
803+973068210+973819622+974183176+974269906+973343819+970696184+966906623
793+963625901+962284692+963474844+967008771+971352663+972416289+963766325
783+940594926+905668126+870243803+846544046+839024466+843500124+853050505
773+863016994+871704703+878964395+884954952+889781634+893819919+897859495
764+902550992+907784518+912834785+917184069+921037957+924798962+928281549
754+930938297+932743157+934322458+936231820+938503293+940903040+943329368
744+945786454+948032029+949536599+950034881+949992124+950218671+951024991
734+952033404+952849977+953559466+954427911+955584798+957242095+959697282
724+962808948+965870717+968163304+969386645+969623217+969140427+968318386
714+967822534+968581995+970974299+974125153+976757295+978654050+980516477
704+982514469+983778592+983383900+981402389+978890394+976942527+975812145
694+975001951+974081180+973232330+972973354+973389083+973762662+972839688
684+968512960+956656474+931771578+891426779+841268219+794077634+761672170
674+747627751+747239439+753687571+764699155+782948864+806535613+826322851
664+840000601+851014009+861564752+871725132+880706904+887660002+892280338
654+895251731+897580544+899844195+902440491+905799513+909875923+913931675
645+917156728+919219730+920003722+919279651+917367251+915895035+916888866
635+920864647+926369225+931516247+935479649+938486509+940969797+943117098
625+944995398+946513790+947271277+947151358+947111562+948549071+951716405
615+955467613+958539635+960346015+960833969+960398949+959881072+960207565
605+961849596+964365313+966504260+967318555+967241090+967504851+968578729
595+969777160+970211800+969648355+968602501+967784636+967415386+967262279
585+967368907+968368662+970783902+974212871+977492226+979631553+980467188
575+980652345+981197335+982812102+985354095+987815434+989374685+990580178
565+992501995+994766786+995858056+995403138+994456166+993290089+990849939
555+986927776+983151277+980852463+978709415+973204837+961305138+941729258
545+913518756+875857666+831204670+787120890+752754876+733148314+727502552
535+731964465+742268079+754612443+766318100+776374130+785130341+793229467
526+800516273+806105302+809561080+811267058+812026444+813129789+816148269
516+821591026+828128927+833788054+837639663+840180290+842266835+844268320
506+846482606+849242641+851926274+853303709+853866850+855894081+860470216
496+866150685+870810741+873922634+876545055+879852282+884107545+888468525
486+891652415+893498818+895686447+899812450+905132554+908920976+908988948
476+905978594+902816348+901849781+903032111+905239790+908313938+912356780
466+916401520+918666158+916912941+908182931+888967871+857212810+818651834
456+789109768+780236447+790134433+809589256+828943905+843189884+852896182
446+860597274+867419821+871871708+871435398+866388928+860824429+859522028
436+864957267+875817719+888037075+897854710+903927668+907639460+911005774
426+913762771+913763302+910606525+906853721+905585345+909327364+917733160
416+925355875+927792532+924956626+919520249+914219815+909210103+903753220
407+899459908+898752621+901239098+904154140+905503019+905750604+908178526
397+915632869+925010244+931724947+935941250+939438570+939936094+933225567
387+921498342+915333033+922139024+934919850+942527604+942364016+937726668
377+932047263+928407695+930164482
##END=
