##TITLE=X8550
##JCAMP-DX=4.24
##DATA TYPE=INFRARED SPECTRUM
##DATE=31/10/2018
##SAMPLING PROCEDURE=Diamant-ATR
##ORIGIN=ComPlat
##XUNITS=1/CM
##YUNITS=TRANSMITTANCE
##RESOLUTION=4
##FIRSTX=3997.453
##LASTX=373.96442
##DELTAX=-1.4165319
##MAXY=0.94193971
##MINY=0.5769248
##XFACTOR=1
##YFACTOR=8.7724972e-010
##NPOINTS=2559
##FIRSTY=0.87492532
##XYDATA=(X++(Y..Y))
3997+997350352+997070691+997088561+997289745+997420403+997269498+996915777
3988+996631767+996542080+996535013+996502196+996517620+996710243+996974821
3978+996998534+996689180+996352378+996252159+996301079+996369975+996491733
3968+996580401+996366714+995772536+995084526+994722923+994925059+995556335
3958+996223690+996658605+996921892+997120359+997090123+996629593+995994580
3948+995779466+996124490+996526792+996618042+996661051+997033321+997512808
3938+997546985+997014772+996403608+996259633+996617566+997094472+997448397
3928+997654610+997617240+997282475+996922707+996886357+997134831+997373861
3918+997506150+997736823+998164264+998542378+998667192+998610798+998408866
3908+997854775+996798979+995408691+994057335+993106853+992804227+993219778
3898+994130511+995094038+995757928+996069251+996276891+996653781+997072390
3888+997229206+997081766+996702362+996119055+995541659+995426832+995977254
3878+996654325+996794699+996390291+995870512+995593841+995648876+996111309
3869+996994253+997956489+998615282+998817351+998588784+998013902+997198835
3859+996329820+995551919+994807175+994114952+994209395+995520800+996970608
3849+997765971+997848864+997346276+996352989+995040633+993782633+992939437
3839+992664464+993077297+994208784+995643440+996732325+997257404+997628722
3829+998133077+998366264+997821754+996689656+995613001+995006117+994776939
3819+994529212+994264635+994531658+995682645+997222616+998449769+999017380
3809+998818370+998034014+997220577+996821537+996799659+996965852+997072593
3799+996959465+996889890+997261548+998089253+999030833+999847599+1000477516
3789+1000807253+1000696571+1000262063+999981111+1000225033+1000679856
3781+1000683050+1000093220+999449850+999086548+998744446+998206118+997658958
3771+997518244+998040469+998984563+999806628+1000174958+1000116593+999807648
3761+999386117+999059438+999100001+999395426+999383467+998633967+997264470
3751+996043500+995757316+996164374+996733616+997365164+998021104+998483333
3741+998526478+997961720+996661323+994951082+993873000+994214967+995418475
3731+996570820+997322019+997594682+997488892+997447581+997818628+998227317
3721+998125264+997676216+997473944+997725340+998160188+998448070+998469948
3711+998415117+998526003+998588240+998308239+997852057+997660181+997998750
3701+998727392+999544769+1000326679+1000946676+1001156082+1000894970+1000432944
3691+1000125562+1000249425+1000844283+1001427997+1001447837+1000828859
3683+999785362+998636753+997709237+997082717+996609481+996478076+997059616
3673+997781938+997942764+997948267+998754230+1000153963+1001101930+1001226473
3663+1000761254+999946731+998796424+997392002+996217303+995781776+995708532
3653+995053950+993513300+991820996+991607717+993563851+996127820+998010641
3643+999121608+999701857+999838087+999479406+998712783+997892960+997429168
3633+997372570+997261276+996581760+995631142+995646702+996771326+997918643
3623+998547405+998648711+998256465+997469528+996732597+996502468+996737217
3614+997105615+997344237+997487125+997909471+998902825+1000072361+1000702618
3604+1000662462+1000337210+1000040155+999811113+999594572+999303496+998806344
3594+998203740+997906685+998164808+998850847+999706749+1000585141+1001435064
3584+1002046704+1002089849+1001563955+1001101115+1001435471+1002435213
3575+1003182403+1003155429+1002757951+1002478901+1002175052+1001567081
3567+1001137261+1001679937+1002840232+1003562283+1003409271+1002882154
3558+1002740353+1003006154+1003082660+1002808298+1002743615+1003229217
3550+1003817620+1004004536+1003844933+1003682613+1003720798+1003975116
3541+1004382446+1004805267+1005086015+1005160075+1005049461+1004816002
3533+1004584582+1004487896+1004502912+1004446246+1004190637+1003831888
3524+1003641099+1003895145+1004641859+1005655257+1006676469+1007531216
3516+1008023341+1007984612+1007497855+1006902998+1006518497+1006367864
3507+1006222326+1005977520+1005825188+1005907945+1006004630+1005858345
3499+1005623935+1005698334+1006260239+1007030598+1007501456+1007480733
3490+1007277850+1007243537+1007320519+1007228861+1006909045+1006618240
3482+1006688971+1007167915+1007700671+1007958861+1008025311+1008109020
3473+1008139391+1007974149+1007794163+1007910824+1008306535+1008677990
3465+1008886445+1009127106+1009612572+1010293856+1010965423+1011439611
3456+1011537723+1011212675+1010770353+1010618836+1010760433+1010892518
3448+1010943137+1011086773+1011309972+1011422760+1011415966+1011440358
3439+1011530317+1011591128+1011614705+1011775055+1012237827+1012891050
3431+1013390648+1013510911+1013318287+1013029861+1012877325+1013010565
3422+1013341660+1013566965+1013497730+1013347843+1013566558+1014310419
3414+1015149470+1015519974+1015407933+1015211708+1015052173+1014699743
3405+1014122551+1013699798+1013845540+1014560116+1015421997+1016039345
3397+1016357123+1016394289+1016045052+1015404331+1014882922+1014736501
3388+1014833866+1014982326+1015176716+1015539066+1016142825+1016806374
3380+1017116543+1016814460+1016083509+1015402701+1015234809+1015772389
3371+1016785515+1017762223+1018323041+1018481964+1018485497+1018499901
3363+1018564313+1018749191+1019108552+1019483268+1019635396+1019568674
3354+1019438696+1019265165+1019029056+1018881480+1019016282+1019494343
3346+1020246493+1021060609+1021613476+1021727624+1021529157+1021245758
3337+1020976900+1020731483+1020558496+1020546266+1020701995+1020879535
3329+1020880690+1020652396+1020352419+1020201581+1020249550+1020295413
3320+1020121610+1019832572+1019770946+1020016295+1020233787+1020153476
3312+1019879930+1019580361+1019245936+1018948745+1018950851+1019356482
3303+1019937819+1020391215+1020576433+1020551022+1020527988+1020674817
3295+1020839244+1020683514+1020198727+1019804511+1019765647+1019805666
3286+1019583079+1019304233+1019483811+1020183576+1020837885+1020858676
3278+1020230186+1019516968+1019317346+1019633562+1019907312+1019769995
3269+1019496245+1019554950+1020016635+1020588256+1021022152+1021306909
3261+1021489137+1021467938+1021150907+1020749285+1020616860+1020767902
3252+1020851406+1020608028+1020071942+1019358996+1018549569+1017799593
3244+1017374258+1017459936+1017974143+1018570768+1018789822+1018310539
3235+1017283823+1016349581+1016027522+1016180330+1016403325+1016675648
3227+1017128909+1017478078+1017312768+1016724433+1016127945+1015717761
3218+1015486817+1015495514+1015763216+1016166945+1016644802+1017192302
3210+1017565319+1017424130+1016859915+1016362015+1016203771+1016188416
3201+1016018893+1015677674+1015414455+1015424715+1015551976+1015440138
3193+1015007601+1014530832+1014226575+1014059430+1014018935+1014234184
3184+1014647833+1014871779+1014615491+1014086948+1013755241+1013794309
3176+1013949020+1013902206+1013577769+1013103989+1012661871+1012392946
3167+1012322011+1012322215+1012227636+1012038749+1011932415+1012019452
3159+1012196721+1012269693+1012121098+1011753108+1011258945+1010743651
3150+1010266270+1009886798+1009653883+1009473081+1009185674+1008859063
3142+1008725687+1008767609+1008632943+1008019740+1006964284+1005704314
3133+1004354656+1002767939+1000751878+998298048+995406109+991832139+987325830
3123+982107933+976924009+972691245+970183739+969867252+971723506+975163557
3114+979279251+983311373+986876306+989776806+991844573+993160938+994212996
3104+995502862+997066478+998554540+999681610+1000462297+1001111306+1001797618
3094+1002420944+1002673292+1002422235+1001903408+1001375816+1000704384
3085+999517115+997741375+995769206+994089676+992961044+992411641+992296475
3075+992319032+992202847+991880380+991421684+990891918+990386544+990033570
3065+989871929+989837345+989848080+989816350+989651108+989367166+989151305
3055+989279449+989917112+990945458+991992557+992649720+992670511+992118935
3046+991406532+990960678+990790000+990566665+990007683+988884350+986974894
3036+984457128+982069408+980520197+979973784+980217910+980978553+982040668
3026+983363283+985026370+986869308+988399087+989278702+989693709+990059253
3016+990555387+991087055+991532842+991880788+992169214+992386909+992436169
3006+992219969+991822151+991500568+991386353+991337704+991257869+991333016
2996+991709159+992147471+992271335+991977405+991382888+990560822+989502105
2986+988187643+986562061+984513794+981967219+979012499+975926170+972988436
2976+970226408+967398474+964278172+960902262+957450049+953872003+949747611
2966+944595825+938305758+931331214+924670915+919616222+917143911+917325868
2956+919375290+922251737+925158828+927613133+929345796+930317884+930759933
2946+931004603+931206399+931295815+931169369+930767271+929953495+928506133
2936+926356085+923795989+921363901+919559760+918745644+919195372+920938226
2927+923551183+926383195+929026387+931414175+933571901+935497595+937239906
2917+938982218+941002831+943433424+946067240+948594722+950969125+953275039
2907+955344505+956849416+957785629+958600560+959734968+961153386+962435370
2897+963275101+963733662+964009382+964149484+964066388+963725780+963256892
2887+962851397+962543878+962098975+961103718+959188284+956303343+952849024
2877+949413798+946403975+944027126+942426684+941519076+940819448+939763312
2867+938265059+936892640+936511809+937733730+940545086+944317795+948183520
2857+951550258+954371262+956918312+959342994+961562210+963469424+965031613
2847+966192112+966886848+967200686+967393853+967747846+968422811+969437500
2837+970672195+971868433+972780457+973429399+974074739+974845846+975553288
2827+975984467+976245103+976639863+977259385+977859950+978203479+978375380
2817+978645665+979118357+979650977+980046960+980239924+980354547+980624288
2808+981172196+981887044+982548216+983004534+983189072+983102375+982863480
2798+982683019+982711759+982935434+983194440+983297308+983210407+983149053
2788+983365457+983864648+984450741+984997698+985491385+985875614+986068509
2778+986110159+986153169+986308830+986569943+986868968+987198908+987652305
2768+988268089+988879118+989274557+989493272+989743989+990041044+990190862
2758+990181010+990309018+990792243+991460956+991968369+992180153+992243681
2748+992333369+992416737+992308501+991937250+991487047+991228585+991258277
2738+991466799+991734706+992044331+992337242+992411573+992132727+991646650
2728+991209900+990921406+990746448+990639366+990565442+990537245+990643783
2718+990927793+991307061+991673148+991963205+992141424+992249049+992421629
2708+992737709+993100331+993344797+993436250+993516629+993740440+994088250
2698+994399845+994564611+994587101+994509168+994368454+994200495+994012559
2689+993781818+993509427+993245597+993027902+992785610+992363400+991717924
2679+991034670+990539691+990250314+990014273+989745891+989506589+989391151
2669+989401818+989454407+989500202+989609865+989865950+990187669+990395852
2659+990472901+990577197+990771044+990963396+991164988+991521155+992033460
2649+992528167+992926732+993268291+993465603+993328829+992910765+992603789
2639+992762305+993304573+993792010+993875242+993611208+993397454+993612975
2629+994212113+994710353+994721088+994409425+994247512+994497210+995103754
2619+995880228+996612131+997147537+997502413+997789820+998035984+998148569
2609+998051136+997804836+997602700+997637284+997910626+998178872+998192122
2599+997989442+997772086+997501326+996968434+996318881+996045606+996319832
2589+996775538+997067905+997195438+997192924+996977131+996631631+996473727
2580+996693189+997154875+997638642+998078178+998484828+998795404+998953988
2570+999104825+999501963+1000092948+1000344276+999757776+998523489+997370328
2560+996774451+996607307+996538207+996449743+996395794+996383157+996337566
2550+996209150+996061505+996026582+996159142+996391989+996628506+996792457
2540+996820790+996727026+996585632+996351698+995889537+995297261+994934435
2530+994999730+995356305+995818331+996329956+996869574+997397234+997828073
2520+998006292+997939842+998014582+998604683+999489937+1000016646+999828303
2510+999212110+998800840+999064534+999930424+1000794411+1001099076+1000899386
2500+1000628965+1000473711+1000347674+1000277962+1000336463+1000374104
2492+1000268654+1000252755+1000633925+1001390900+1002269155+1003071788
2483+1003710199+1004138659+1004347794+1004383737+1004333389+1004262998
2475+1004194714+1004193219+1004370827+1004682898+1004875046+1004803092
2466+1004641316+1004618214+1004730935+1004867504+1005015964+1005180526
2458+1005257916+1005164627+1004965821+1004777341+1004677802+1004742350
2449+1004970509+1005182497+1005202473+1005138061+1005294878+1005832594
2441+1006645147+1007540864+1008379576+1008993866+1009145043+1008730919
2432+1007975576+1007229745+1006640391+1006225111+1006154788+1006607030
2424+1007333089+1007740418+1007577147+1007232530+1007169817+1007348105
2415+1007461844+1007449818+1007465445+1007551600+1007621175+1007635919
2407+1007640947+1007708213+1007889693+1008142788+1008348729+1008503100
2398+1008780451+1009269926+1009770204+1010005158+1009890467+1009482390
2390+1008878631+1008252247+1007704679+1007008720+1005739237+1003671130
2381+1000866976+997495279+993780663+990020185+986441798+983086747+979917661
2371+976957777+974220617+971501938+968427567+964904148+961447859+958919697
2361+957899641+958144514+958702749+959079911+960207049+963576233+969352841
2351+975755628+980471072+982159911+980663289+976889221+972751513+970085830
2342+969293389+969774982+971063014+973015275+975265270+976952274+977400031
2332+976917962+976518582+976890988+977957994+979286385+980590995+981932092
2322+983600886+985763640+988292278+991022100+993897257+996646783+998629211
2312+999474853+999732025+1000340403+1001585834+1003073079+1004513172+1005958292
2302+1007344571+1008361775+1008874691+1009187781+1009821843+1011115174
2293+1012933447+1014712041+1015959034+1016733673+1017459733+1018363332
2285+1019356143+1020288822+1020995653+1021269675+1021111907+1020857317
2276+1020875663+1021258532+1021755889+1021897961+1021417863+1020674274
2268+1020361931+1020831838+1021992269+1023577559+1025021864+1025450461
2259+1024453369+1022707661+1021405565+1021170883+1021790880+1022800677
2251+1023929718+1024960986+1025575615+1025680658+1025682764+1026024119
2242+1026541112+1026599137+1025703487+1023671459+1020403445+1015659736
2234+1008692598+997853077+980745094+955024552+919975515+879030083+841169622
2224+817900804+816585730+835726148+866409454+898347294+925269442+945886575
2214+961313124+972858322+981804083+989305540+995598597+1000060742+1002334111
2204+1003012812+1003395954+1004681131+1007019523+1009534028+1011511700
2196+1012947919+1013893305+1014332908+1014747304+1015733592+1017214180
2187+1018768895+1020328842+1021793326+1022461293+1021707240+1019801522
2179+1017347352+1014663121+1012414416+1011660703+1012279749+1012754888
2170+1012580134+1013243887+1015769739+1018913889+1020805136+1020887349
2162+1019492440+1017196582+1015231344+1014768911+1015501289+1016421263
2153+1017365153+1018724799+1020439796+1022050362+1023303266+1024121866
2145+1024355732+1024042303+1023548479+1023217316+1023207124+1023561592
2136+1024072062+1024404992+1024626017+1025095313+1025742760+1026035398
2128+1025704982+1025052575+1024491690+1024086263+1023667926+1023297966
2119+1023378209+1024185870+1025460177+1026557623+1026891776+1026358544
2111+1025568753+1025362336+1025820013+1026164426+1025870292+1025328703
2102+1025184320+1025555503+1026161708+1026872140+1027838928+1029122882
2094+1030375922+1031061894+1030928450+1030104075+1028904372+1027814264
2085+1027505862+1028398590+1030066229+1031429272+1031775791+1031363366
2077+1030845150+1030502775+1030343716+1030541232+1031213275+1031899111
2068+1031807997+1030765654+1029647893+1029582462+1030790454+1032478273
2060+1033697613+1033987873+1033438063+1032556206+1032074953+1032627005
2051+1034355999+1036484577+1037339935+1035773465+1032779473+1030491633
2043+1029671130+1029424218+1029143877+1029293152+1030238606+1031543080
2034+1032405301+1032059597+1030411458+1028848657+1029337113+1032131415
2026+1035217268+1036159936+1034108475+1030554210+1028328946+1028994603
2017+1031266136+1032895523+1033538418+1034421226+1036040489+1037453267
2009+1037412296+1035805943+1033962937+1033406469+1034468583+1036346648
2000+1038059675+1039065532+1039352395+1039193404+1038739464+1037845921
1992+1036497894+1035371707+1035359409+1036312880+1036906107+1036262465
1983+1035172832+1034995156+1035947336+1037119182+1037695491+1037772676
1975+1038107916+1039063901+1039927277+1039678938+1038418696+1037452588
1966+1037697733+1038630684+1039318626+1039510910+1039198024+1038316643
1958+1037464070+1037558853+1038352518+1038566952+1037690259+1036424106
1949+1035447466+1034821625+1034491685+1034643813+1035449504+1036486207
1941+1036785029+1035971864+1034761358+1034031290+1033979856+1034240696
1932+1034356406+1034143127+1033935760+1034223846+1034961456+1035716731
1924+1036323819+1036888917+1037476504+1038194750+1039117034+1039875027
1915+1039916473+1039217932+1038284709+1037694064+1037787964+1038558119
1907+1039640074+1040415325+1040383595+1039681316+1039052214+1038991404
1898+1039156917+1038927603+1038261879+1037683872+1037608793+1038065654
1890+1038862716+1039676900+1040220867+1040487347+1040700354+1041028188
1881+1041380618+1041548170+1041531048+1041556867+1041707365+1041753024
1873+1041489738+1041033759+1040761164+1041075478+1041962023+1042795231
1864+1042866573+1041944357+1040379586+1038731650+1037297198+1036119780
1856+1035267208+1034837728+1034780790+1034954933+1035384685+1036225910
1847+1037474058+1038951316+1040494277+1041943745+1043133800+1043995953
1839+1044504996+1044635043+1044407496+1043843145+1042904962+1041717557
1830+1040859005+1040967038+1041857931+1042761530+1043157581+1043066671
1822+1042855090+1042902176+1043424197+1044287573+1044986454+1045109366
1813+1044743483+1044285874+1043988479+1043733210+1043182653+1042009176
1805+1040042172+1037479494+1035066363+1033796540+1034034348+1035224878
1796+1036639151+1037920388+1039103581+1040482726+1042123392+1043575306
1788+1044480061+1044985707+1045489518+1046108156+1046609114+1046884223
1779+1047044029+1047041244+1046640369+1045812120+1044982377+1044788327
1771+1045294041+1045962890+1046538859+1047092542+1047584531+1047827162
1762+1047736592+1047533165+1047568021+1047966857+1048554241+1048944788
1754+1048805501+1048092827+1047191402+1046792429+1047113537+1047690525
1745+1048109745+1048292041+1048339399+1048418147+1048632853+1048821944
1737+1048649499+1048023863+1047516246+1047809089+1048450625+1048781788
1728+1048821944+1048896411+1049223906+1049846145+1050587220+1051044489
1720+1050815447+1049828887+1048753319+1048431804+1048618041+1048586922
1711+1048013603+1047006388+1045769519+1044309859+1042621700+1040901607
1703+1039046303+1036370429+1032540987+1028439900+1024527701+1020579830
1694+1017055936+1014131180+1011142895+1007787844+1004610469+1001963607
1686+999221351+995741893+992439703+990302835+988864238+987566219+986290757
1676+985213015+984528878+984153754+983928652+984145601+985466585+987825700
1666+990525151+993452082+997059072+1001346939+1005475543+1008763261+1011036358
1656+1012465850+1014090345+1017734570+1022048392+1024366536+1025359279
1647+1026545800+1028886910+1031787749+1034105622+1035449844+1035819192
1639+1035167940+1033049079+1028397978+1020262867+1008267535+990555319+963444488
1629+925263463+882224649+845615257+821246139+808832810+806139066+808470459
1619+809348375+802358816+786012496+769441074+760742156+759092998+760801065
1609+762354081+760980575+755183924+745609264+736284642+733516567+741241630
1599+758154611+780548638+805978716+833118219+859964676+884178948+904682884
1589+921681340+935764007+947554010+957491767+965535968+971237360+974186441
1579+974356167+971919120+967214207+961592174+956257480+950015246+940724800
1570+928987930+920201704+918629459+923567762+931927634+940465387+948381172
1560+958558027+971876858+981632726+986860747+990545195+993911457+997315293
1550+1000724020+1003574445+1005424313+1006268052+1006051988+1004424300
1541+1000425470+993581788+986564371+980578086+972805393+959436011+939816785
1531+918390360+897452120+874461876+847842966+821400306+800927013+789461718
1521+788297211+795857032+808631149+825044870+842872933+858580911+871006538
1511+880745284+888210527+895117194+905897400+920650412+932675164+941176838
1502+948549879+955992699+963832385+972073558+979896530+986074692+990533576
1492+994251046+998320945+1002867003+1006738639+1008920418+1008420887+1002571306
1482+986645429+956454385+912308680+861230218+817544161+799558195+817776533
1472+858952094+896447827+920091972+931708512+930407503+913766982+887062326
1462+859677677+834773629+811082397+790709391+782613620+788273906+800249126
1452+814362981+829146296+843730058+857523076+869988180+881118098+891545806
1442+901357593+910033885+918358630+929152833+943766830+958037908+967940402
1432+974101646+978138796+980674228+981905933+982078241+981400830+980109538
1422+978430823+976393835+974192420+972684111+972305590+972118742+970830031
1412+967633087+962575201+956418510+949596842+941282628+930099577+915939248
1402+899578524+880732171+859384019+838530031+822584110+813784634+811855610
1392+814518507+818573051+821290915+820196118+812885247+797976845+775492858
1383+747241437+718180248+695549500+684457835+684708212+691924368+700415714
1373+706426595+710191830+714354067+721396284+732319921+747082310+765864998
1363+787912099+809380717+825921292+836511659+842821906+847540068+853106590
1353+860247123+867753540+873859273+877782071+880375664+883327598+887633810
1343+893178454+899668211+907204116+915612229+923900216+931028248+936619773
1333+940704621+943252758+943959589+942243980+937362071+928691011+916368524
1323+901978474+888358646+878353692+873482654+873423678+876811207+882715619
1313+890934709+900523501+908874609+913591752+915092451+916128135+918614714
1303+922163680+925674054+928773496+931480897+933636109+934986922+935310067
1293+934400489+932261787+929367199+926624059+924987606+925007446+926702060
1283+929759037+933747471+938234552+942804594+946914309+949710378+949948796
1273+946056776+936760215+922420376+905638869+889858666+877553777+870189297
1264+869170735+875640788+889175956+907358487+927013316+945607185+961537614
1254+973862208+982038154+985463256+982879719+972060785+950354495+916898630
1244+875767573+836430941+809143589+798877387+803617087+817685147+835835540
1234+854804465+872838536+889101216+903500915+916429742+928295436+939231983
1224+949117151+957623716+964160627+967918456+968127047+964326956+956622209
1214+945980542+934138494+922722323+912526104+904021033+897915097+893948405
1204+889410705+880651724+866986238+852391062+842716048+841455806+848218906
1194+860236456+874036949+885441024+889170928+880642959+860227080+835729614
1184+817839925+811057326+810705847+810490122+810701974+816478785+830107037
1174+848229709+865491790+878008872+883336771+879361790+864767022+841055407
1164+814105606+792759560+784226156+789825292+805047803+823735572+842113241
1154+859272114+875006794+887967352+895343790+893343764+878369727+850038674
1145+815053709+786969635+778703119+793283347+822031786+851237969+869899852
1135+873062211+861657931+841364760+820639459+807225641+804459400+810260128
1125+819677427+828410521+834441786+837681875+839225854+840904773+844461824
1115+850112870+855948453+859640239+861123884+863115893+868654354+878375366
1105+890277275+901705131+911206954+918741839+924779831+929452198+932172916
1095+931891352+928216144+922716005+918715205+919070217+923998872+931350443
1085+938799446+945326097+950912051+955729209+959868616+963407458+966464095
1075+969139290+971341316+972808994+973489394+973811657+974473780+976001113
1065+978508892+981796270+985553759+989383405+992799946+995531739+997762710
1055+999839718+1001837501+1003585316+1004881705+1005325045+1003923614+999222098
1045+990142825+976725949+959883292+940417010+918616481+895438913+874215644
1035+860203842+857306264+865249363+880313291+898299801+916344200+932589146
1026+945371620+953208453+954708269+947921117+931856904+911028802+896168981
1016+896035537+908875153+924749527+934893022+936695872+932569306+927552458
1006+926646549+931707697+940719229+950324124+958465554+964833010+969912775
996+974172920+977863891+981099359+983880276+986127961+987730441+988509769
986+988300227+987217457+985719272+984291546+983112702+982044608+980877859
976+979366424+976917011+972817691+967366607+962287794+959238699+958201044
966+957973904+957837199+957992589+958637047+959491725+960411428+961798863
956+964031804+966845402+969568294+971751160+973406230+974815271+976262905
946+977893175+979688415+981515861+983283176+985142896+987427407+990305893
936+993593679+996883367+999673456+1001419844+1001896206+1001834104+1002793350
926+1005404337+1007178922+1002325346+984527723+951593742+909335276+870696913
916+848429467+846637692+859350522+876834512+892230962+902340756+904100393
907+893879713+873006632+852094687+844915560+856570897+880089548+904440729
897+922961150+934535156+940576341+942804254+942801129+942364447+943577603
887+947991983+955591824+964794010+973562843+980513266+985247055+988275767
877+990855431+994342364+999216323+1004835978+1010192414+1014690366+1018301502
867+1021291689+1023813600+1025471388+1024978447+1020443737+1010903457+998129341
857+986238439+978637172+975141814+971617240+961628864+939167707+902037314
847+854074601+804114987+762529311+737809665+733968672+748431763+771658660
837+790735074+796635477+790574860+783474550+787367792+805888757+832814710
827+858704434+877511311+888186338+893300415+897236939+904011045+915203541
817+929460012+943750047+955314949+963214562+968648184+973308185+976223837
807+971948336+953181683+916757305+868391407+822899306+798790689+807919902
798+846383306+896350529+938254256+959780627+955419652+926004470+882866388
788+846198496+832528865+844025890+871055662+902340620+931277334+955614857
778+974217288+984219525+980605603+958289984+914214059+849038661+771033770
768+699342864+657651737+658547590+694034261+742852128+785732834+814044115
758+828450337+833396522+832998297+830203655+827865535+829086233+835030121
748+840293405+831028642+794587278+737060165+686428848+670191376+691432515
738+731684025+772419371+806600616+834263838+856546776+874592874+889565008
728+902256504+913206708+922830356+931357373+939011842+946113714+952882929
718+959325260+965281175+970339333+973424846+972349347+964437571+948721575
708+927702753+906379265+889695191+881147450+882437724+892807475+908842607
698+926092323+941408598+953527182+961702245+964593165+961000850+951809467
688+940538088+931071800+925293766+923564229+926009362+932037094+940032782
679+948620202+957227869+965428275+972647013+978167740+981358093+982896094
669+986236741+994142402+1002734170+1008335276+1011461625+1013562141+1015222511
659+1016108037+1015692758+1013533537+1008739548+999981451+987031085+972300155
649+960097726+953889533+954391713+960013203+967539187+971906278+967888900
639+955241976+942076972+939728524+951970837+970345176+981682734+979357863
629+967445152+956608008+956585246+969980448+991265275+1011630264+1024162361
619+1024354373+1008436310+975860943+934736477+900241734+883441814+882099766
609+885209061+886266827+888635862+898208687+915255654+935158890+953886067
599+969992474+982670381+990664778+993387466+991226410+984174205+971596653
589+954284360+935919737+922168776+918187477+925628055+941587701+960797559
579+978832309+993634106+1004785767+1012517081+1017699850+1021579028+1024833997
569+1027475490+1029790849+1032515575+1035682147+1038367058+1040192534
561+1042019164+1044386772+1046327415+1046604969+1045157403+1042453400
552+1038230081+1031534994+1021083506+1004623854+979124812+944524007+908176204
543+882552687+876229666+887729952+908412108+930229691+949684287+966158683
533+979582625+990039413+998144356+1004921996+1011035135+1016273279+1020202600
523+1022953689+1025038511+1027342250+1031218711+1036993212+1042564694
514+1045459894+1045658497+1044995627+1044540260+1043496558+1040083822
506+1031609938+1013260330+980223345+935338536+892427051+866893494+866076116
496+887593451+921265245+953834361+974390411+977582395+964966726+944955050
486+930254152+930736968+945685729+965565796+982009821+992723916+998558073
476+1000188818+997963351+993208023+988247230+984276598+980982154+979231146
466+981517492+988751993+998349550+1006121835+1009646205+1010114889+1011022293
456+1014205444+1018628725+1023899075+1030959229+1039133001+1045606791
448+1048495333+1048946011+1050005000+1053308957+1056994560+1057958970
439+1055946646+1053636927+1053326894+1054373450+1054488412+1053227219
431+1052127735+1051466223+1048436085+1038649573+1019313745+992651487+964830564
421+941147757+927592138+931627997+949917678+970645628+985994789+995328788
411+1004346299+1017611590+1031876010+1041273469+1045827952+1050362051
402+1057742226+1066752535+1073741823+1073516246+1064650184+1054990933
394+1051961677+1054371615+1056408739+1055558001+1054576605+1056479945
385+1061245397+1066870012+1071055825+1072695268+1072414044+1071035646
377+1068480034+1065215553+1062832114
##END=
