##TITLE=X9305
##JCAMP-DX=4.24
##DATA TYPE=INFRARED SPECTRUM
##DATE=5/11/2018
##SAMPLING PROCEDURE=ATR platinum Diamond 1 Refl
##ORIGIN=ComPlat
##XUNITS=1/CM
##YUNITS=TRANSMITTANCE
##RESOLUTION=4
##FIRSTX=3997.453
##LASTX=373.96442
##DELTAX=-1.4165319
##MAXY=1.0292162
##MINY=0.37866771
##XFACTOR=1
##YFACTOR=9.5853225e-010
##NPOINTS=2559
##FIRSTY=0.88470978
##XYDATA=(X++(Y..Y))
3997+922983834+922367909+921759508+921473279+921580669+922021238+922702082
3988+923459971+924030876+924232163+924154993+923954390+923496038+922513729
3978+921133261+919942949+919465568+919746761+920536177+921615616+922809846
3968+923910116+924681686+924852938+924294533+923351524+922626343+922336818
3958+922333211+922549920+922835403+922614528+921334859+919269256+917674878
3948+917702487+918871905+919572337+919292264+919228712+920309084+921854400
3938+922880859+923092282+922376864+920642075+918537173+917454749+917938597
3928+918912013+919156518+918731993+918602092+918981658+918992851+918130805
3918+917187174+917584463+919736314+922514351+924580762+925497405+925365950
3908+923896684+920475673+915312039+910223397+907393251+907322611+909390391
3898+912909154+916521503+918488981+918041199+916223583+915510465+916918667
3888+918437928+917953459+915603305+913342571+912112960+911643849+912698539
3878+915540935+917905080+917578742+914770609+911503564+909367694+909043781
3869+910517089+912153627+912174645+911017229+911127915+913623701+916689584
3859+918149398+917135998+913425088+907187487+902104815+903641923+909735321
3849+915791036+919686070+920755622+918959086+914832108+909662691+905218703
3839+903194079+904216309+906967172+909847748+912621245+915514818+918054133
3829+919326589+919027301+917750803+915932130+912973265+908853687+906294100
3819+907226787+909569043+911898552+915227221+919589935+923073689+924198646
3809+922853436+920235086+918106802+916628458+914403231+911549704+910531080
3799+912208286+914859904+917866651+921452821+924810467+926944596+927940150
3789+928277058+927883874+926700402+925545722+925166093+924958339+924167306
3779+923636136+924803129+927211611+928959706+928654697+926078197+922439109
3769+920013030+919960423+921360914+923137800+924598422+924676773+922693812
3759+919786434+918301996+918561673+918245160+915138921+908932971+902620625
3750+900823405+902987569+905364088+906757428+908468773+911232942+913471726
3740+913444987+910220288+904306289+899268264+900046550+906796354+914854743
3730+920314618+921931942+920410567+917874983+916687781+917642045+920065699
3720+923030596+925654542+927039861+926378169+923076736+917520974+912833601
3710+913256509+918298886+924092935+927945187+928872276+927452260+926070113
3700+926857975+929085938+930809595+931119765+929796133+926415479+920960329
3690+915563694+914267360+917993131+923442063+928000219+930601717+930580388
3680+927738614+922402607+915157451+908636170+907588009+911054974+913760069
3670+914618944+917151730+922913940+929020957+933023132+934577651+934478407
3660+933532102+931949601+929837485+927896621+926402731+923832387+918104750
3650+909185621+902379790+904414425+912642761+920760845+926324069+929582596
3640+931471412+932489103+932516836+931487766+929863415+928150516+925937414
3631+922219664+918112772+918022047+922498805+927031466+928697231+927040172
3621+923085255+919229894+917880704+918702767+919805089+920533193+921187796
3611+921560895+921471911+922169420+924877625+928321395+930198396+929864161
3601+928527470+927524952+926972019+926595126+926904115+928487238+930468147
3591+930796848+928138452+923789791+921838668+924213383+928249076+931312036
3581+932883469+933418369+933380686+933268943+933688182+934709791+935284115
3571+933726487+928912509+921800176+916714831+917743341+922989679+928161087
3561+931644903+934088083+936138513+937362093+937021080+935306128+933597146
3551+933123620+933242701+932240805+929940771+928511800+929871686+933170693
3541+936167055+937578179+937641420+937480676+937944874+938760718+939055094
3531+938465410+937384479+936413860+935805646+935471224+935478438+936136336
3521+937395361+938653887+939473525+940060286+940765879+941346670+941133693
3512+940048782+939104778+939377141+940527033+941159188+940578894+939602493
3502+939560830+940660167+941922736+942593071+942954667+943651368+944555885
3492+944843296+944108850+942959579+942387245+942633801+942915429+942471130
3482+941658830+941567918+942555886+943868698+944714826+944966792+944857039
3472+944585360+944333332+944269221+944422502+944659358+944672914+944068369
3462+942812143+941564747+941113110+941449770+941736248+941194135+939852594
3452+938305039+936915493+935684824+934836271+934847962+935687373+936721605
3442+937554985+938329415+939221496+940058047+940398749+939849422+938419146
3432+936501476+934289681+931439139+927745392+923997608+921567051+921032462
3422+921688930+922589903+923589748+924994840+926648604+927977335+928740448
3412+929240028+929736810+930068247+930046856+929788733+929330940+928355223
3403+926690266+924657185+922607377+920557631+918429782+916230547+913963471
3393+911667168+909400962+906983029+903959679+899988719+895111128+889480871
3383+882838021+874387443+863263358+849025634+831759834+812025982+790822428
3373+769396508+749010789+730934368+716335919+705839263+699325506+696313101
3363+696270443+698421175+701604460+704695402+707055878+708326842+707932724
3353+705052086+698975477+689396894+676595292+661479727+645350699+629568654
3343+615427936+604125821+596612592+593380743+594414788+599367932+607737486
3333+618759465+631297349+644216415+656905092+669241066+681151769+692429136
3323+702895757+712575698+721662163+730307312+738464510+745962877+752715666
3313+758853028+764672447+770429496+776198360+781946890+787582557+792863283
3303+797470439+801301113+804626984+807895273+811333447+814739721+817766925
3293+820390126+822918683+825585038+828326635+830929999+833228540+835211688
3284+837006234+838722057+840367985+841956269+843554254+845151680+846613048
3274+847882830+849132900+850554284+852074665+853445432+854572068+855609969
3264+856774661+858163399+859683344+861069844+862094064+862812343+863527201
3254+864494648+865731597+867052867+868212709+869072890+869721523+870369472
3244+871066484+871661516+872106313+872576853+873211993+874001098+874946284
3234+876027339+877003803+877570168+877720962+877792224+878173096+879011637
3224+880123163+881175987+881968948+882446080+882579525+882483950+882520514
3214+882995594+883803540+884607259+885289160+885990712+886789082+887567181
3204+888179127+888588168+888872470+889179406+889639500+890305793+891179033
3194+892200703+893198309+893974170+894465293+894760352+895038436+895506987
3184+896221783+896962261+897438958+897575512+897552007+897674321+898137089
3174+898772104+899187551+899239474+899187613+899351341+899811746+900440667
3165+901059639+901548524+901871193+902054944+902179622+902339184+902566401
3155+902846599+903187425+903554742+903730720+903327151+901918514+899113242
3145+894583565+888333217+881210002+875042108+871819710+872453295+876235467
3135+881414211+886287201+889970128+892344595+893454504+893250108+891919697
3125+890051402+888273396+886979612+886399380+886597744+887382186+888491722
3115+889849804+891391264+892804192+893807518+894547188+895348855+896231110
3105+896979299+897495047+897755968+897592923+896708802+894799030+891626939
3095+887262048+882437126+878538672+876939941+878095056+881235870+885008900
3085+888374942+890980668+893011759+894829251+896568765+898058800+899174865
3075+900044373+900791692+901311854+901428013+901138861+900622056+900004638
3065+899078668+897282256+894157237+889915283+885554247+882454972+881742974
3055+883668043+887390954+891517931+894979486+897384174+898740391+899204589
3046+899115915+898974884+899242831+900092130+901203345+901867151+901542865
3036+900243795+898173031+895306010+891796326+888580457+886969476+887576820
3026+889927346+893042975+896130311+898731374+900625538+901851978+902643446
3016+903161993+903416135+903480060+903590684+903939905+904476173+904976811
3006+905286483+905470794+905723818+906159163+906762340+907455870+908081558
2996+908451859+908566774+908637787+908809288+909044590+909258438+909302712
2986+908950879+908199768+907439205+907054788+907032837+907080097+906939562
2976+906525671+905918824+905269942+904716076+904460192+904768248+905653302
2966+906675284+907282006+907303397+907019779+906831364+906917674+907146944
2956+907273922+907192586+906984583+906802573+906776394+906982282+907422975
2946+908031376+908699286+909307376+909799619+910245908+910706126+911028297
2936+911005227+910750338+910599357+910636108+910727641+910990987+911716914
2927+912824274+913846628+914467528+914715017+914693689+914448313+914084541
2917+913822439+913876787+914322392+915050247+915821879+916413553+916794301
2907+917165099+917724873+918424434+919037996+919387280+919398721+919096822
2897+918664959+918349441+918187143+917984861+917643475+917309240+917105093
2887+916917361+916613534+916305167+916198585+916290181+916378170+916274822
2877+915884995+915182138+914218857+913086749+911815226+910391354+908867492
2867+907346863+905909994+904696986+903995186+904030319+904653333+905366078
2857+905692291+905536584+905245069+905304330+905923302+906970716+908268481
2847+909706157+911102979+912267050+913181579+913893577+914349691+914573799
2837+914815941+915300784+915979265+916625971+917061005+917274293+917436654
2827+917736377+918163140+918535058+918717380+918722230+918638220+918535058
2817+918390918+918126577+917779408+917549889+917569726+917749560+917971989
2808+918268106+918661353+919011382+919181080+919240465+919348104+919530985
2798+919717597+919891462+920064580+920187143+920230547+920299135+920534374
2788+920940493+921380812+921726302+921984923+922282096+922683738+923057335
2778+923230888+923251657+923321241+923510029+923733515+923955821+924210150
2768+924463422+924638468+924749217+924891367+925098686+925270499+925274665
2758+925104407+924866556+924624415+924375993+924157045+923996364+923818831
2748+923579674+923409416+923445545+923631970+923828407+924014957+924273266
2738+924657247+925143894+925660636+926113455+926395642+926426112+926248828
2728+926046919+925986166+926083855+926276064+926527906+926831547+927155273
2718+927432610+927596587+927639431+927618103+927582596+927552810+927580420
2708+927767405+928180426+928740324+929212046+929365327+929206449+928989616
2698+928937258+929009826+929009080+928852689+928660418+928568511+928563474
2689+928577341+928640022+928781986+928870784+928744366+928448000+928156112
2679+927918821+927666543+927387962+927127352+926889875+926708921+926704382
2669+926900259+927088612+927066226+926923889+926908405+927067221+927228898
2659+927305632+927407737+927620963+927859311+928010976+928083793+928113268
2649+928088084+928063956+928189940+928507510+928849517+929051862+929164786
2639+929378510+929795822+930350248+930904922+931341822+931548395+931453254
2629+931183379+931064485+931294500+931706900+931998477+932064142+931980444
2619+931848180+931812922+932030688+932434630+932728259+932766751+932745795
2609+932876007+933079284+933171004+933191525+933395361+933954575+934737649
2599+935335852+935331872+934669247+933779654+933254889+933347605+933798868
2589+934145291+934180860+934118988+934266113+934582315+934697851+934370643
2580+933780711+933326587+933237665+933428381+933635015+933651059+933482107
2570+933339707+933464758+933889718+934400180+934826882+935271305+935853341
2560+936392967+936612660+936480085+936084538+935473587+934876877+934699406
2550+935011628+935445418+935771445+936106986+936483879+936747349+936927494
2540+937214096+937523956+937476137+936855672+935931567+935265585+935166402
2530+935372042+935390013+935000311+934242670+933206822+932152380+931532476
2520+931585269+932083481+932607686+932894537+932941983+932936014+933013245
2510+933040108+932785530+932342350+932163573+932557442+933243137+933597146
2500+933426391+933290956+933805584+934822529+935666293+936039331+936255417
2490+936624413+937053850+937330939+937466871+937656592+938075210+938747971
2480+939505425+940067064+940252121+940099275+939772253+939398780+939040294
2470+938775891+938745048+939054472+939647576+940242296+940458134+940173708
2461+939771942+939790721+940300126+940870906+941119764+941032085+940842862
2451+940824082+941043403+941218822+941031588+940578272+940234523+940164443
2441+940268537+940508876+940947019+941471037+941770263+941687932+941433105
2431+941325217+941447718+941662002+941818206+941817211+941603736+941267760
2421+941096943+941349344+941913284+942343281+942374373+942224076+942197835
2411+942231787+942081552+941763671+941567918+941780150+942480955+943437831
2401+944175137+944350494+944071913+943722506+943538816+943491433+943494293
2391+943558404+943728786+943996236+944323320+944701332+945138045+945636630
2381+946251996+947153964+948516585+950264059+952080307+953816401+955695827
2371+957882376+960136581+962244718+964459001+967039170+969603607+971425638
2361+972214495+972143171+971242446+969295489+966301179+962531134+958379469
2351+954631685+952313618+951966387+953365697+955723623+958084659+959859182
2342+960913436+961252584+961044208+960669554+960382454+960055370+959389823
2332+958313617+957097437+956018993+955053101+954094111+953313774+953072254
2322+953460402+954001831+953983052+953197491+952193915+951581784+951257249
2312+950632432+949488323+948183407+947135682+946494448+946238564+946322138
2302+946690139+947192268+947553802+947600439+947481421+947407174+947214219
2292+946577525+945676490+945202902+945523954+946203306+946595185+946609549
2282+946617882+946867858+947314894+947856821+948405899+948826755+949058139
2272+949212105+949344120+949240025+948687216+947875538+947272298+947164037
2262+947477627+947920061+948219225+948397628+948755431+949426823+950189874
2252+950866552+951498582+951995862+952060843+951575503+950817303+950298259
2242+950419019+951143330+952147402+953372723+955009884+956835832+958203055
2232+958866364+959169196+959294060+959036684+958481699+958264057+958845719
2223+959856446+960399492+959921800+958742744+957749304+957463759+957487824
2213+957111802+956298445+955623508+955436025+955656527+956248076+957246366
2203+958366286+959132135+959455177+959768643+960561293+961909550+963429806
2193+964631124+965337401+965687058+965815963+965836049+965993497+966438853
2183+966988242+967389137+967447838+966900937+965894128+965247049+965244375
2173+964858279+963381738+961887972+961830577+963159184+964932961+966870032
2163+969053534+970591326+969957616+967238343+964756858+964230913+964959576
2153+965553053+965707205+965929759+966496683+966957275+966401667+964463416
2143+962092990+960678259+960403720+960213937+959407918+958512417+958452970
2133+959436025+960797651+961588809+961201718+959816400+958443394+958180483
2123+959102785+960121782+960256844+959730960+959386278+959373717+959053349
2113+958097966+957093209+956766436+956975372+956922889+956307026+955708761
2104+955693837+956071600+956375055+956601029+957046012+957708636+958256533
2094+958480641+958548421+958862757+959716533+960902679+961673005+961376577
2084+960205294+959072564+958732546+959220311+960048405+960676891+960904171
2074+961073434+961790780+963250531+964913436+965885236+965578299+964289800
2064+963187540+963266077+964323939+965441993+966207904+966853864+967470411
2054+967840961+967956932+968085963+968399739+968952300+969891204+971247732
2044+972626086+973573945+974184398+974857283+975565923+975926275+975947293
2034+976175630+976938680+977792767+977890830+976865864+975399334+974697347
2024+975109684+975523576+974607182+972472680+970423431+969087237+967813849
2014+966323814+965624563+966486858+968192731+969500942+969997662+969956932
2004+969733072+969686248+970026888+970611349+971202463+971637807+971654846
1994+971209987+970927488+971165028+970772714+968555135+965701173+964726389
1985+966155360+968010597+968683917+968591761+968768921+969409098+970293343
1975+971435774+972479085+972242104+969755458+965711122+962352792+961320177
1965+961902399+962374494+962312870+962521557+963346294+964326364+965388391
1955+967086243+969445848+971495408+972301738+971890644+970756484+968923384
1945+966218849+963444668+962245899+963110557+964716128+965799858+966378722
1935+967190648+968607556+970148457+971026919+971064913+970612903+969703784
1925+968222579+966850257+966532874+966827063+966312621+964736400+963448958
1915+963246987+963144074+961888843+959667036+958008733+958110838+959741966
1905+961890024+963697194+964720357+964975557+964798335+964471375+964130113
1895+963854206+963369550+961995052+959643468+957664735+957675555+959526501
1885+961835117+963767834+965182814+966048529+966542202+967150913+968049772
1875+968722408+968475665+966953606+964186887+961038363+959681711+961682394
1866+965697940+969260604+971141958+971524323+971238031+971053223+971307241
1856+971836669+972207717+972003507+970928483+968964239+966481822+963890646
1846+961526004+960405088+961664734+964402414+966591699+967379934+967340261
1836+967336779+967209241+965855325+962845159+959782199+958845097+959609019
1826+960264865+960625093+961468111+962477096+962685348+962031367+961444979
1816+961566298+961893693+961637001+961043026+961305191+962975806+965242199
1806+966884645+967015976+965366254+962801320+961120444+961237846+962130860
1796+962228612+960796532+958549230+957909861+960494446+964370514+966857471
1786+967237721+966357144+965180388+964123895+963606904+963799299+963732389
1776+961990264+958058728+952963931+949375833+949328698+951817582+954955411
1766+957553738+958620492+957743148+956012215+955238407+955594282+956160398
1756+956793486+957198361+955911665+951748373+945884804+941981810+941982308
1747+943929576+945515062+946129992+946041505+945485276+944698285+943548517
1737+940903055+935884494+931016790+931036626+935293380+940483380+945060502
1727+948130241+949265271+949037183+948085344+945759256+940684046+933363337
1717+928845911+931555546+938316543+944537915+948387244+949493546+947980317
1707+944700275+941600192+939896308+938208033+934644125+930285329+928700837
1697+931081150+936685041+943299908+947599569+948204612+946091812+943017410
1687+939196747+933590617+928618693+930108977+936396387+942106488+945190279
1677+945484592+943938530+942384571+941300966+939675620+938594502+941385224
1667+947329320+951952147+953227401+952760156+953705341+956439850+958266109
1657+956976056+951663057+942687217+935714734+936986755+939691663+938552591
1647+935820383+937484904+944120167+950478964+954014641+954497742+951924538
1638+947138045+944261323+948360567+956259643+961933926+963771814+962848952
1628+961129150+959687991+958463976+958258025+960084036+962311565+962208900
1618+959387895+957203024+958431144+960530201+960420945+957725426+954015201
1608+951080151+949112674+946615705+942158721+936171221+930882225+928325748
1598+928922147+931933247+936372384+941292509+945824299+949437705+951972978
1588+953076980+952060222+948995147+945556787+943753286+943672635+943366320
1578+941350526+939397537+941107949+944878057+946128313+943440691+939032583
1568+935873612+933016292+927761124+919780962+909690984+894785661+869229467
1558+840169931+825401038+819801623+817243032+820071623+831124135+848834793
1548+867144214+880334026+887149621+889326096+888946219+889837118+898911768
1538+913783015+924831298+930049530+932536984+936287006+941497651+944825947
1528+944807417+942927866+941162173+939372788+937071262+936238130+938300376
1519+941388333+944793985+949603362+954658797+956755678+953853711+945702420
1509+933063116+920359826+916019311+917264530+916808043+913943945+910923394
1499+909899734+911315522+913061005+911634522+904547000+891421796+876299640
1489+868316430+871366892+879430877+887178163+894206735+902051586+910849085
1479+918704010+923737930+925476263+925045520+925359296+928636540+932145229
1469+931304263+923508599+908145980+888678023+872072236+860972216+852039904
1459+839492072+818602233+798329314+795442084+809897512+833212994+857242776
1449+876603529+890806679+902066013+911459725+918811090+923705346+925541866
1439+923662689+917906821+910263195+904445268+901288287+899811186+900830681
1429+905381499+911114110+913788176+911260365+904385013+894906607+883291150
1419+871527698+866542840+871942460+882614224+893032964+900952000+906237887
1409+909545165+911301095+911626189+910782984+908738648+904425370+896947337
1400+887983996+882010922+882517218+889261799+899294257+908664774+914796788
1390+917579302+918813577+921128535+925508474+930391227+934086155+936277866
1380+937420172+937677983+936897086+935664863+935659515+937766968+940760034
1370+943288964+945297607+946832849+947179583+946235268+945840218+948047910
1360+952172587+955953141+958284453+959568848+960663957+961874478+962889122
1350+963343122+962833406+960533248+955665668+948641946+941246493+935784566
1340+934236763+937038367+942149954+946667877+949064357+949427943+948592884
1330+947351271+946077136+944600782+942068245+936895532+927348663+913181703
1320+897673824+887464890+888012662+898761471+914402049+929663931+941782513
1310+950181852+955344430+957882750+957910359+954837885+947982617+937943008
1300+927508784+920565590+919505614+923716415+930594815+937673444+943703664
1290+948431021+952064015+954922516+957203709+958880293+959794698+959833873
1281+959057018+957747004+956340729+955147371+954025523+952464475+950051703
1271+946662218+942076577+935695209+926918728+915739486+902862891+889527943
1261+877488459+868748480+864585560+864772794+867969386+872717201+878064773
1251+883634962+889410417+895462028+901723881+907850360+913187175+917035385
1241+919142153+919864225+919750616+919129903+918254177+917694341+918346208
1231+920914003+925373785+931017661+937053353+943043589+948683298+953279386
1221+955673752+954893974+951023751+945367377+939590056+934651836+930492461
1211+926558065+922597054+919120265+917271806+918230920+922475424+929336101
1201+937216459+944399806+949825915+953274785+954970584+955088421+953631965
1191+950745357+947022259+943340079+940200260+937117775+933017971+927813545
1181+923395549+922235148+924902125+929658708+934453596+938454528+941676677
1171+944170971+945997355+947342752+948090443+947470041+944798276+940981717
1162+938810465+940875321+947167893+955339330+963108567+969703971+975292814
1152+980048215+983992188+987219436+989926583+992221580+994062826+995499757
1142+996792795+998162070+999634507+1001182186+1002778554+1004327850+1005696876
1132+1006756727+1007391307+1007496832+1006834891+1004881467+1000876990
1123+993674927+981101040+959426138+924264063+874386634+817280652+769985756
1113+750081708+763167923+799696226+843847324+883828973+914501480+934207910
1103+941293628+932306470+903812118+859099444+812377752+780801101+771005561
1094+777630067+794079462+818190642+847503139+876245540+899346926+915682278
1084+926300813+931697945+931309113+924957593+915033209+906895723+905739115
1074+912677521+924455338+936678077+946594252+953430305+957735127+960877432
1064+964114257+967502933+970249193+972347691+975108876+979622696+985349959
1054+990776442+994961188+998005306+1000486604+1002854728+1005146865+1007119380
1044+1008576768+1009310344+1008703249+1005293244+996363668+978743424+951430181
1034+917029664+879543242+841251671+801824261+759872709+717438801+684603499
1024+675634499+696492873+738358675+785625775+827365717+860193869+884792130
1014+902925012+916304919+926303984+934096975+940677517+946660540+952233775
1004+957156076+960898886+963286536+964969214+966745479+968434935+969154209
994+969011312+969649312+972416963+976783533+981283113+985178084+988479517
984+991054774+992288552+991104583+985811048+974127251+954492395+928999006
975+905041357+891833698+893851544+908137398+927712248+946409444+960817550
965+969399522+971064416+965434096+955063423+946191740+944959703+952370702
955+964152935+975435027+984249253+990925619+996140244+1000283887+1003653472
945+1006459553+1008769785+1010623530+1012163747+1013650486+1015289325
936+1017000111+1018483927+1019620886+1020624834+1021666528+1022599587
928+1023257051+1023745314+1024160698+1024137379+1022761512+1019009002
919+1012902919+1006664758+1003898599+1006631241+1013406106+1020804606
911+1026390091+1029827643+1031984034+1033783057+1035634128+1037376067
902+1038700446+1039590661+1040252913+1040834140+1041226329+1040839674
894+1038382565+1030983630+1012756353+977534831+928613719+884538733+867457804
884+883300416+917923051+952658984+978242228+994530133+1004261935+1010069539
874+1014032602+1017293864+1020046592+1021836039+1021656516+1018702190
866+1014021284+1010638578+1010592314+1012364909+1012863619+1011558766
857+1010961434+1013083188+1016892036+1019622751+1019604842+1016999613
849+1012439591+1006766365+1002447553+1003009378+1009605279+1019468910
840+1028704676+1035424446+1039782372+1042515139+1044276293+1045489239
832+1046141044+1045913578+1044492069+1041449629+1035985401+1026793971
823+1012072835+991218751+968613028+954053070+955480238+971139098+991346102
813+1007215888+1015468164+1016298684+1009626857+993902953+968520499+938099213
803+912781429+900897092+900694997+901023635+890194983+863979522+827877797
793+794722188+778328198+785197084+810713542+843577013+873383930+893902659
783+901316767+892499059+867214481+832565480+803277110+793973689+809076071
773+840601607+875884256+906548181+931030657+951403193+969523391+985562377
764+998681922+1008434307+1015431290+1020640753+1024337796+1026057784+1025265383
754+1021646505+1014771712+1003531469+985926335+959692842+923376832+876842188
744+820970606+757931037+693562550+639446898+608832097+606667250+623626672
734+641687174+645932548+631075790+599451009+556651153+510098849+469291344
724+443615976+437245458+445204353+455175685+455458619+442626081+422192263
714+403682456+395049525+399562723+415987214+439681144+462603971+474873782
704+471266657+458264482+451375356+462609568+491434299+528026029+562284644
694+588288868+603629474+608337367+604953790+598552523+595347288+599843447
684+612811763+631870305+653482340+674685147+693843742+710333868+723651156
674+732913101+737602091+738093401+734022948+723932846+711672114+706102796
664+709594758+720190534+735622923+753190062+770578798+786613867+800841455
654+813029557+822849349+830250585+836162408+842106939+848989070+856375320
645+862773354+866744562+868002654+867491072+866790391+867599333+871097203
635+877257324+884901696+892593826+899441756+905310113+910814947+917237854
625+925734634+936100954+946752819+955474144+958881226+953071321+939008270
615+925763487+922700590+929564811+938707365+945358298+951110808+958098090
605+964650649+966991600+961095882+941841089+903933313+847012140+779990418
595+719009612+679384832+666798384+674069347+686247189+689260962+675702527
585+647733748+616463971+595367995+592145970+605549941+628834208+655291686
575+680679363+703252813+723302743+741853932+759167240+774452876+786860174
565+796550625+804708506+812475380+819885944+825928601+829631986+831090867
555+831644236+833088690+836598250+842343547+849765676+857725629+864813835
545+870421147+875446610+881188486+887589256+893174306+896804564+899106526
535+901780281+905513514+909046579+910720428+910602466+910433017+911853345
526+915210493+919599511+923611636+926208595+927395300+928175700+929376645
516+930706993+931260859+930053882+925874858+917136060+901070459+872623802
506+826980803+767243102+710906389+683115703+694118095+729842866+769812265
496+803119600+828725665+849381633+867201485+882531147+894944290+904627963
486+912584930+919801047+926822219+933908684+940633802+945680034+948188506
476+948963620+949519414+950650341+952409940+954799518+958074460+962300185
466+966672102+970040817+972199509+973516177+973823548+973424145+974282212
456+977327885+980704684+983563870+987313892+992152308+995846490+996751132
446+995501498+993771809+993185296+994998684+999109618+1003933235+1007694823
436+1009131816+1007844561+1004762697+1001797800+1000654623+1001544963
428+1003195120+1004447863+1005014726+1004546548+1002426783+999278197+998592689
418+1004197265+1013634007+1021822546+1026599089+1028854911+1031475437
409+1036018047+1040910065+1043758680+1043160663+1038326911+1029803516
401+1020792978+1016454639+1020137317+1027877266+1033709867+1039085733
392+1047927320+1059218180+1066492376+1064085263+1053248091+1041952567
384+1038677749+1044212617+1053117880+1061442972+1068348919+1073324076
375+1073741823+1070367138
##END=
