##TITLE=J. Busch JMB028B
##JCAMP-DX=4.24
##DATA TYPE=INFRARED SPECTRUM
##DATE=21/2/2018
##SAMPLING PROCEDURE=Diamant-ATR
##ORIGIN=Angelika Moesle
##XUNITS=1/CM
##YUNITS=TRANSMITTANCE
##RESOLUTION=4
##FIRSTX=3997.453
##LASTX=373.96442
##DELTAX=-1.4165319
##MAXY=1.0008528
##MINY=0.55476779
##XFACTOR=1
##YFACTOR=9.3211683e-010
##NPOINTS=2559
##FIRSTY=1.0008528
##XYDATA=(X++(Y..Y))
3997+1073741823+1073552544+1073534512+1073603317+1073542441+1073251361
3989+1072787821+1072323832+1072156743+1072476470+1073051724+1073436675
3980+1073464811+1073271056+1072987650+1072716394+1072606024+1072680712
3972+1072702070+1072436248+1072054046+1072064853+1072644391+1073211076
3963+1073101857+1072538369+1072307015+1072553269+1072670417+1072342952
3955+1071941886+1071855304+1072034351+1072294865+1072595345+1072845819
3946+1072826891+1072541886+1072314496+1072333296+1072367571+1072106162
3938+1071440745+1070395877+1069219983+1068466450+1068588458+1069338922
3929+1069914687+1069821199+1069302473+1068976223+1069176117+1069728478
3921+1070381489+1071000545+1071323533+1071090644+1070459758+1069865193
3912+1069589077+1069637483+1069707823+1069361303+1068521123+1067742907
3904+1067807044+1068867068+1070245924+1071175691+1071320912+1070718417
3895+1069639657+1068600224+1068234967+1068580209+1068681243+1067983598
3887+1067300596+1067613673+1068483651+1068929031+1069204572+1069789034
3878+1069982469+1069210519+1068101385+1067310700+1066731929+1066411690
3870+1066897932+1067867473+1068308185+1068319248+1068785922+1069798946
3861+1070491731+1070256603+1069110189+1067471650+1066410731+1067648140
3853+1071061037+1072826891+1071607387+1069431579+1067906480+1067308142
3844+1067206660+1067126025+1066940008+1066976265+1067670137+1068888106
3836+1069881627+1070148535+1069706353+1068697869+1067287615+1065846732
3827+1064886143+1064515132+1064272714+1064068473+1064613736+1065905818
3819+1066694649+1066982531+1067995492+1069518353+1069915071+1068702665
3810+1066745422+1065294691+1065440614+1066816337+1067595832+1067262485
3802+1067128647+1067921379+1068728882+1069001290+1068934147+1068397005
3793+1067393957+1066565287+1066314365+1066232963+1065849610+1065349109
3785+1065054640+1064821686+1064611817+1065015057+1066339880+1067595321
3776+1067518842+1066080645+1064228592+1063090619+1063392825+1064748213
3768+1065896354+1066244665+1066093753+1065631492+1064920994+1064366906
3759+1064258966+1064173983+1063646624+1062914577+1062475080+1062788093
3751+1064120332+1065513704+1065384342+1063907266+1062949555+1063916282
3742+1065428657+1065690194+1064929179+1063944866+1063200797+1063092793
3734+1063925555+1065170637+1065715964+1065123893+1063981763+1063270753
3725+1063593294+1064808961+1066332142+1067494351+1067789012+1067288383
3717+1066481135+1065674399+1065108674+1065365926+1066734103+1068216679
3708+1068678429+1068077981+1066861547+1065627527+1065096332+1065443364
3700+1065902620+1065742629+1064942224+1063821387+1062770444+1062163409
3691+1062300764+1063369549+1064920162+1065699785+1065201011+1064246113
3683+1063754117+1063778160+1063639463+1062950962+1062369761+1062853189
3674+1063760511+1063748681+1063680324+1065306777+1068046648+1069434329
3666+1069061974+1068309016+1067979505+1067786838+1067156335+1066088574
3657+1065291941+1065332738+1065617935+1065251208+1064465894+1064391717
3649+1065706052+1067451763+1068322189+1068191996+1067643855+1067265938
3640+1067110742+1066563689+1065149087+1063332524+1062077339+1061679150
3632+1061694561+1062175751+1063885333+1066243897+1067217531+1066391164
3623+1064737726+1063224393+1062685204+1063498399+1064753201+1065220706
3615+1065033602+1064927580+1064945037+1064861716+1065047414+1065818212
3606+1066605381+1066763262+1066433879+1066052892+1065725364+1065280431
3598+1064645644+1063981123+1063488551+1063063825+1062298910+1061173597
3589+1060572254+1061565072+1063601735+1064640081+1064008748+1062851335
3581+1062309908+1062548553+1063016698+1063223050+1063177904+1063134293
3572+1063025138+1062536147+1061857878+1061869836+1062968291+1064082924
3564+1064213117+1063705071+1063194082+1062715131+1062033984+1061192014
3555+1060453572+1060031468+1059942711+1059950832+1059845578+1059877998
3547+1060527876+1061724168+1062733803+1063050845+1062814822+1062370593
3538+1061999709+1061941710+1062188668+1062338044+1061974131+1061159082
3530+1060423325+1060321844+1060939493+1061759913+1062087378+1061675378
3521+1060938598+1060497758+1060572254+1060870368+1061009066+1060947294
3513+1060920309+1061030232+1061091108+1060881814+1060399282+1059836434
3504+1059445024+1059393931+1059618444+1059854658+1059880940+1059638842
3496+1059217058+1058877380+1058970676+1059614671+1060442701+1060840953
3488+1060551600+1059965604+1059694091+1059941880+1060393399+1060608959
3479+1060448776+1060081857+1059685586+1059274865+1058831275+1058475610
3471+1058405270+1058684201+1059129389+1059425520+1059411005+1059214181
3462+1059012688+1058808766+1058622813+1058674992+1059070239+1059477764
3454+1059436071+1058916578+1058368821+1058209853+1058425925+1058741624
3445+1059060711+1059472840+1059877487+1059990606+1059747614+1059391373
3437+1059146910+1059020490+1058859027+1058495945+1057932905+1057441612
3428+1057374150+1057790371+1058315427+1058501636+1058353794+1058245151
3420+1058264335+1058114446+1057760061+1057563556+1057656661+1057712997
3411+1057412965+1056765900+1056093962+1055905450+1056490359+1057504790
3403+1058260114+1058451631+1058325786+1058214969+1058205313+1058227054
3394+1058262800+1058362363+1058528429+1058705366+1058860370+1058934739
3386+1058762470+1058220660+1057496350+1057017462+1057029228+1057361744
3377+1057717345+1058022109+1058309032+1058480662+1058408851+1058074800
3369+1057497628+1056800175+1056339384+1056420659+1056920073+1057463801
3360+1057857066+1058135293+1058334866+1058394975+1058237605+1057882260
3352+1057477741+1057249136+1057402286+1057932777+1058491533+1058681067
3343+1058532969+1058412113+1058452654+1058409619+1058127363+1057852846
3335+1057869663+1057973447+1057675013+1056961318+1056414200+1056403010
3326+1056619082+1056638649+1056500527+1056456980+1056539853+1056641463
3318+1056784764+1057040099+1057280150+1057275354+1056987983+1056556287
3309+1056039032+1055467808+1055072049+1055092192+1055413262+1055714957
3301+1055917856+1056165389+1056456916+1056660135+1056818336+1057089081
3292+1057405419+1057497117+1057240887+1056769673+1056271986+1055836389
3284+1055455722+1055126531+1054928939+1054940577+1055142069+1055548187
3275+1056243786+1057045278+1057438479+1057175471+1056638905+1056364771
3267+1056512101+1056929793+1057379713+1057575002+1057320819+1056753623
3258+1056244745+1056038265+1056100996+1056251395+1056301976+1056183485
3250+1056034364+1056043445+1056171399+1056230293+1056241676+1056417653
3241+1056744223+1056915021+1056823068+1056831253+1057313338+1058066423
3233+1058456299+1058167201+1057591309+1057365517+1057644000+1057967628
3224+1057823303+1057213455+1056621767+1056493685+1056833683+1057282516
3216+1057461563+1057205398+1056599578+1055955647+1055700249+1056057640
3207+1056767883+1057316983+1057460156+1057287632+1056909266+1056451864
3199+1056230549+1056506346+1057151875+1057760189+1057943584+1057563812
3190+1056933118+1056646770+1056949680+1057457918+1057659922+1057423452
3182+1056955755+1056604374+1056735398+1057461563+1058408020+1059009363
3173+1059110525+1059060264+1059152409+1059225627+1058974513+1058433406
3165+1057953048+1057828738+1058030166+1058218358+1058035218+1057427352
3156+1056672156+1056142880+1056052653+1056279915+1056488249+1056587876
3148+1056869620+1057445257+1057875674+1057611260+1056547527+1055079531
3139+1053876461+1053484411+1053866357+1054426328+1054606206+1054331369
3131+1053952364+1053945074+1054512334+1055320541+1055810172+1055808509
3122+1055623515+1055571783+1055623962+1055518516+1055140535+1054711588
3114+1054511823+1054530239+1054596103+1054730516+1055105748+1055739128
3105+1056401028+1056798832+1056788153+1056486651+1056228886+1056319241
3097+1056709181+1056964387+1056748571+1056280874+1056019849+1055955647
3088+1055614051+1054725401+1053504490+1052293810+1051279763+1050509668
3080+1049917149+1049304616+1048346009+1046503932+1043053243+1037575866
3071+1030631708+1023725086+1018293047+1014674565+1012100121+1009596656
3063+1006819952+1004180091+1002441158+1002202833+1003543002+1006038154
3054+1009159588+1012635600+1016410237+1020316857+1023888339+1026523212
3046+1027825462+1027755569+1026491431+1024236970+1021220023+1017794720
3037+1014430613+1011601921+1009705363+1008949527+1009223470+1010205161
3029+1011720604+1013839245+1016540046+1019476742+1022142436+1024071927
3020+1024828593+1023993913+1021303727+1016899611+1011663629+1007263861
3012+1005395247+1006617692+1010002134+1013912079+1016914958+1018162343
3003+1017568417+1015937616+1014619252+1014683773+1016285415+1018751856
2995+1021214779+1023144590+1024357699+1024718415+1024051528+1022381336
2986+1020195489+1018368631+1017631467+1018009257+1018877956+1019629443
2978+1020180781+1020842936+1021872522+1023219342+1024614440+1025790141
2969+1026581658+1026901833+1026752201+1026298508+1025865597+1025779143
2961+1026142737+1026750474+1027265299+1027492881+1027526708+1027674742
2952+1028132400+1028636674+1028645690+1028038592+1027406299+1027441213
2944+1028244560+1029395898+1030516095+1031561603+1032584027+1033389676
2935+1033659846+1033396518+1032983303+1032742228+1032614082+1032320636
2927+1031716160+1030942547+1030236973+1029664086+1029202207+1029015167
2918+1029326645+1030062274+1030946896+1031900258+1033006387+1034147942
2910+1035006409+1035443988+1035648166+1035855286+1036105760+1036326883
2901+1036515906+1036750330+1037097426+1037574204+1038145301+1038724007
2893+1039211655+1039566680+1039820416+1040012444+1040113158+1040083488
2884+1040022995+1040137458+1040475282+1040796544+1040790533+1040398419
2876+1039923752+1039803407+1040208693+1040904420+1041560500+1042060106
2867+1042410016+1042542511+1042355598+1041856568+1041211933+1040676390
2859+1040377765+1040186376+1039963974+1039866968+1040148712+1040733493
2850+1041262450+1041522772+1041607820+1041710516+1041943789+1042321771
2842+1042754554+1043066096+1043146028+1043074601+1043012638+1043025491
2833+1043138290+1043455140+1044042096+1044740700+1045242608+1045326504
2825+1045007608+1044545155+1044308492+1044493359+1044936309+1045309815
2816+1045490716+1045614706+1045765042+1045827901+1045755259+1045743621
2808+1045957966+1046261067+1046423105+1046433208+1046432185+1046487370
2799+1046568133+1046635916+1046688223+1046765789+1046903719+1047047405
2791+1047064990+1046868741+1046519407+1046241564+1046269444+1046589171
2782+1046915421+1047010956+1046920409+1046812725+1046754854+1046725631
2774+1046739891+1046846232+1047034871+1047210913+1047303506+1047350506
2765+1047393478+1047346478+1047119663+1046811830+1046639560+1046736694
2757+1047112565+1047689737+1048276053+1048593990+1048473836+1048041693
2748+1047665054+1047610764+1047760652+1047796206+1047614665+1047372695
2740+1047185463+1047045103+1046979686+1047045870+1047185719+1047266738
2731+1047243525+1047191794+1047208100+1047317446+1047456272+1047556538
2723+1047636087+1047766088+1047957924+1048115358+1048117980+1047955174
2714+1047757711+1047651817+1047619205+1047573932+1047537099+1047615624
2706+1047816541+1048011830+1048119706+1048203411+1048340894+1048457146
2697+1048370053+1048016882+1047593371+1047403261+1047548737+1047797805
2689+1047800938+1047426026+1046856527+1046380006+1046111435+1045930022
2680+1045645720+1045190684+1044678225+1044299796+1044121836+1043987806
2672+1043716677+1043388893+1043278651+1043490566+1043833569+1044088776
2663+1044241861+1044404730+1044621186+1044823701+1044949226+1045048022
2655+1045235894+1045537908+1045834999+1045989875+1045979579+1045890120
2646+1045849834+1045976510+1046297452+1046693530+1046988255+1047115315
2638+1047161036+1047262197+1047483896+1047765704+1047950506+1047885346
2629+1047537994+1047067100+1046767387+1046873025+1047392263+1048125269
2621+1048789791+1049140723+1049109582+1048863967+1048628968+1048457978
2612+1048265885+1048050070+1047937206+1047969051+1047994181+1047911372
2604+1047841479+1047840392+1047747352+1047616967+1047839817+1048475243
2595+1049004967+1049056251+1048821572+1048600192+1048445636+1048281680
2587+1047986700+1047479612+1046920473+1046639177+1046821805+1047395524
2578+1048091570+1048566621+1048649111+1048486114+1048338591+1048339806
2570+1048489311+1048699180+1048839348+1048881744+1048957456+1049162976
2561+1049391645+1049503934+1049596974+1049908900+1050425068+1050776384
2553+1050620038+1050041715+1049543324+1049606630+1050210019+1050856316
2544+1051177514+1051298691+1051463606+1051610937+1051557990+1051341343
2536+1051167923+1051152256+1051212173+1051182950+1050993735+1050695813
2527+1050341619+1049976555+1049762785+1049916190+1050432678+1051010425
2519+1051350743+1051475244+1051620081+1051825026+1051813132+1051388918
2510+1050794545+1050500076+1050684175+1051057617+1051190815+1050925889
2502+1050417523+1049868551+1049390303+1049114378+1049210360+1049671471
2493+1050235790+1050594012+1050585315+1050224983+1049742258+1049537377
2485+1049827945+1050370459+1050783802+1051050455+1051366281+1051659088
2476+1051683387+1051437836+1051098286+1050750039+1050498733+1050502250
2468+1050624642+1050465673+1049954366+1049490057+1049350720+1049382245
2459+1049350081+1049217586+1048973314+1048522051+1047917702+1047525141
2451+1047725802+1048483812+1049365875+1050000982+1050367965+1050600215
2442+1050694918+1050572654+1050332347+1050198126+1050180477+1050009359
2434+1049492360+1048756795+1048099627+1047751892+1047815390+1048276756
2425+1048981947+1049651072+1050064608+1050262519+1050415924+1050540490
2417+1050583973+1050632187+1050721200+1050678932+1050469446+1050352810
2408+1050486967+1050741854+1050987149+1051185635+1051272282+1051273305
2400+1051361485+1051516617+1051404393+1050856380+1050216158+1049941449
2391+1050067229+1050318151+1050551616+1050785465+1050919239+1050768263
2383+1050365023+1049992349+1049852181+1049859407+1049900651+1050138848
2374+1050722287+1051317939+1051476587+1051311736+1051175788+1051024173
2366+1050775873+1050702591+1050906641+1051146501+1051383802+1051726678
2357+1051993459+1052007271+1051964044+1052028629+1051973508+1051530302
2349+1050798510+1050156945+1049830567+1049454824+1048403240+1046830821
2340+1045745219+1045916977+1047090376+1048272408+1048715934+1048549292
2332+1048401514+1048572824+1048807376+1048766387+1048434702+1048065225
2323+1047914249+1047973783+1047922754+1047451412+1046623063+1045825151
2315+1045402216+1045384695+1045550377+1045692784+1045810508+1046055163
2306+1046520174+1047119151+1047687499+1048135053+1048451455+1048657360
2298+1048826240+1049039178+1049213302+1049075755+1048491101+1047775040
2289+1047450773+1047647021+1047962208+1047999617+1047827859+1047815773
2281+1048142151+1048566173+1048687798+1048391346+1047920644+1047622530
2272+1047824342+1048736396+1050121391+1051287884+1051685433+1051334053
2264+1050661794+1050171332+1050129960+1050407419+1050777344+1051212748
2255+1051628714+1051801111+1051825410+1052046789+1052414220+1052622554
2247+1052830697+1053508327+1054627436+1055488334+1055306537+1053909201
2238+1052090464+1051106855+1051487394+1052537634+1053258811+1053375704
2230+1053146267+1052641098+1051784037+1050772164+1049919259+1049330002
2221+1049036109+1049053438+1049200448+1049416520+1050087628+1051262114
2213+1051920433+1051085817+1049305958+1048067782+1048123287+1049149164
2204+1050566899+1051941023+1052833510+1052956925+1052537443+1052168413
2196+1052241439+1052737016+1053563256+1054846385+1056803820+1059270964
2187+1061327770+1061954308+1061410132+1061102682+1061554201+1061681836
2179+1060708074+1059370016+1058755819+1059121140+1059901402+1059980183
2170+1058291447+1054886224+1051165940+1048874327+1049011042+1051258341
2162+1054043294+1055814520+1056756053+1058250267+1060493474+1062428975
2153+1063543608+1064120332+1064238056+1063611071+1062243597+1060577562
2145+1059187771+1058607466+1058926874+1059407807+1059238352+1058722248
2136+1058934547+1060157248+1061341390+1061161640+1059322248+1056917259
2128+1055443508+1055260560+1055384295+1054893130+1053884518+1052945159
2119+1052454569+1052520305+1052998170+1053516703+1053800366+1053824153
2111+1053619911+1053246662+1052807804+1052214134+1051291913+1050360099
2102+1050151701+1050926720+1052162402+1053224153+1053883942+1054147014
2094+1054029674+1053664673+1053342772+1053238093+1053225112+1053129194
2085+1052905001+1052414539+1051546544+1050792435+1050927552+1051755901
2077+1052098969+1051468594+1050788662+1051015988+1052001771+1053129706
2068+1054218249+1055286906+1056065889+1056293599+1056144031+1055962042
2060+1055942155+1056263481+1056978391+1057652504+1057774640+1057552877
2051+1057617974+1057978882+1057886161+1056830230+1055329877+1054481577
2043+1054831806+1055950596+1057161020+1058115150+1058454700+1057880406
2034+1056853250+1056150170+1055913763+1056184700+1057393014+1059202159
2026+1060199708+1059613264+1058076719+1056408190+1055075118+1054811024
2017+1056184572+1058427076+1059921609+1060022068+1059555457+1059460051
2009+1059614671+1059252164+1058059581+1056462799+1055108946+1054463352
2000+1054595655+1055075182+1055349828+1055374639+1055567499+1056124016
1992+1056716343+1056802094+1055950404+1054069192+1051612408+1049297390
1983+1047537291+1046601193+1047050474+1049123650+1051860516+1053883431
1975+1054800792+1054918132+1054340513+1053016010+1051000258+1048560738
1966+1046332303+1044941489+1044391749+1044362846+1044756814+1045338398
1958+1045406116+1044528593+1043158305+1042077627+1041681293+1042133451
1949+1043700371+1046289267+1048907450+1050269745+1050057382+1049140851
1941+1048403176+1047872173+1047310540+1046964020+1047286241+1048168497
1932+1048889354+1048953683+1048698541+1048858532+1049741363+1050971034
1924+1051762104+1051507857+1050428649+1049433913+1049200640+1049521135
1915+1049646340+1049117128+1048109411+1047235340+1046898156+1046797506
1907+1046411723+1045711264+1044943215+1044144472+1043264775+1042334368
1898+1041255480+1039825787+1038084808+1036349648+1035025977+1034622609
1890+1035565101+1037572989+1039683828+1041105848+1041563697+1041180664
1881+1040489350+1040223528+1040784330+1041990917+1043392154+1044659297
1873+1045739528+1046802685+1047961505+1048917298+1049280380+1049341001
1864+1049753193+1050551232+1051087223+1050977621+1050603220+1050428841
1856+1050438497+1050472132+1050534926+1050522777+1050074711+1048990707
1847+1047623937+1046684067+1046621912+1047113588+1047459022+1047389641
1839+1047074326+1046805435+1046740786+1046714824+1046392475+1045557283
1830+1044159755+1042312691+1040343938+1038694656+1037733684+1037600613
1822+1038227087+1039477221+1041111859+1042721878+1043864839+1044314120
1813+1044187955+1043864903+1043773397+1044187508+1045093935+1046179153
1805+1047058403+1047598742+1047927614+1048109347+1048000640+1047462858
1796+1046561611+1045581902+1044945453+1044879270+1045072257+1045131151
1788+1045129808+1045371842+1045962570+1046671533+1047116082+1046955707
1779+1046023702+1044476861+1042743619+1041300817+1040526949+1040540826
1771+1041172415+1042332322+1043903718+1045274708+1045827325+1045721112
1762+1045560928+1045476265+1045155770+1044714226+1044666012+1045213832
1754+1046181199+1047441501+1048814090+1049794182+1050058980+1049892786
1745+1049716552+1049693148+1049830311+1050120368+1050367070+1050177343
1737+1049411852+1048319664+1047278951+1046461217+1045810380+1045315570
1728+1044922241+1044485621+1044037811+1043838174+1044043055+1044600467
1720+1045572758+1047170628+1049154983+1050732710+1051630888+1052156264
1711+1052538530+1052865994+1053276652+1053888610+1054481257+1054631145
1703+1054394035+1054402604+1055057981+1055726787+1055759335+1055305770
1694+1054663054+1054005311+1053538061+1053356904+1053220636+1052847450
1686+1052355646+1052058363+1051918450+1051758395+1051650263+1051599874
1677+1051436877+1050960356+1050070363+1048840180+1047525205+1046556176
1669+1046255312+1046403921+1046740722+1047436577+1048602494+1049780945
1660+1050436003+1050544007+1050308432+1050103806+1050889824+1053456275
1652+1055862287+1056512676+1056472966+1056843530+1057689785+1058317537
1643+1058586620+1058823602+1059075739+1059228632+1059556608+1060642978
1635+1062166798+1063014396+1063121121+1063125469+1063357335+1063584150
1626+1063446283+1063038567+1062703812+1062416506+1061868621+1060994039
1618+1059905687+1058603693+1056998598+1055142581+1053261625+1051668296
1609+1050584420+1050048174+1050048365+1050423917+1050584932+1049692253
1601+1047222743+1043167961+1037664431+1030574093+1021423945+1009411853
1592+992933362+969459941+937370572+898843493+860527881+830669121+814959511
1582+813909207+823081160+836762996+852366905+870292482+888479211+902396111
1572+912181621+921899414+934842871+950128971+964774081+977434452+987364863
1562+994121533+998882145+1003939720+1008746628+1009159205+1004508707+995996542
1553+984466855+970843209+956661384+944216062+935192525+929959932+928561380
1543+931333161+939240273+951570366+962416540+968472687+972081897+976012369
1533+980899401+985304093+988281905+990192020+991591339+992883357+994671720
1523+997806582+1002312436+1006578366+1009468253+1011541813+1013418356
1514+1014990583+1016077017+1016743840+1017144650+1017646878+1018800710
1506+1020159807+1020626033+1020443341+1020283350+1020373065+1020637352
1497+1021014950+1021454831+1021931800+1022741222+1024369209+1026779570
1489+1028782469+1029063382+1027649995+1025013460+1020070859+1008680956
1480+984873036+946560494+901526772+867145405+860869158+885538359+922994544
1470+952547389+970601879+981779419+987697124+986381958+977338918+964386700
1460+952508254+946526923+950992363+963109453+972881791+977347295+978111507
1451+974176687+961831503+939540497+913201040+892800902+883965813+885505875
1441+891512337+892623006+874659062+827020329+765782506+721894495+709853436
1431+727945782+763026776+797838752+824936154+846506559+864954250+880248663
1421+892997470+904855581+915690117+924006417+930154006+935519862+940678535
1411+945400204+949290902+952178231+954247571+955780024+956807883+957414406
1401+958064411+959129423+960340870+961107896+961105722+960151400+958022527
1391+954606305+949937838+944412374+939132077+935173342+932193419+928628651
1381+923302953+916874707+911628621+909485041+910397671+912651429+914801084
1371+917314204+921763210+928818121+937497376+946471546+955292439+963698455
1361+970839437+976123698+979853637+982535254+984354503+985385048+985923213
1351+986428830+987268306+988636675+990547877+992750734+994814702+996451770
1341+997704717+998824850+999965381+1000933835+1001306062+1000668526+998586461
1332+994646206+989011587+982909399+978113361+975806593+976109246+978535593
1322+982495352+987291454+992005130+995735197+997800316+997335304+993033821
1312+984205829+972433341+961633144+955827407+956423443+961641393+968626668
1302+975695711+982540242+989106994+994974821+999682551+1003133112+1005460343
1292+1006703059+1006829160+1006001386+1004600724+1002956878+1001243459
1283+999722325+998868972+999037021+999948628+1000397845+998479672+992847931
1273+984476766+976769228+973086736+974269088+978875016+985001375+991186884
1264+996409758+1000199997+1002665415+1004124011+1004841351+1005110114
1255+1005296259+1005646872+1006111500+1006506875+1006878334+1007512737
1247+1008549421+1009762210+1010728043+1011076993+1010712632+1009973806
1238+1009463393+1009593075+1010349997+1011454527+1012625049+1013728812
1230+1014750724+1015624859+1016195764+1016394634+1016352110+1016279213
1221+1016296350+1016383060+1016475589+1016609811+1016890084+1017293132
1213+1017645407+1017821833+1017840377+1017740942+1017465849+1016863546
1204+1015741559+1013905429+1011231613+1007841480+1004194351+1000855119
1196+998171903+996292034+995335602+995270122+995567980+995130337+992799652
1186+988382108+983285207+979668835+978571403+979081048+979676125+980205913
1176+982090769+986535938+993018985+999790043+1005458936+1009750125+1013039863
1166+1015648454+1017363792+1016883369+1011837497+1000972970+987300726+977474674
1156+976211048+982121335+990216256+997071785+1002224766+1006255505+1009517747
1146+1012226733+1014551534+1016546952+1018233386+1019653231+1020848116
1137+1021845346+1022634944+1023124766+1023058903+1021956803+1019150428
1129+1013830549+1005221763+993344532+980068110+969068787+963972013+965957072
1119+973006932+981569486+988963756+994321235+997890863+1000112008+1001255673
1109+1001474175+1000966959+999965637+998462215+995974992+991468052+983500063
1099+971215628+955719212+939575220+924089162+908249359+891927023+879286411
1089+876790939+887338616+907491477+930568501+951314584+967669468+979770764
1079+988465748+994432948+997693591+997160797+990715030+976874290+957626449
1069+939383511+929623642+931632170+942689300+957198782+970762830+981549087
1060+989476598+995187248+999386355+1002513288+1004749781+1006124417+1006615582
1050+1006348034+1005625770+1004674965+1003433336+1001599508+998902352+995460487
1040+991823397+988601441+986276128+985313749+985849036+986466621+982954161
1030+969690401+945409412+918553339+903549751+908796221+929471900+953424337
1020+971980543+983831429+991465750+997154914+1001905615+1005869594+1008680956
1010+1009438007+1006335437+996976378+980650589+960823275+943989631+934736658
1000+931863844+929904491+924996804+919228348+918261940+924148951+931396339
990+931185766+919844718+903489322+894102576+899817702+918363677+940051613
980+956280269+964527188+967019462+967063329+966766494+966915487+968004287
970+970680852+975051780+980229828+985029319+988843602+991742634+994045822
960+995954978+997505591+998790703+1000110474+1001752657+1003657401+1005472493
950+1006969648+1008276118+1009633936+1011078720+1012475544+1013723888
942+1014766135+1015492491+1015880960+1016202990+1016807338+1017642658
933+1018270155+1018408085+1018102362+1017318134+1015911526+1014228545
925+1013064290+1012472923+1011220551+1008322734+1004767110+1002648597
916+1002778214+1004259639+1006260365+1008880978+1012186447+1015611750
908+1018595573+1020954585+1022561535+1023250803+1022769997+1020382785
899+1015426500+1009185614+1005212299+1006362550+1011944094+1018705943
891+1024010795+1027263125+1029077514+1030210180+1031176396+1032196006
882+1033236015+1034157661+1034906463+1035576419+1036234610+1036761393
874+1037014105+1037021011+1036800719+1035952611+1033282632+1026880795
866+1015587195+1001433122+989855283+985779336+989353056+996546345+1003402706
856+1008323437+1011079487+1011917620+1011947866+1012838435+1015397724
847+1018955394+1022337086+1024932121+1026475445+1026032814+1020747274
839+1004700607+971503574+922966216+873889478+840625558+824486426+814848438
829+808457024+814789672+840475222+878420078+915533259+944246436+964258809
819+978273097+988739755+996922025+1003376872+1008602815+1013020424+1016860605
809+1020308161+1023485675+1026432857+1029210456+1031817385+1034155231
800+1036213188+1038077518+1039887367+1041903631+1044260214+1046665075
792+1048699755+1050232400+1051395441+1052479444+1053803115+1055483538
783+1057476015+1059704834+1061950855+1063963730+1065796727+1067666428
775+1069574689+1071290218+1072470587+1072826891+1072453130+1070898999
766+1066760513+1056345651+1033736069+995727523+950352205+916588040+907797712
756+914561352+909295187+871084446+805970761+742533150+706967513+701345108
747+705584564+699055477+678642549+658723601+657825998+684252805+731032238
737+783262127+829473469+865998032+893752602+914515951+929883197+941165351
727+949574052+956556769+962408483+964352873+959627047+952592662+954219562
717+970440417+994912858+1015959293+1026743696+1026368400+1014475247+988412993
707+945381979+886659132+819594854+754216562+698071676+655078006+626156942
697+608651104+598444640+595169801+602741008+622929423+650919568+679351001
687+705018072+729393635+753999531+777700726+798142493+814164477+826343147
677+835961632+844115574+851438800+858029851+863833926+869553464+876751165
667+885301378+892804483+899053425+905568317+912960733+920513524+927439777
657+933776453+940000521+946387202+952695358+958329146+962798230+966021593
647+968379007+970439586+972468767+974441421+976510696+978885375+981308972
637+983343397+985070820+986927476+988977120+990871633+992515926+994317270
628+996591235+998971797+1000469527+999746176+995651237+988830749+982974687
618+982602461+988501494+996858591+1003687007+1008187106+1011508625+1014392310
608+1016836625+1018853018+1020663889+1022427761+1024049993+1025284269
599+1026148556+1027094117+1028428531+1029783536+1030524152+1030555869
591+1030456114+1030899960+1032142612+1033957768+1035804385+1037084957
582+1037577657+1037776399+1038539972+1040185545+1042173865+1043819501
574+1044961056+1045514568+1044513821+1040519532+1033959430+1028389397
565+1027304754+1028899234+1024853084+1005741128+969947589+928939682+901725834
555+899952755+917832226+939113597+952985863+960467034+967913676+979175751
545+993842219+1009409423+1023629808+1035582558+1045286474+1052863245+1058395359
535+1062321163+1065514088+1068622988+1071349176+1072826891+1073160303
527+1071514283+1067329883+1059008596+1041595542+1006704722+952526350+897653020
517+873739398+893267128+935142776+967491636+972314531+949351074+909054113
507+864970684+825002658+786366168+743269738+699202807+665587507+648184748
497+641872819+638482814+636291979+641754840+661800145+695484442+735054791
487+773168591+806494666+834893359+859703368+882104552+902335810+920223275
477+935877701+949887129+963107726+975960573+987865940+998033972+1006476437
467+1013358695+1018019169+1019129262+1015179414+1003916316+980264743+935550108
458+865041088+779502326+699506292+641656812+616417920+625103888+657747665
448+700985479+744814340+783661530+815960385+842102762+862698190+879142534
438+893544715+906564396+915333430+914485896+900701428+876783778+850834835
428+830102884+816268219+807566712+803529898+806654274+821345872+849776730
418+883593074+910599547+929636687+944442045+956178020+964460812+969013538
408+968929641+963443760+954836700+948429237+948395601+954235293+960448426
398+959978171+953425104+950654283+958121771+973882026+991976163+1007149207
388+1017309886+1023155204+1026290387+1028133231+1030117651+1033470887
380+1038635059+1045954321+1056070749+1067050250+1072826891
##END=
