##TITLE=CML-58
##JCAMP-DX=4.24
##DATA TYPE=INFRARED SPECTRUM
##DATE=28/1/2021
##SAMPLING PROCEDURE=Diamant-ATR
##ORIGIN=Angelika Moesle
##XUNITS=1/CM
##YUNITS=TRANSMITTANCE
##RESOLUTION=4
##FIRSTX=3997.453
##LASTX=373.96442
##DELTAX=-1.4165319
##MAXY=0.91336721
##MINY=0.24638338
##XFACTOR=1
##YFACTOR=8.506395e-010
##NPOINTS=2559
##FIRSTY=0.8710705
##XYDATA=(X++(Y..Y))
3997+1024018400+1024196659+1024456971+1024556541+1024485630+1024470705
3989+1024718404+1025241129+1025919480+1026567561+1026911887+1026696070
3980+1025983945+1025269717+1025072890+1025401660+1025783894+1025811221
3972+1025416305+1024718964+1023969982+1023573103+1023791863+1024451505
3963+1025076603+1025244282+1024866532+1024255519+1023794105+1023504434
3955+1023096274+1022412527+1021629280+1021056595+1020872029+1020946865
3946+1020949177+1020757675+1020673240+1021140189+1022267692+1023688509
3938+1024831918+1025269858+1025043180+1024713429+1024886362+1025528277
3929+1025975326+1025792723+1025201959+1024663538+1024401125+1024401685
3921+1024666762+1025199857+1025818579+1026203475+1026214547+1026095847
3912+1026280903+1026896612+1027434752+1027203450+1026139711+1024875011
3904+1024032695+1023713734+1023830542+1024422987+1025238606+1025751451
3895+1025803864+1025722863+1025895936+1026299962+1026489363+1026391474
3887+1026549063+1027239887+1027792252+1027689528+1027615044+1028140221
3878+1028540183+1028129360+1027389067+1027001577+1027002838+1027214101
3870+1027599698+1027769058+1027442670+1027204571+1027652111+1028361784
3861+1028594698+1028550343+1028726150+1029023248+1029168364+1029562160
3853+1030917882+1032312002+1032238568+1030748521+1028722646+1027175142
3844+1026717091+1026996953+1027110326+1026824439+1026723748+1027041237
3836+1027224261+1027043269+1026983009+1027475043+1028323315+1028926481
3827+1028896981+1028245747+1027220687+1026246218+1025938329+1026523487
3819+1027289777+1027776976+1028234676+1028652296+1028644868+1028169651
3810+1027506364+1027032058+1027178785+1027841581+1028122914+1027586525
3802+1026845601+1026658302+1026916091+1027263290+1027864214+1028818993
3793+1029733622+1030193774+1030162523+1029768026+1029052257+1028166918
3785+1027561089+1027504963+1027720359+1027929169+1028238039+1028715569
3776+1029172428+1029525863+1029851340+1030182142+1030412534+1030308690
3768+1029852041+1029526494+1029763682+1030364396+1030921525+1031379645
3759+1031707084+1031586143+1030935890+1030197418+1029893593+1030331252
3751+1031283439+1031834052+1031556994+1031053538+1030978352+1031385531
3742+1031667355+1031450767+1030887401+1030172052+1029419286+1028842607
3734+1028790965+1029253219+1029642530+1029487465+1028987232+1028805469
3725+1029399246+1030463055+1031234039+1031228293+1030497109+1029531048
3717+1028848703+1028577110+1028689503+1029580168+1031673030+1034060188
3708+1035238422+1035082726+1034382722+1033737234+1033346381+1033188793
3700+1033119493+1032935418+1032479751+1031772740+1031022497+1030399501
3691+1029952171+1029860589+1030399010+1031347343+1032130940+1032461743
3683+1032351592+1031913862+1031233689+1030411693+1029960159+1030781665
3674+1032504696+1033284299+1032783296+1032201851+1032273183+1032482203
3666+1032369390+1032074464+1031693911+1031168173+1030640263+1030527239
3657+1031079043+1031830478+1031916735+1031239154+1030365447+1029638747
3649+1029099415+1029063819+1029854353+1031126061+1032242282+1032715397
3640+1032428319+1031777295+1031374811+1031503600+1031927456+1032151541
3632+1031888637+1031379225+1031288274+1032000539+1032979703+1033555611
3623+1033430536+1032560612+1031396673+1030833657+1031167262+1031563790
3615+1031302358+1030595348+1030192443+1030541884+1031357153+1032060800
3606+1032514225+1033044518+1033736393+1034217987+1034151000+1033633249
3598+1033018172+1032655207+1032853786+1033468864+1033723991+1033201195
3589+1032510091+1032585977+1033457022+1034246576+1034561822+1034613184
3581+1034573384+1034532253+1034598399+1034810782+1035130724+1035489274
3572+1035705371+1035509454+1034820943+1033932730+1033266641+1032825198
3564+1032389850+1032217757+1032745177+1033816764+1034720672+1035066259
3555+1035070113+1034912525+1034412923+1033516092+1032647639+1032360070
3547+1032904517+1034011770+1034918761+1034995208+1034344744+1033599265
3538+1033272107+1033347152+1033418764+1033242677+1033023147+1033059233
3530+1033335661+1033624140+1033787264+1033799597+1033682789+1033609916
3521+1033805763+1034228497+1034586978+1034686057+1034562803+1034335075
3513+1034127176+1034126545+1034446276+1034823255+1034768250+1034225695
3504+1033749777+1033832039+1034331921+1034834466+1035230364+1035573709
3496+1035788264+1035838295+1035893230+1036025943+1035948656+1035337642
3488+1034371301+1033691268+1033726864+1034238518+1034619350+1034565606
3479+1034332692+1034350770+1034785907+1035468814+1036045283+1036225854
3471+1036018025+1035714901+1035608954+1035766473+1036030988+1036118716
3462+1035831778+1035368823+1035229663+1035600896+1036089567+1036269087
3454+1036195443+1036149968+1036181219+1036178276+1036082490+1035786232
3445+1035179983+1034552853+1034547598+1035453959+1036826497+1037952459
3437+1038436995+1038305894+1037836632+1037292956+1036733444+1036159427
3428+1035709225+1035443868+1035149012+1034708550+1034413413+1034511372
3420+1034724946+1034639320+1034301090+1034038256+1033947165+1033915353
3411+1033962720+1034257296+1034839722+1035509244+1035970588+1036044512
3403+1035807744+1035558434+1035559485+1035756803+1035805292+1035504760
3394+1035167301+1035330074+1036100708+1037031243+1037673018+1037982309
3386+1038138636+1038202189+1038062960+1037626351+1036978480+1036416656
3377+1036286395+1036624064+1036963065+1036756427+1036047104+1035437282
3369+1035379123+1035812088+1036437046+1036976588+1037225058+1037171804
3360+1037047850+1037090102+1037308862+1037522647+1037567001+1037478292
3352+1037426931+1037441645+1037358682+1037085057+1036730781+1036474184
3343+1036459749+1036698899+1036974416+1037076439+1037123246+1037346420
3335+1037662788+1037825001+1037854290+1037991418+1038331539+1038724564
3326+1038959931+1038912423+1038520309+1037771467+1036884376+1036367747
3318+1036598068+1037397922+1038232810+1038675935+1038607547+1038253341
3309+1038047404+1038175142+1038340649+1038183691+1037728233+1037301925
3301+1037222045+1037548713+1037952529+1037941037+1037418102+1036896988
3292+1036954376+1037539394+1038064641+1038212700+1038277445+1038550159
3284+1038820911+1038781882+1038514213+1038286204+1038193150+1038197355
3275+1038290688+1038503422+1038826166+1039144776+1039284637+1039151713
3267+1038806547+1038446735+1038333081+1038580429+1038985506+1039191513
3258+1039017318+1038584423+1038260488+1038443652+1039171123+1040005451
3250+1040493842+1040597476+1040554102+1040552631+1040639448+1040772161
3241+1040895976+1041016987+1041200712+1041505028+1041923558+1042333400
3233+1042508926+1042288204+1041765619+1041294957+1041285007+1041902887
3224+1042878617+1043642735+1043767390+1043305626+1042684943+1042290096
3216+1042174410+1042178334+1042245321+1042489867+1042942031+1043406248
3207+1043670973+1043695008+1043530342+1043192393+1042551319+1041133234
3199+1037855691+1030767651+1017334806+996395460+971056184+948880236+937356949
3189+938647716+949223370+963834939+978660573+991596199+1001688648+1009047230
3179+1014540188+1018964994+1022543629+1025242040+1027202819+1028646059
3170+1029608686+1030055525+1030159229+1030320952+1030897771+1031875253
3162+1032833116+1033384149+1033610266+1033853901+1034207056+1034515646
3153+1034745267+1034975448+1035125188+1035029402+1034818770+1034941183
3145+1035656532+1036669119+1037428823+1037675610+1037522577+1037187570
3136+1036880452+1036806177+1037025287+1037344318+1037438773+1037099211
3128+1036413993+1035695071+1035064718+1034208527+1032791564+1030968823
3119+1029133049+1027362370+1025479508+1023445224+1021309759+1018974173
3111+1016422700+1014107644+1012759840+1012828018+1014241338+1016640548
3102+1019628140+1022803730+1025754815+1028169791+1029926666+1031010585
3094+1031439766+1031368434+1031137482+1031027261+1030975830+1030657430
3085+1029838097+1028672686+1027663883+1027252639+1027433001+1027923844
3077+1028581034+1029278795+1029543801+1028804559+1026984620+1024520595
3068+1021954547+1019784607+1018346132+1017227738+1014816266+1009041134
3060+999194001+987268301+977238845+972417231+973156474+977050986+981111215
3050+983624570+984510260+984647738+984953735+985692698+986378197+986335384
3040+985348022+983614550+981114438+977380668+972124827+965830404+959590285
3030+954681574+952438971+953999579+959571646+967938332+976888633+984142040
3020+988002709+987638062+983163998+975727146+967572074+961559824+959839175
3010+962561620+967915559+973455744+977453961+979368985+979596363+979057943
3000+978889914+980132892+983306451+988111528+993643445+999050848+1003978688
2990+1008354094+1011995232+1014713402+1016631860+1018006991+1018793461
2982+1018747075+1017925219+1016732130+1015417470+1013724569+1011066238
2973+1006916950+1000897623+992347563+979754652+960761231+933208151+897129817
2963+856598578+819134532+791343703+773703131+760252488+744879464+728417757
2953+718987122+724869672+747225631+779494028+812709567+840650977+860772812
2944+872279702+874516699+866697264+848332094+819961923+784276193+746983188
2934+715771802+696861205+691691341+696916560+707393696+719136022+730422471
2924+741298377+752337336+763614956+774569061+784486754+792924210+799897686
2914+805973840+812092177+819034541+826921665+835186818+843014592+849905104
2904+855963110+861663617+867266866+872560754+877283569+881624780+886082168
2894+890948627+896161584+901522740+906811793+911715950+915860544+918994302
2884+921059907+922017419+921575065+919002080+912972733+901633031+883695781
2874+860683542+838200195+823686515+821589658+830329468+843974276+856519189
2864+864577985+867347867+865638640+861068229+855185749+848802967+842388373
2854+837122092+834991111+837508881+844632657+855069993+867212071+879580546
2844+890927816+900509942+908315994+914867927+920738494+926219120+931372797
2834+936287815+941116646+945835327+950137088+953692670+956489740+958844035
2825+961078160+963256648+965257789+967020480+968628175+970177361+971641692
2815+972911648+973973144+974979776+976110642+977447375+979004339+980711954
2805+982349359+983698845+984791803+985826602+986896998+987958214+988964775
2795+989889214+990691099+991384936+992083048+992918217+993918682+994935894
2785+995715287+996116159+996243547+996279143+996265479+996199613+996246210
2775+996635101+997370700+998218061+998965852+999578618+1000129371+1000706891
2765+1001363030+1002057078+1002664658+1003097763+1003407895+1003747806
2757+1004236898+1004845249+1005395582+1005738576+1005935194+1006162432
2748+1006415596+1006442503+1006024674+1005211507+1004237178+1003293400
2740+1002382204+1001365693+1000201474+999092259+998296189+997864696+997697368
2730+997773184+998200053+999103190+1000508522+1002277729+1004157157+1005944303
2720+1007569375+1009026419+1010306325+1011385409+1012203831+1012687387
2711+1012856747+1012844135+1012734614+1012455454+1011945061+1011381765
2703+1011075908+1011108911+1011285068+1011472296+1011742067+1012118766
2694+1012485654+1012817928+1013244657+1013840886+1014544112+1015201513
2686+1015570994+1015495248+1015199621+1015110561+1015296949+1015415438
2677+1015254346+1014996697+1014910510+1015055066+1015297439+1015439192
2669+1015336538+1015001602+1014548807+1014046823+1013523467+1013082934
2660+1012843364+1012742532+1012556566+1012159897+1011678584+1011326480
2652+1011147450+1010990843+1010758349+1010569509+1010616667+1010961483
2643+1011560024+1012312230+1012990161+1013368191+1013572937+1014044791
2635+1014989970+1016125391+1017107077+1017948132+1018843071+1019809272
2626+1020718715+1021553184+1022398933+1023185544+1023620961+1023504574
2618+1023023190+1022598354+1022466341+1022534239+1022590155+1022505230
2609+1022252837+1021864506+1021343043+1020633159+1019797080+1019147317
2601+1018980619+1019240230+1019597939+1019756649+1019612444+1019308969
2592+1019160280+1019366777+1019836039+1020364229+1020843651+1021233312
2584+1021518639+1021747699+1021951184+1022048161+1022006539+1022017891
2575+1022270845+1022595130+1022607253+1022238192+1021874737+1021920353
2567+1022387722+1022963771+1023368077+1023600921+1023826758+1024119722
2558+1024492917+1025054391+1025805406+1026384187+1026440383+1026212515
2550+1026322945+1027006973+1027922582+1028729443+1029472259+1030302523
2541+1031160535+1031890178+1032442333+1032824847+1033005769+1032955669
2533+1032745037+1032568390+1032609871+1032809852+1032914397+1032848811
2524+1032804527+1032831924+1032669992+1032207387+1031804202+1031877916
2516+1032359580+1032813496+1032959102+1032900453+1032980754+1033516722
2507+1034456086+1035241295+1035332036+1034893466+1034622573+1034941254
2499+1035677763+1036378397+1036639690+1036350369+1035846073+1035619605
2490+1035773480+1035960988+1035848245+1035435810+1034981334+1034770702
2482+1034911824+1035243958+1035422077+1035105989+1034180920+1032931144
2473+1031885484+1031364230+1031323099+1031661328+1032326086+1033055519
2465+1033420235+1033202667+1032460621+1031317563+1029983423+1028772747
2456+1027807106+1026912167+1025992564+1025241479+1024856722+1024872068
2448+1025411260+1026779734+1029044550+1031763631+1034387697+1036723074
2439+1038699899+1039953459+1040131858+1039543827+1039006457+1038935196
2431+1038931903+1038443862+1037526080+1036678228+1036156274+1035821828
2422+1035581347+1035568944+1035811248+1035997985+1035762829+1035084898
2414+1034301301+1033803521+1033775492+1034098377+1034407878+1034372142
2405+1034038607+1033830988+1034132711+1034900052+1035671317+1035978926
2397+1035818395+1035597042+1035550586+1035512047+1035438473+1035706072
2388+1036511041+1037389443+1037785481+1037808604+1037999406+1038539438
2380+1039074075+1039246238+1039112754+1039045697+1039409222+1040267164
2371+1041175557+1041378480+1040548006+1039267680+1038425153+1038141789
2363+1037577792+1035915933+1033457793+1031542699+1031181136+1032023312
2354+1033042556+1033771919+1034297447+1034625516+1034688650+1034594405
2346+1034578289+1034800762+1035249773+1035802699+1036381621+1037079662
2337+1037954491+1038693803+1038883414+1038567256+1038158115+1037913990
2329+1037819745+1037829695+1037994781+1038390048+1038927348+1039282044
2320+1039276929+1039270833+1039809815+1041021962+1042581169+1044032327
2312+1045024593+1045412433+1045256386+1044727425+1044050194+1043491523
2303+1043270591+1043440372+1043838021+1044141706+1044088523+1043715608
2295+1043326437+1043214535+1043445557+1043802496+1043886650+1043410171
2286+1042480828+1041543987+1041013624+1040937738+1040993023+1040844824
2278+1040492020+1040146713+1039895230+1039692867+1039540604+1039509142
2269+1039771416+1040570849+1041846481+1043031651+1043621013+1043756249
2261+1043925820+1044352128+1044928947+1045487689+1045875458+1045892766
2252+1045383494+1044457163+1043403795+1042217573+1040609878+1038867578
2244+1038060017+1038717417+1039913168+1040348446+1039769034+1038789309
2235+1038001998+1037692147+1037915461+1038629128+1039912257+1041755039
2227+1043499091+1044127832+1043406948+1042271247+1041914379+1042808127
2218+1044582169+1046632849+1048822269+1051367435+1053834544+1054904659
2210+1053931171+1052250322+1051896327+1053192909+1054526629+1054462515
2201+1053260597+1052262725+1052490594+1053946306+1055671019+1056313845
2193+1055137923+1052815230+1050991298+1050784450+1051915946+1053381048
2184+1054371984+1054298480+1052940235+1051213000+1050610115+1051284963
2176+1051898008+1051780290+1051702932+1052091753+1052230282+1051693053
2167+1051172359+1051474643+1052533267+1053748918+1054993088+1056934528
2159+1059918616+1062635385+1063051814+1060561862+1056496728+1053144280
2150+1052154326+1053246513+1054816721+1055966296+1057032136+1058178908
2142+1058945899+1059348593+1059996955+1060860783+1061072675+1060318578
2133+1059586833+1059966965+1061186119+1061914291+1061324929+1059862700
2125+1058546147+1058058387+1058491422+1059325330+1059615281+1058808911
2116+1057367633+1056102933+1055187743+1054390973+1053895996+1054153574
2108+1055161887+1056525948+1057993362+1059420696+1060482262+1060905698
2099+1060871153+1060834436+1061009332+1061218842+1061205879+1060917119
2091+1060530331+1060412192+1060940523+1061983520+1062653604+1062109717
2082+1060566907+1059027671+1058211211+1058344204+1059628174+1061995012
2074+1064549078+1066102959+1066398586+1066257885+1066487155+1067133134
2065+1067835029+1068331898+1068405892+1067857732+1066867357+1065943339
2057+1065326299+1064934745+1064949460+1065792547+1067537860+1069821314
2048+1072023136+1073133892+1072145129+1069192783+1065643788+1062795216
2040+1061296761+1061782909+1064690270+1069030430+1072534931+1073741823
2031+1073249999+1072584400+1072617193+1073104323+1073137746+1072274899
2023+1071409250+1071809702+1073177686+1073725917+1072447973+1070295971
2014+1068728987+1068133879+1068006772+1067825920+1067500653+1067214976
2006+1066967067+1066612721+1066419257+1066862942+1067623767+1067709603
1997+1067085906+1067145606+1068721700+1070589636+1071050559+1070321407
1989+1069821945+1069902106+1069767150+1068678046+1066293550+1062853374
1980+1059711278+1058597929+1059572258+1060585756+1059859547+1057864432
1972+1056483695+1057033187+1059217562+1061337471+1061516922+1059198503
1963+1055113539+1049806898+1043241442+1036079337+1030129239+1027061698
1955+1027454162+1030841925+1035867724+1040763473+1044522959+1047314564
1946+1049539439+1051259807+1052602566+1053824174+1054991196+1056294155
1938+1058297187+1061181985+1064061738+1065708603+1065984120+1065993789
1929+1066775495+1068297774+1069775418+1070504921+1070329885+1069696729
1921+1069228589+1069094825+1068931561+1068338765+1067417760+1066745645
1912+1066843603+1067672255+1068597745+1068922311+1068469096+1067741415
1904+1067504437+1068020716+1068833462+1069465847+1069859433+1069973367
1895+1069690493+1069294175+1069300832+1069763506+1070315871+1070801809
1887+1071379680+1072027761+1072405090+1072217091+1071513374+1070568265
1878+1069592184+1068618346+1067600854+1066505093+1065276198+1063869325
1870+1062447877+1061420575+1061032385+1061145549+1061550556+1062029767
1861+1062189317+1061551817+1059730197+1056505067+1051992814+1046713710
1853+1041246258+1035950127+1031303269+1028222694+1027630599+1029947687
1844+1034749891+1040285663+1044623300+1047371041+1049184603+1050696021
1836+1052114526+1053385533+1054626409+1056191011+1058167136+1060106265
1827+1061673529+1063004166+1064211409+1065274587+1066315623+1067479141
1819+1068674052+1069633245+1070168023+1070341237+1070378304+1070421607
1810+1070444240+1070401077+1070314049+1070216722+1070165921+1070228073
1802+1070367863+1070438284+1070338084+1070093678+1069815779+1069688531
1793+1069913667+1070443540+1070868937+1070913432+1070622780+1069997612
1785+1068955945+1067666019+1066547485+1065878173+1065677702+1065880275
1776+1066380087+1067022983+1067699303+1068279556+1068438055+1067873918
1768+1066603121+1064921152+1063178991+1061549294+1060095824+1058996490
1759+1058440621+1058383304+1058566468+1058729241+1058808631+1058800923
1751+1058454775+1057394961+1055695754+1053781571+1051848539+1049890982
1742+1048089753+1046904862+1046641328+1047078777+1047996349+1049759110
1734+1052586380+1055279045+1056759703+1057434901+1057865413+1058177787
1725+1058371392+1058508309+1058630092+1058767500+1059086040+1059850227
1717+1060992725+1061950938+1062488378+1062860872+1063302736+1063856923
1708+1064455184+1065023805+1065490614+1065821836+1066201408+1066951511
1700+1067925350+1068424811+1068503851+1068802141+1069350862+1069816059
1691+1070185821+1070499876+1070602039+1070428685+1070090665+1069562685
1683+1068738236+1067755079+1066757486+1065772647+1064767908+1063626741
1674+1062270739+1060811593+1059414319+1058185215+1057152938+1056243214
1666+1055440137+1054758352+1053916246+1052217179+1049047195+1044374340
1657+1038724774+1032779582+1027080827+1022930838+1021854346+1022756082
1649+1024787493+1028588041+1034042811+1039179321+1043058979+1046183558
1640+1048829486+1051001318+1053092008+1055838347+1059050654+1061526591
1632+1063041023+1064216664+1065531815+1066884314+1067764748+1067863898
1623+1067173775+1065804739+1063910316+1061319533+1056974048+1048900397
1615+1036158306+1020456652+1005628215+997261880+999389988+1009678214+1021455085
1605+1030282904+1035849856+1039542356+1042343630+1044472088+1045829772
1596+1046293778+1045857170+1044841009+1043858552+1043509391+1044215000
1588+1046081745+1048702238+1051263101+1052907302+1052991177+1051282090
1579+1047903786+1042608987+1034110219+1021370300+1004762986+983124127+954107137
1570+921514804+897385013+886628857+882312941+877200255+869514514+862202598
1560+863231792+880691022+905471347+928564446+950578812+970806873+987662727
1550+1001068034+1011366981+1019065404+1025304683+1031000074+1036213101
1541+1040779869+1044511328+1047057546+1048854781+1050881988+1053844564
1533+1057285931+1059829136+1061212116+1062136274+1062976348+1063707883
1524+1064274612+1064535764+1064284422+1063345759+1061284779+1057595152
1516+1052201133+1045220020+1036763154+1027548757+1018928277+1012065232
1507+1007504420+1004287068+1000165738+993717370+982958972+962796006+922663958
1497+852018217+762000674+685249910+641727086+633820904+658733101+705000722
1487+753270184+793698488+827880718+859471395+889650223+916407373+937347139
1477+952437639+962856056+968490486+966220976+951723272+926562325+897682742
1468+871625665+855461897+856046774+871238806+890029093+903706554+906672633
1458+893025794+866294569+841701893+823002768+802769241+771643972+722210851
1448+656099575+588680575+537312951+507266345+493062481+485070637+474698012
1438+458883825+443967555+440136876+447261284+458039687+466695518+471110127
1428+474309927+482771137+501592360+530408880+564500789+601978815+644520092
1418+688145429+724399780+752557778+776692053+798735218+818458843+835328921
1408+849585233+862536974+875264280+887007237+896392045+903588415+909985562
1398+917013062+925391098+933602718+935757312+924420133+897641471+860921571
1388+825802220+804662963+798961896+798277168+792325599+775567774+746071081
1378+707746290+672540121+656086402+667159346+699352487+738654831+776693455
1368+810503541+837925800+858036773+871075682+875898347+870342816+855062355
1358+835194316+818850186+813784167+822591314+840940368+861623116+879581948
1349+893527778+904645357+914467474+923683202+932252321+940009814+946994291
1339+953288154+958850202+963745670+968151205+971989732+974899265+976521745
1329+976703928+975610199+973386655+969299869+961523527+947776767+925670329
1319+893224023+850359160+800131091+749875273+712210755+700537728+718910816
1309+758148064+803307031+843493243+875299315+899759348+918402347+931945273
1299+940408515+943055704+938988118+929143087+917718180+910514313+910920441
1289+917148297+923505294+924960025+921299268+917336787+918935443+928262723
1279+942543910+956994527+968199484+975050126+978154875+979211957+980221882
1269+982457968+985954831+989847171+993040700+994570897+993400371+988288315
1259+978810804+967069319+957562168+953825103+954483765+952940254+941099759
1249+913884138+873049776+829753279+801536422+801470276+828050289+867086224
1239+903327333+928991876+943173282+947497396+944211375+936496905+927867456
1230+920268602+912957878+902885399+885235157+853427683+800185115+721860219
1220+624966038+528532710+456041069+420737503+417652794+430363283+445433953
1210+460311859+478978928+503103323+528568271+548860166+560800546+568062782
1200+579425257+602213200+636677673+676828850+715918740+750311601+779323197
1190+803504490+823657786+840629045+855217141+868024958+879419455+889551423
1180+898254096+905031515+909315408+910535054+907810577+900165266+887925650
1170+874070771+863317699+858723323+858592081+856357256+843170919+811966260
1160+762553390+705100922+656974124+632827586+636250945+660563830+696101992
1150+735508810+773875434+806862333+829295229+835592245+824409501+804363412
1140+790362717+789828290+796082984+799582089+801535512+811005805+831767453
1130+857881637+880915668+897074111+907591467+915561974+923402851+931933080
1120+940693561+948877783+956042971+962193050+967488550+971985808+975600809
1111+978261803+979974393+980674466+980258949+979029494+977925325+978025455
1101+979853241+983199874+987383356+991595918+995297387+998494769+1001582491
1091+1004798302+1007876984+1010335124+1012009176+1013153145+1014161178
1082+1015463296+1017517549+1020520346+1024158541+1027876686+1031324570
1074+1034416426+1037113506+1039309162+1040773282+1040932552+1038668508
1065+1032761994+1023299268+1013056027+1006846459+1008311000+1016981861
1057+1028908683+1040022058+1048413548+1053965856+1056994859+1057540637
1048+1055474822+1050827613+1043576729+1032773836+1015061933+982071110+919209138
1038+813024463+667870140+516339515+406263972+369916707+401723095+463697626
1028+513451529+532591678+533285760+538548572+556640327+576704003+587489203
1018+592190191+600220748+610563349+611787759+598276715+580342549+576066328
1009+595898106+636728054+688190414+741213662+790852649+834764223+871840361
999+901909739+925416253+943130049+956145064+965680383+972504749+976347830
989+975707316+968340185+951669037+921605265+870970367+791895857+683196217
979+556369190+433743934+339878230+291436693+289644888+319923023+361659052
969+401729332+439232793+478283724+519406602+558877745+593449216+622995168
959+649049512+672608790+693828838+712801448+729791347+745053449+758910009
949+771768487+783811346+794857873+804605996+812928467+819927869+825586824
939+829260895+829825942+826827210+821795595+818295088+819907058+827527073
929+838816955+850417599+860276503+868066019+874311043+879476352+883597472
919+886544983+888376903+889307018+889612385+889684977+890028112+891159679
909+893327447+896074416+897932473+896002945+886212569+866128993+837448270
899+802829501+762541197+720835019+693098635+696019379+729229452+774557429
890+813661193+839769842+853965754+859018670+859060922+859707952+864785954
880+873675224+882844846+889463415+893215614+895702623+899100056+904797129
870+912420157+920326130+927143419+932473253+936498447+939600463+942189704
860+944603419+947153000+950010121+952938152+955508194+957610656+959479083
850+961358932+963381654+965594547+967950174+970328293+972648043+974968424
840+977397414+979913502+982440731+985019462+987665250+990245452+992699037
830+995051860+997173662+998960036+1000602346+1002159731+1003071977+1002429222
820+999277245+991957552+976641004+946483548+893927109+816952470+724801073
810+636872119+574691266+552828988+573597467+626949731+695423921+762241997
800+817595085+858651431+885527771+899511509+904640592+907411175+911951527
790+915268799+907801327+879284499+827659086+767120648+725668194+726066825
781+764433729+809263225+821545654+776181941+673535541+541845594+425934238
771+360782892+350166071+372635579+405837209+441098803+478865904+519048997
761+558748360+595231877+627575880+656064820+681481524+704712172+726356636
751+746619662+765363983+782087474+796108139+806883774+814014418+817132060
741+816216450+812239255+807318281+803354189+799096571+788469695+764785062
731+730164612+699698355+691280939+709876780+744571154+780617397+810398365
721+833484878+851808636+866881409+878861554+884265593+872009581+827160675
711+750305856+671914883+630941571+634686343+654762422+666289212+673909997
701+693934995+728401570+765868770+796888934+819972293+837113544+849512290
691+856011248+853405260+841095364+826868201+823315842+835701345+857033856
681+876641023+889974368+898686781+905327422+910782963+914918027+917674946
671+919547157+921537647+924868163+929309645+932650321+934204482+935117079
662+936585474+938934794+941645187+943976780+945535075+946657533+948003024
652+949629148+951040015+951928368+952425307+952970875+953761830+953603611
642+948679274+931310084+891680302+828044683+758767767+716238681+720265417
632+761278949+813749131+859102614+892648885+916515001+932774906+939780684
622+928356898+883990987+803106350+710763591+650773875+647788245+687603784
612+739327367+784348155+820315218+849374391+872046157+888784293+900761005
602+908890642+913837541+916206551+915262773+906252772+879609556+828573154
592+763809542+715438758+708880800+741190258+788511598+829967905+859255297
582+879170144+893272161+903631648+911403716+917136946+921349578+924841186
572+928059799+930668100+932081419+932191990+931243167+929149464+925854754
562+922600265+921620821+923903784+927962612+930523825+927532309+916574000
552+901165171+890790688+892938346+905765712+921132710+933138782+941029058
543+945871343+947951593+947445194+945769390+945236225+947217816+950995381
533+954673025+956942675+957888415+958476096+959416581+960520820+961361805
523+962184992+963510934+965335076+967211281+968823601+970128942+971013931
513+971304864+971378928+972198471+974074116+975910871+976534217+976263325
503+976351053+977080066+976767622+973032309+964809829+952700474+938177193
493+924184416+916240045+919283202+932256175+948508512+961301334+967627850
483+967796860+962566665+950787412+929882260+900052172+868638424+848333145
473+848797501+867284243+889870454+904924237+909765471+907019482+899325192
463+885082754+857748644+809397480+738410846+661899792+612851848+609139028
453+641834714+691020697+738476782+775408224+802696578+824539972+844010082
443+861918603+876893557+887276518+893984847+900492705+909397601+919100669
433+925539858+927338004+927007692+927599297+929740928+932323933+935011483
424+938610929+943073432+946793820+948087740+947042920+945823835+946711066
414+950618892+955691849+957601267+954031110+947962033+944849016+947211790
404+952574347+956707099+958151179+958812294+960696767+963427900+966586113
394+970491837+973153461+971233882+964898117+959182405+958909481+962981552
384+965892416+966599286+969714686+977445483+986217245+987565679+973131108
374+949191348
##END=
