##TITLE=X9492
##JCAMP-DX=5.0
##DATA TYPE=LINK
##BLOCKS=1


$$ === CHEMSPECTRA SPECTRUM ORIG ===
##TITLE=X9492
##JCAMP-DX=5.00
##DATA TYPE=INFRARED SPECTRUM
##DATA CLASS=XYDATA
##ORIGIN=ComPlat
##OWNER=
##XUNITS=1/CM
##YUNITS=TRANSMITTANCE
##XFACTOR=1
##YFACTOR=8.7033753e-010
##FIRSTX=3997.453
##LASTX=373.96442
##MAXX=3997.453
##MAXY=0.9345178060875171
##MINX=373.96442
##MINY=0.49160236429960646
##NPOINTS=2559
##XYDATA= (X++(Y..Y))
2559I75763901I75663777I75116860I74489678I74100549I74118560I74517689I75033240
2551I75307178I75225476I75005778I74820938I74530905I73985838I73384955I73055749
2543I73009180I73005208I73017261I73296815I73947829I74739031I75338886I75503866
2535I75205136I74804981I74768684I75038856I75190754I75140898I75012421I74445985
2527I72856323I70518330I68863469I69059883I70374307I71049633I70674132I70584143
2519I71758242I73432346I74352230I73945706I72186202I69508594I67113554I66450966
2511I67668210I69332589I70016338I69659123I69472023I70191042I70958891I70667900
2503I69694940I69735346I71619150I74219644I76075095I76765967I76430598I74757042
2495I71087368I65564845I59983220I56659803I56216366I57958954I61257374I65107916
2487I67947284I68702189I67844763I67475152I68766152I69928130I68745677I65399797
2479I62349360I60846535I60417480I61768268I65361651I68717118I68945720I65715374
2471I61242650I57919439I57156590I59082237I61401876I61560692I59968358I59840018
2463I62677195I66098887I67521173I66315435I62468865I55826689I50039198I51765967
2455I59202017I66815030I71777349I73191554I71144826I66427818I60385429I54690873
2447I51395535I52133730I55931402I60123476I63357452I65732495I67435568I68154655
2439I67687043I66458910I64611266I61096846I55607607I51499426I51810209I54545960
2431I57858967I62428254I67929820I72240921I73823461I72465276I69365461I66734355
2423I65044979I62314980I58143041I56060358I58355274I62649596I66814208I70584760
2415I73838391I76222405I77752897I78544852I78296938I76800483I74780531I73250177
2407I72136208I70998543I70719332I72594575I75860533I78439317I79022189I77320486
2399I74010835I70964301I69791778I70227818I71377400I72634090I72931382I71193861
2391I68118290I66172302I66130458I65795021I62816219I56752052I50530302I48808532
2383I50946688I52874184I53316868I54405430I57814794I61464334I62656102I59971372
2375I53893028I48339756I48609790I54925706I62657334I67926191I69375118I67588083
2367I64733922I63357041I64420468I67338251I71168590I74904078I77400544I77516557
2359I74377158I68306554I62718765I62397641I67144577I72991854I77022167I78082787
2351I76714124I75369704I76224460I78527252I80323053I80644450I79090400I75071934
2343I68650004I62466468I61386125I66517738I73725391I79526920I82535924I82329854
2335I79205796I73639238I65875353I58502927I57158233I61221351I64479228I65237694
2327I67619449I73966662I81038099I85793596I87910178I88428469I87928669I86052536
2319I82795481I79587597I77467317I74641029I68291967I58276311I50900803I53846254
2311I63766373I73328044I79710869I83159681I84930143I86043427I86531927I85841192
2303I83881713I81246292I78067378I73638005I69104878I69063445I74120067I79458367
2295I81859982I80500359I75935797I70624412I67942559I68186637I69169527I70094821
2287I71428147I72596081I72615805I72549444I74356681I77428623I79420564I79381801
2279I78350425I77586000I77054424I76351430I76158646I77523269I79775793I80540422
2271I78031766I73455973I71377194I74191154I79002260I82651526I84379938I84856454
2263I84873301I84842140I85013420I85490346I85711140I84294949I79902969I73057462
2255I67914891I68871072I74290183I79713471I83334180I85931181I88394158I90196054
2247I90270703I88637073I86691770I85777091I85524999I84484925I82386902I81106720
2239I82572837I86101091I89285005I90580321I90236460I89506689I89315207I89536069
2231I89426288I88514623I87072407I85846260I85210998I84884875I84814266I85604373
2223I87541663I89917802I91805441I92921396I93512349I93729513I93382639I92450770
2215I91665801I91949806I93008577I93370380I92205938I90565802I90312957I91805441
2207I93663768I94733222I95259800I96073259I97204280I97904329I97760580I97205513
2199I96944656I97125934I97195651I96662294I95950466I96093941I97341797I98755866
2191I99490842I99711019I99949071A000208902A000175481I99841277I99532412
2184I99533644I99821827A000124392A000292316A000545092A001178300A002154204
2177A003127575A003781054A004057184A004018284A003531565A002409378A000964628
2170A000026048A000190205A001409093A003202428A004844550A005775803A006148906
2163A006501670A006953461A007275134A007502571A007878140A008391021A008833020
2156A009111615A009194002A008948348A008386501A008009836A008454780A009663189
2149A010845711A011363728A011307913A011247442A011663485A012607407A013792394
2142A014944989A015936782A016584919A016657102A016167643A015443899A014901843
2135A014837605A015266387A015916168A016525543A017074104A017582670A017844829
2128A017625336A017150054A017077118A017736144A018656165A019181167A019277730
2121A019391482A019791090A020368757A020861983A021023332A020745217A020174809
2114A019638986A019396277A019524068A020000722A020729054A021487178A022111688
2107A022741883A023588283A024495908A025084533A025230816A025100010A024910308
2100A024899556A025253142A025873269A026421350A026638583A026541883A026366219
2093A026342730A026442718A026407516A026083722A025540503A024772997A023489802
2086A021307543A017994262A013339986A006864980I97879401I85904952I70999365
2079I53715448I34835157I15269268H96334737H79823325H67164373H58325899H51772684
2071H45583601H38735971H31757194H26351848H24176985H25831228H30889084H38459499
2063H47597662H57576678H67980709H78441993H88353072H96991367I03892003I08989854
2055I12433529I14441632I15389116I15757014I15794407I15480816I14995535I14920065
2047I15761124I17511245I19786027I22186546I24504610I26732822I28922478I31056113
2039I33073393I34913298I36489401I37738558I38734597I39699270I40851111I42199982
2031I43479067I44346972I44699118I44742196I44753153I44834718I44947992I45098247
2023I45290620I45318630I44873823I43974416I43005702I42211145I41416588I40412057
2015I39281651I38096869I36582060I34470203I32019074I29785314I27983487I26468472
2007I25251091I24561178I24415923I24562137I24899355I25569955I26498195I27155577
1999I26992927I25965933I24476395I22914948I21437600I20083935I18836900I17517409
1991I15819541I13529829I10634578I07233911I03476782H99552687H95609007H91660943
1983H87595085H83225499H78439253H73386192H68343334H63265138H57750149H51639824
1975H45396022H39639898H34467948H29481864H24492767H19934574H16400705H13963067
1967H12232463H10981388H10377492H10615681H11627540H13192616H15113059H17290250
1959H19794661H22727373H25850130H28611289H30763689H32656121H34698603H36877027
1951H38932590H40691136H42145199H43437913H44691042H45774741H46476228H46869398
1943H47208191H47548970H47776955H47837632H47697718H47250377H46437466H45357465
1935H44154398H42849151H41358723H39694001H38017911H36449205H34985348H33710372
1927H32848220H32526686H32681255H33214955H34058479H35103484H36235122H37387100
1919H38481346H39418761H40185857H40877687H41579654H42348324H43341486H44806918
1911H46817418H49131578H51430535H53584510H55583915H57320546H58547446H59012114
1903H58609288H57514015H56226985H55330181H55048366H55135684H55256697H55346137
1895H55562754H56070704H56939156H58137977H59585466H61190264H62766640H63938068
1887H64298707H63677553H62230270H60450083H59090049H58736463H59317897H60202306
1879H60779562H60806545H60361875H59773524H59511297H59921656H61052404H62755888
1871H64836585H67038225H69050779H70678519H71927883H72847356H73425091H73780183
1863H74295461H75348342H76941839H78754556H80534537H82332393H84292420H86307440
1855H88086667H89576685H91015682H92493304H93792386H94802533H95718308H96608949
1847H97055605H96444244H94518596H91453846H87403123H82176317H75492502H67425436
1839H58472113H49318884H40673398H33197765H27436368H23754230H22240448H22559586
1831H23952629H25592354H27088399H28622589H30528239H32813704H35155601H37241981
1823H38992035H40502529H41868795H43037552H43814235H44076462H44011060H44071052
1815H44608929H45614282H46883437H48256278H49547964H50550235H51324727H52194754
1807H53323173H54652732H56247462H58238512H60439810H62412781H63928001H65111345
1799H66178265H67234228H68331829H69517365H70733239H71873848H73019868H74375930
1791H75923816H77444105H78894196H80447904H82192205H84029781H85770110H87164797
1783H88027771H88459565H88854721H89579698H90621005H91598622H92190054H92476251
1775H92811072H93465510H94425663H95416428H96165169H96701472H97223392H97709495
1767H98001787H98211966H98654787H99413664I00276500I01040240I01660504I02138115
1759I02438214I02577923I02720918I03047452I03493629I03761677I03681345I03445690
1751I03409462I03762157I04466315I05358257I06205205I06838276I07357388I08008608
1743I08748377I09222016I09333783I09508967I10174020I11226216I12194929I12749448
1735I12918674I12948327I13067354I13340949I13671661I13937175I14136534I14376367
1727I14707215I15029709I15197633I15165240I14996220I14783918I14620103I14600859
1719I14781521I15098056I15392951I15551012I15582379I15566696I15581557I15686201
1711I15881450I16048210I15986506I15571832I14883563I14147560I13523323I13019962
1703I12666377I12624190I12988459I13577769I14076884I14381229I14701120I15280568
1695I16066427I16788597I17357155I17963449I18745747I19601050I20378761I21042855
1687I21593470I22020540I22360976I22687237I23031782I23392970I23794563I24226906
1679I24533853I24549879I24419414I24551248I25126176I25879300I26475526I26852328
1671I27120513I27372536I27651131I27960407I28269889I28530267I28671756I28630118
1663I28398366I28010607I27519573I27045865I26734877I26611399I26597839I26666392
1655I26822880I26994296I27089627I27127773I27234266I27559020I28196611I29089786
1647I30007889I30708828I31144390I31475033I31900390I32507300I33252411I34033272
1639I34755441I35340847I35716347I35876670I35978369I36226489I36616576I36942768
1631I37110418I37229855I37386137I37550089I37728833I37990376I38342660I38746445
1623I39200703I39689956I40100315I40290360I40243790I40115998I40102849I40278170
1615I40606416I41089095I41759216I42507546I43070968I43308609I43389284I43577137
1607I43901411I44187882I44375872I44594064I44886630I45113176I45229806I45429164
1599I45844797I46347952I46794814I47236333I47711000I48092458I48321471I48552948
1591I48875852I49103084I49043434I48825380I48757169I48968444I49354286I49780054
1583I50166443I50437300I50548313I50545300I50495991I50430177I50396620I50483458
1575I50732468I51090094I51452788I51741382I51947246I52086681I52131881I52102227
1567I52151193I52356304I52558745I52644076I52776388I53117167I53598066I54144230
1559I54751619I55238681I55331683I55077674I54871946I55054663I55635754
1552I56325325I56778350I56938261I57083791I57418885I57807535I58051682
1545I58175502I58308431I58493681I58670303I58700573I58515802I58328154
1538I58474163I58960198I59457327I59815433I60221340I60761889I61171084
1531I61137663I60673680I60095260I59734004I59696269I59890286I60231339
1524I60705594I61239910I61611918I61513369I60787433I59770507I59228178
1517I59565669I60252501I60439258I59946169I59225301I58667084I58421362
1510I58543059I58816243I58783508I58377737I58195500I58757484I59799750
1503I60576432I60681145I60396729I60306740I60676694I61321065I62020497
1496I62745406I63381557I63676316I63607352I63430182I63314101I63282735
1489I63430730I63833008I64299867I64479502I64203852I63657277I63198979
1482I63031739I63105086I63379367I64019081I65105656I66205517I66576977
1475I66037045I65307137I65129146I65386169I65553956I65611688I65927059
1468I66540681I67051164I67049863I66469183I65676543I65256938I65500812
1461I66122993I66620944I66901936I67340785I68101922I68731500I68776768
1454I68474752I68350521I68463109I68523307I68420649I68239028I68081651
1447I68178008I68796629I69768287I70413343I70244186I69533180I68936474
1440I68768893I68870866I68952568I68850732I68608981I68431675I68488791
1433I68754853I69053240I69181170I69054336I68822105I68730062I68826283
1426I68937981I68934283I68867990I68872304I68997905I69142339I69133093
1419I68908122I68622815I68586587I69030983I69869713I70800965I71749543
1412I72993908I74725813I76747818I78638265I79953921I80436531I80361335
1405I80490155I81382029I82765073I83604351I82921150I80725742I77938011
1398I75475034I73846746I73328729I73958376I75375868I76829383I77600382
1391I77680098I77646678I77861788I78258450I78680314I79050610I79246134
1384I79075744I78518828I77801110I77090104I76357114I75666174I75296563
1377I75467089I76037497I76497850I76367318I75746575I75242529I75112614
1370I74839977I73929064I72760513I72171888I72500066I73406527I74367160
1363I75097752I75670899I76313627I77015250I77447525I77400065I77087365
1356I76843491I76761652I76818357I77035248I77270972I77169204I76573114
1349I75808553I75417438I75692883I76448678I77201186I77677222I78060940
1342I78601968I79202646I79534247I79326054I78547181I77594082I77134824
1335I77429582I77984649I78141752I77879593I77907809I78924393I80713551
1328I82154876I82421418I81900662I81508656I81394013I80918525I79867083
1321I79005137I79143407I80166086I81400862I82493053I83386913I83886987
1314I83885823I83742279I83823913I83908491I83642976I83338837I83553947
1307I84088400I84331383I84379527I84624360I84545465I83478682I82281093
1300I82522570I84282690I86220186I87422021I87837037I87438594I86295930
1293I85163675I84903092I85388304I85777159I85890638I86521175I88072829
1286I89789599I90870284I91443500I91785443I91549514I90588676I89652424
1279I89364995I89241860I88585846I87739241I87565701I88140423I88721651
1272I88876974I89070169I89879177I90951987I91245237I90429039I89599075
1265I90152087I92293598I95166113I98081567A000853409A002824051A002780221
1258A000511329I97420007I95058661I93757455I93084457I92759978I92602121
1251I92515830I92916670I94220068I95781446I96273644I95331092I94115766
1244I93944897I94841291I95799252I96026004I95387797I94064745I92480287
1237I91376864I91275850I91867419I92467549I92988579I93841074I94926690
1230I95488401I95171934I94530303I94136174I93844430I93326550I92749637
1223I92545416I92907493I93726568I94688364I95338625I95371566I94952852
1216I94584611I94623236I95085575I95916361I97183735I98804284A000213901
1209A000680144A000066522I99048158I98396390I98287226I98471929I98734499
1202I98885507I98767781I98635949I99049390I99967973A000365182I99196974
1195I96722834I94535918I94006464I94984903I96487316I98125603A000008995
1188A001694262A002478410A002520049A002514227A002566550A002486149A002760498
1181A003977331A005707729A007089610A007899097A008261654A008183992A008034627
1174A008400472A008882877A008303840A006709110A005705195A006340389A007983538
1167A009456160A010119912A009798035A008672013A007290201A006048782A004888449
1160A003840636A003398226A004026982A005764366A008388898A011443033A013910804
1153A014487102A012825256A010251744A008607569A008588599A009645863A010977476
1146A011977554A012256972A011902153A011250317A010340364A009475062A009858302
1139A012310595A015813852A018447835A019331080A018947978A018247929A018066445
1132A018965441A020968613A023083621A023427961A020816646A016328924A012499955
1125A010775720A010536024A010720522A011024319A011295792A011111363A010561980
1118A010639915A012160477A014607908A016422063A016302284A014107149A010680253
1111A006904153A003101619I99648013I97623543I97807013I99597609A001899510
1104A004183538A006361962A008282610A009680653A010557186A011321679A012145342
1097A012384832A011479261A010291261A010312833A011432829A012231016A012312307
1090A012678562A013788286A014842879A014995120A014264800A013559342A013869782
1083A015250635A016870226A017954473A018261557A017892426A017030959A015856039
1076A014681735A014057293A014169539A014330067A013971893A013790340A014762341
1069A016410763A017505420A017632458A017096773A016202433A015250704A014666873
1062A014602840A014727003A014527576A013530578A011427213A008799052A007752266
1055A009896174A013820062A016987608A018350930A018449547A018334356A018702666
1048A019680077A020982173A022204485A022978223A022994316A022191952A020806099
1041A019003998A017086363A016452676A018528510A022105525A024827099A025959970
1034A026431897A027280831A028128875A027471560A024614934A021319254A020409163
1027A021927602A023865508A025633368A027906643A030451390A032196513A032739869
1020A032614679A032238905A031260192A029337079A027198170A026318007A027157011
1013A028541015A029050813A027978551A025353814A022124769A019923745A019480513
1006A019743288A019139871A016780237A013250545A011423584A013753016A018378186
999A022075118A023777848A024194850A024112189A023781615A023697927A024307850
992A024715881A023190456A018890724A012993043A008901915A009146747A012208622
985A015420819A017292159A016882553A013804790A009347613A006075422A004631495
978A003597379A002280627A000474074I96968283I90582718I82536198I76821645
971I75740274I77365343I79095331I79871877I79683613I79040131I78904875
964I79526030I79676833I78685382I78920079I83167557I89681940I96306996
957A002476835A007353754A010319682A011917357A012725406A011964611A008303087
950A002607572A000541052A006668909A017273189A027398624A035067658A039655230
943A041077105A040371441A039856437A040686675A041140522A039272744A036353044
936A036198542A040439241A048656355A058078044A064620096A066979045A066497599
929A064825824A061673961A055766692A050253140A052357190A060319474A067848045
922A072462464A073741823A072443973A070533255A068752178A066004785A063322383
915A064651531A069732465A073435697A072839129A069332721A066867005A066617927
908A065786662A061811615A053179346A038229382A020670706A011463579A006505094
901I95142554I73221003I47140660I27410819I12749585H98172177H82955259
894H68152263H54342975H44457236H44059614H50902314H58024087H62948467
887H66643686H70820214H75891903H81653232H89189131H98865925I08126744
880I14899177I20487788I28473836I39331028I49487967I56996266I62577345
873I68214031I75251226I82687616I87521392I86063562I75151102I54045612
866I26067701H97962956H77154210H68049604H69412241H75719596H81574064
859H85072938H88390054H95354792I07742545I23883661I40161814I53160587
852I61298670I65756122I70797199I79984260I89888970I95821920I97738116
845I99262377A003393980A008284390A011155193A011300380A008080579I99349284
838I84959249I76996006I83159270I92102869I97961582A000407370A000395317
831I99380171I97669564I93426401I84465407I70794596I54483365I37117198
824I22851599I16292426I11576103I00576531H79934887H54536034H33242691
817H16294691G99036456G81148094G66757032G57733238G52825980G52566081
810G57225973G64293028G73163074G84666623G97003972H07070511H13035787
803H14272754H11915106H11339699H16751276H19969365H13868969G97053692
796G70135647G36981265G06287601F87027221F78124028F70637164F57946640
789F41127596F30310330F32798030F43444085F55147747F65789693F76230089
782F87117483F97859554G07629828G16151700G24429081G35628011G51590862
775G68261157G81319169G90441991G97551848H05140823H13455049H19795140
768H22053417H20644690H20222346H27258720H37847042H43191231H38332392
761H20522719G91517541G62261982G47658755G51924313G67583435G85780250
754H01231247H12505648H21228521H30318197H40310088H49005224H55462013
747H60731828H66213397H71651616H75489968H77323572H78354127H79171490
740H78915084H78111692H80140751H86090275H92817509H97757708I00582489
733I02296246I03727367I04610611I04617597I04625062I05595898I06597484
726I05886615I03251262I00250065H98372014H98097049H99546387I01916636
719I03323650I02524505I00344232H99326346I00751372I03040741I04317292
712I04312156I03736064I02851518I01305206H99512624H99226496I01402454
705I04569795I06901350I08019565I08321787I07964367I07341021I07962381
698I11173894I15923843I19953335I22243388I23334004I24234576I25375048
691I26620234I27926302I29504048I31481196I33628939I35239969I35333177
684I33588739I31414356I31219586I33657977I37010636I39544153I40729003
677I40705376I39659001I37626860I34475682I29967278I23909685I16348858
670I07730013H98968720H91226545H85228055H80772589H77233789H74192665
663H71135928H67126365H61734373H56187059H52731946H52430682H53893786
656H54303598H51321302H43924427H31891492H15114908G93557215G67657535
649G38726936G08961442F80891487F56599961F37253838F23210677F14501569
642F11107135F12752954F18669880F27668814F38305486F49044611F58609502
635F66352772F72271136F76667979F79879286F82329594F84670120F87612626
628F91566374F96505204G02147643G08242079G14778037G21935559G29739028
621G37815407G45618738G52829747G59441516G65514997G70915686G75270411
614G78244351G79958450G81131179G82739127G85396257G88885818G92223137
607G94188779G93773215G90179285G82676600G70764404G54623355G35375714
600G14858233F95300561F79303195F69495732F67297722F71848860F80561529
593F90837220G01210570G11199721G20663528G29551312G37998259G46270711
586G54511727G62664808G70669346G78555682G86275188G93574199H00163368
579H05962089H11124314H15883578H20428005H24857241H29168958H33312203
572H37273073H41044995H44532569H47592389H50143780H52150924H53520683
565H53988363H53051564H50387721H46816733H44510243H45437250H49537418
558H54945708H59887962H63822877H67016241H69742610H71795981H72288590
551H70344247H66690803H64078804H65161133H70074555H76680160H82805963
544H87623986H91264006H94048929H96313301H98422556I00595706I02806524
537I05007616I07318147I09873578I12649119I15577106I18684385I21971847
530I25281019I28414323I31312793I34015466I36491728I38603860I40236394
523I41453090I42599863I44242807I46823714I50338544I54478366I58966156
516I63538525I67823259I71597988I75047416I78528073I82213568I86103146
509I90201191I94556669I99174306A003886794A008217618A011309899A012055901
502A009482938A003101003I92601231I76888623I53796739I21962670H83605862
495H44510312H10356467G83793583G65563689G56694944G57886986G67621717
488G82405058G98747725H14413764H28405356H40540196H51041201H60222920
481H68345252H75610500H82272263H88687619H95102427I01400605I07219529
474I12305052I16687788I20614553I24408526I28328649I32380330I36184028
467I39168446I40908296I40952811I38258013I31375662I19726240I04667385
460H89306445H77368566H71740920H73129923H79738542H88619888H97604714
453I05892368I13318966I19880467I25641726I29995219I31318614I28871661
446I24901820I23148411I25024682I28608476I31335941I32252948I31634191
439I29863250I27163316I23732858I19742813I15198181I09718529I02529093
432H92826960H80142463H64522035H46694214H27941236H09499452G92224917
425G76984784G64969449G57078732G52837348G50281780G47621568G45225295
418G45389109G49887720G58282347G68736919G79699784G90460139H00785619
411H10626364H20009291H28933440H37370800H45344933H52923635H60178405
404H67227996H74258685H81419083H88683099H95797134I02401096I08342333
397I13894441I19483394I25146927I30426809I34778589I37797660I38904233
390I36907910I29857223I15316727H91470213H59065258H22501032G88156594
383G61254644G44790007G40832424G50669334G72637934H01057023H28331187
376H47729563H54273464H44756924H18863408G80918603G39950617G06585303
369F88227206F86090969F96163398G12628719G30843272G48396949G64586895
362G79367839G92702323H04508985H14794332H23662118H31285883H37926690
355H43879569H49286627H54086707H58291451H62188768H66077045H69949844
348H73619313H76939169H79794904H82188849H84460001H87101518H90207564
341H93348264H96135173H98701356I01434505I04387694I07096668I08692700
334I08030523I04226961H97565061H89724132H83043125H79669030H80874220
327H86374212H94278558I02159208I08406982I12767117I15822349I18116511
320I19917791I21576692I23440703I25417029I27236595I28955282I30664519
313I32189532I33496490I34791259I36054387I37212392I38749047I41364129
306I45025105I48893316I52129689I54394883I55731016I56497084I57450731
299I59310085I62036933I64987794I67799700I70671530I73865237I77376505
292I80930236I83858771I84871315I81938397I72804137I56733766I36459815
285I17835451I06638917I05258133I11971259I22691551I33507516I42516244
278I49800668I55831072I60361665I63057283I64437247I65544162I67008978
271I68700956I69783628I68783206I63995248I54339548I40042172I22324954
264I01886434H77559433H47040061H09279342G66119030G22069926F83144970
257F55443600F43176516F46656283F62218773F84446176G08593954G31704328
250G52561835G71087924G87738565H03292905H18801087H35087459H52027446
243H68650830H84098745H98234566I11395441I23814560I35345230I45678448
236I54658959I62048233I66909743I67422898I60842289I42888525I08234949
229H54505011G87201989G18691037F60496250F17702604E90746756E79396749
222E83161685E99638101F24736649F54362572F85296754G15437543G43736784
215G69655091G92789024H12659053H28684088H40951925H50377038H57215080
208H60686081H61821417H62687130H63978885H65449795H66462133H66103206
201H63424092H57806375H48918729H36308948H19393888G98088630G73546998
194G48193277G24882174G06081257F93437440F87632007F88648043F95940549
187G08462258G24988325G44150704G64284399G83960754H02317549H18366416
180H30498174H36945991H36490843H28920085H14838368G94390603G66434470
173G30585976F90362828F52264617F21336050E99366902E86692951E83488493
166E89044505F01129557F16867230F34052050F51597441F69247407F87052149
159G04790598G21749145G37100360G50375467G61611859G71295638G80155959
152G88726317G97041707H04795935H11637127H17244914H21500747H24824985
145H27933908H31162405H34453634H37801774H41123410H44009553H46167158
138H47824620H49393874H51147557H53347965H56085907H58945477H61371748
131H63328419H65135520H66788393H67915649H68375796H68425310H68193559
124H67395714H65825433H63960599H62807389H62967231H63790073H63608657
117H61050761H56102206H49719450H42508851H34020812H23538709H11307785
110G98268676G84817974G70762554G56200486G41337223G25815961G09155732
103F91605822F74197468F57996771F43536265F31056880F20904530F13336032
96F08192160F05111589F03890647F04573095F07507177F13054149F20511565
89F27546021F31353007F30582145F25882943F18100293F07042852E93255481
82E79542826E69398078E64841050E65917421E71331396E79073844E87036402
75E94084829F00562916F07167700F13762211F19792136F25144406F30150624
68F35329012F41142526F47495013F53947966F60309699F65939468F69534563
61F71480482F75154402F82804191F92421198G01648870G09983573G17037958
54G22218469G25986076G29619317G33630181G37278694G39607167G39862409
47G36818067G28870985G15712782F99551053F83750784F71484660F65983435
40F68735965F76901579F85443037F91960914F97747376G04016175G09887900
33G15845505G24996475G35396397G41059039G40423297G38047569G40120116
26G47959813G58189003G67474613G74261086G78134844G79975571G81952308
19G86222866G92813336G99368879H05570221H13555515H23847437H34361386
12H41890779H44111115H41339410H37513728H37749315H41927829H45825146
5H48275590H51357805H55925585H58464511H55950787
##END=


$$ === CHEMSPECTRA PEAK TABLE EDIT ===
##TITLE=X9492
##JCAMP-DX=5.00
##DATA TYPE=INFRAREDPEAKTABLE
##DATA CLASS=PEAKTABLE
##$CSTHRESHOLD=0.93
##MAXX=3997.453
##MAXY=0.9345178060875171
##MINX=373.96442
##MINY=0.49160236429960646
##$CSSOLVENTNAME=- - -
##$CSSOLVENTVALUE=0
##$CSSOLVENTX=0
##NPOINTS=34
##PEAKTABLE= (XY..XY)
412.2107810867865, 0.6423504982259646
430.625695684128, 0.5796303778388155
485.870439476153, 0.49160236429960646
505.70188596559774, 0.5255886941000819
609.1087140891318, 0.5078319337810423
641.6889476075057, 0.5984719425213227
688.4345000469116, 0.5042707354146899
735.180052486317, 0.5597806602894455
774.8429454652337, 0.789081875623655
838.586880609851, 0.7656089707876959
893.8316244018761, 0.5971307193147666
912.246538999218, 0.6447742620480728
966.0747508991399, 0.6485975425438213
1021.3194946911649, 0.7587088391127276
1068.0650471305703, 0.6585800085244483
1150.2238968725565, 0.7520402119987141
1167.2222795777948, 0.7350089589523198
1216.800895801407, 0.5807742511401066
1281.9613628381544, 0.5318694744412765
1446.2790623221263, 0.6507154741095751
1457.6113174589523, 0.7138702906684453
1488.7750190852225, 0.5485827357456848
1507.1899336825645, 0.7061393896186035
1521.3552526035965, 0.6549865040993199
1595.014910992963, 0.7554961482628381
1634.6778039718529, 0.7346167604918509
1746.5838234480248, 0.8506377385342228
2969.0508463330725, 0.7156267205784134
3028.545185801407, 0.7480649392380764
3038.46090904613, 0.7473905721283564
3062.541951211884, 0.7441806837653134
3100.7883122986705, 0.7245792195523255
3156.033056090696, 0.7053019447548747
3300.5193090852226, 0.717312161407747
##END=


$$ === CHEMSPECTRA PEAK TABLE AUTO ===
##TITLE=X9492
##JCAMP-DX=5.00
##DATA TYPE=INFRAREDPEAKTABLE
##DATA CLASS=PEAKTABLE
##$CSTHRESHOLD=0.93
##MAXX=3997.453
##MAXY=0.9345178060875171
##MINX=373.96442
##MINY=0.49160236429960646
##NPOINTS=143
##PEAKTABLE= (XY..XY)
3991.786872431587, 0.8477962657883039
3973.3719578342457, 0.8468429494078562
3960.6231708053165, 0.8483777687539105
3949.290915668491, 0.8432382385166916
3942.208256207975, 0.8447358056757868
3930.8760010711494, 0.841138546614554
3923.7933416106334, 0.8437678859019232
3918.1272140422207, 0.8439618989330981
3901.128831336982, 0.832230990130016
3891.2131080922595, 0.8420299341280545
3881.297384847537, 0.8358873773120243
3869.9651297107116, 0.8330493023638227
3862.8824702501956, 0.8353847904612756
3852.966747005473, 0.8268547689905009
3838.801428084441, 0.8280352399849286
3820.3865134870994, 0.8281256602212578
3800.555066997654, 0.8320952105126357
3779.3070886161063, 0.84485346573613
3767.9748334792807, 0.8440461806788283
3749.5599188819388, 0.8257836741838059
3735.394599960907, 0.8253756808378426
3724.0623448240813, 0.8384457875720487
3709.8970259030493, 0.8376107857457668
3701.39783455043, 0.8489008590161911
3688.649047521501, 0.8367304254087712
3674.483728600469, 0.8330507323283844
3648.9861545426115, 0.8276046561580366
3627.738176161063, 0.8434122851345909
3617.822452916341, 0.8424367359819392
3607.9067296716185, 0.8464462808938333
3595.1579426426897, 0.8495875048477843
3586.6587512900705, 0.8454260277242908
3576.7430280453477, 0.8571450755675142
3566.8273048006254, 0.8424126554831592
3545.5793264190775, 0.8538939993512016
3535.663603174355, 0.8610381536518187
3524.331348037529, 0.857120815779203
3510.166029116497, 0.8630839638278115
3501.666837763878, 0.8619065329223762
3487.501518842846, 0.8676783494497396
3481.8353912744333, 0.866813068580789
3300.5193090852226, 0.717312161407747
3273.605203135262, 0.7962892695195394
3212.694331774824, 0.8045538711164901
3156.033056090696, 0.7053019447548747
3100.7883122986705, 0.7245792195523255
3062.541951211884, 0.744180682894976
3038.46090904613, 0.7473905721283564
3028.545185801407, 0.7480649392380764
2969.0508463330725, 0.7156267205784134
2946.3863360594214, 0.7345745012530818
2852.8952311806097, 0.7862711597357088
2808.9827425254107, 0.7960114525579383
2800.483551172791, 0.7968520567469008
2783.4851684675527, 0.7942910833428507
2748.0718711649724, 0.8045569094648074
2719.7412333229086, 0.8064528744985976
2663.07995763878, 0.818206791544623
2620.584000875684, 0.8257389710372526
2606.418681954652, 0.8271658467711486
2593.6698949257234, 0.8286503005546793
2575.2549803283814, 0.8310608909479333
2552.59047005473, 0.8340689584818196
2535.5920873494915, 0.8352596803116755
2522.843300320563, 0.8348522831469203
2512.9275770758404, 0.8341500809023158
2505.8449176153244, 0.8339535047271149
2497.3457262627053, 0.8357909961339521
2483.1804073416733, 0.8383811162715445
2471.8481522048473, 0.8381626650328646
2459.0993651759186, 0.8399881170606494
2444.934046254886, 0.8400993392342831
2430.7687273338543, 0.8427918006213531
2423.6860678733383, 0.842557792969662
2412.3538127365127, 0.8431559254744543
2405.2711532759968, 0.8428624319932627
2395.3554300312744, 0.8431221293978268
2389.6893024628616, 0.8432421733126647
2379.7735792181393, 0.8429972577207101
2364.1917284050037, 0.8532452628114026
2350.0264094839717, 0.8471245218758994
2341.527218131352, 0.8508825949432253
2324.528835426114, 0.8488372016589094
2308.9469846129787, 0.8461176797373566
2291.9486019077403, 0.8501123236003996
2282.032878663018, 0.8489424037078481
2265.0344959577797, 0.8504371091971447
2259.3683683893664, 0.8510853096090253
2243.7865175762313, 0.8520649127938916
2232.4542624394057, 0.8561878252614309
2226.7881348709925, 0.8558366945476525
2215.455879734167, 0.8549161002473202
2202.707092705238, 0.8571981243806427
2178.626050539484, 0.8595154929210586
2165.877263510555, 0.8612852146257848
2144.629285129007, 0.8638237759680999
2134.7135618842844, 0.8650675466110844
2123.381306747459, 0.8627445748376504
2104.966392150117, 0.8638495257742624
2095.0506689053946, 0.8656243137137508
2079.4688180922594, 0.8688468385073917
2062.470435387021, 0.8651211306817939
1942.0652245582482, 0.8682692102844688
1748.0003553401093, 0.8492233799946832
1739.5011639874901, 0.8519776510124587
1735.2515683111806, 0.8517866180169864
1634.6778039718529, 0.7346167596215134
1595.014910992963, 0.7554961482628381
1558.1850817982795, 0.8503162906819052
1521.3552526035965, 0.6549865040993199
1507.1899336825645, 0.7061393896186035
1488.7750190852225, 0.5485827357456848
1457.6113174589523, 0.7138702906684453
1446.2790623221263, 0.6507154741095751
1419.3649563721656, 0.7642535610794008
1395.2839142064108, 0.781647567326949
1386.7847228537917, 0.7827174706415654
1374.035935824863, 0.7826305674391949
1364.1202125801406, 0.7896929430848181
1338.6226385222826, 0.8104753543668626
1304.625873111806, 0.7419024142680954
1281.9613628381544, 0.5318694744412765
1216.800895801407, 0.5807742511401066
1167.2222795777948, 0.7350089589523198
1150.2238968725565, 0.7520402119987141
1068.0650471305703, 0.6585800085244483
1021.3194946911649, 0.7587088391127276
1002.9045800938229, 0.8034507078531649
966.0747508991399, 0.6485975425438213
912.246538999218, 0.6447742620480728
893.8316244018761, 0.5971307193147666
838.586880609851, 0.7656089707876959
773.4264135731037, 0.7878801274876315
735.180052486317, 0.5597806602894455
688.4345000469116, 0.5042707354146899
641.6889476075057, 0.5984719425213227
609.1087140891318, 0.5078319337810423
543.9482470523844, 0.7509336518080092
505.70188596559774, 0.5255886941000819
485.870439476153, 0.49160236429960646
430.625695684128, 0.5796303778388155
412.2107810867865, 0.6423504982259646
385.29667513682534, 0.7289196293686118
##END=

##END=

