##TITLE=X7481
##JCAMP-DX=4.24
##DATA TYPE=INFRARED SPECTRUM
##DATE=29/10/2018
##SAMPLING PROCEDURE=Diamant-ATR
##ORIGIN=ComPlat
##XUNITS=1/CM
##YUNITS=TRANSMITTANCE
##RESOLUTION=4
##FIRSTX=3997.453
##LASTX=373.96442
##DELTAX=-1.4165319
##MAXY=0.92461735
##MINY=0.68204838
##XFACTOR=1
##YFACTOR=8.6111701e-010
##NPOINTS=2559
##FIRSTY=0.91703027
##XYDATA=(X++(Y..Y))
3997+1064931086+1065290950+1065527052+1065431393+1065268039+1065200413
3989+1065102470+1065057340+1065438038+1066283187+1067103488+1067469442
3980+1067344643+1066793392+1065903251+1065048618+1064707028+1064944791
3972+1065389931+1065657112+1065559030+1065124481+1064606109+1064308472
3963+1064333806+1064619398+1065139847+1065861028+1066501570+1066600136
3955+1065995449+1065128634+1064635388+1064764479+1065342309+1066009777
3946+1066357389+1066284641+1066322918+1067036139+1068007403+1068321237
3938+1067844118+1067056281+1066201095+1065375880+1064984038+1065276414
3929+1065767099+1065861512+1065538819+1065148569+1064981892+1064987084
3921+1064846917+1064459505+1064205614+1064494945+1065158328+1065785580
3912+1066361334+1067050744+1067634804+1067587805+1066726735+1065465932
3904+1064396102+1063849004+1064109194+1065441360+1067277778+1068390939
3895+1068223986+1067266773+1066535971+1066733518+1067320416+1067341112
3887+1066806266+1066247748+1065631155+1064641825+1063779233+1063901194
3878+1064811547+1065624095+1065949903+1065620150+1064600225+1063739363
3870+1064383435+1066392690+1068071845+1068538096+1068040905+1067024026
3861+1065883662+1064956697+1064275040+1063572064+1062772667+1062467970
3853+1063456401+1065111122+1066390475+1067383612+1068199829+1068555124
3844+1068145493+1066979934+1065493343+1064403439+1064387103+1065593570
3836+1067347411+1068777105+1069406642+1069112812+1068187439+1067358555
3827+1067285877+1067806810+1067967880+1067269680+1066318627+1065845177
3819+1065650260+1065742458+1066789239+1068443891+1069285164+1068834764
3810+1067624906+1066423077+1066108066+1066855411+1067355302+1066607542
3802+1065404744+1065339056+1066708115+1068753848+1070929641+1072488911
3793+1072789109+1072145729+1071374435+1070985085+1071011249+1071186855
3785+1071057556+1070267642+1068964132+1067753581+1067305673+1067787775
3776+1068618458+1069110043+1069078272+1068863628+1068897406+1069052800
3768+1068846808+1068492551+1068643446+1069182099+1069380270+1069046917
3759+1068647114+1068518162+1068489298+1068210973+1067377590+1066006385
3751+1064899938+1064783306+1064921811+1064667782+1064445039+1064596833
3742+1064573230+1063896695+1062534904+1060628022+1058986937+1059058092
3734+1061030247+1063426222+1065492927+1067333360+1068808184+1069655480
3725+1069921345+1069883137+1069743179+1069634645+1069666001+1069768720
3717+1069657695+1069060345+1068067692+1067372053+1067939293+1069759791
3708+1071593994+1072419693+1072040380+1071001143+1070278163+1070428781
3700+1070993875+1071340034+1071343633+1071073476+1070742892+1070806364
3691+1071601400+1072871201+1073741823+1073658208+1072987072+1072194320
3683+1071366613+1070443525+1069505623+1068735090+1068317430+1068637770
3674+1069646066+1070166030+1069598236+1068779597+1069138699+1070665991
3666+1072018022+1072455271+1072132024+1071494597+1070633597+1069401727
3657+1068309331+1068390524+1069349952+1069569373+1068441745+1066917984
3649+1066103013+1065750833+1065660019+1066440589+1068045473+1069727674
3640+1070941270+1071659959+1071823520+1071060532+1069207294+1066620832
3632+1063802144+1061332521+1060548698+1062388716+1064891286+1066050546
3623+1066028950+1065891207+1066460662+1067588359+1068215126+1067722157
3615+1066576809+1065677116+1065714217+1066671568+1068127219+1069784432
3606+1071091819+1071214403+1070015897+1068323867+1067114909+1066613633
3598+1066296962+1065651921+1064725509+1064102687+1064058665+1063993946
3589+1063308482+1062505209+1062834202+1064309372+1065638769+1066110558
3581+1066076849+1066261591+1066747431+1066862056+1066418439+1066212031
3572+1066638136+1066863302+1066076572+1064784068+1064300097+1064834804
3564+1065388755+1065553493+1065602984+1065812921+1066317104+1067019665
3555+1067435387+1067097743+1066292324+1065815552+1065829326+1065808907
3547+1065461503+1064904507+1064362808+1064309926+1065266793+1066921860
3538+1068083820+1067919566+1066820318+1065727991+1065091533+1064745029
3530+1064282446+1063456539+1062522237+1062099178+1062585294+1063770857
3521+1064913228+1065264232+1064727517+1063948747+1063581339+1063541262
3513+1063210124+1062303509+1061308779+1060936318+1061197477+1061396271
3504+1061074200+1060517689+1060189181+1060012883+1059664856+1059172786
3496+1058833411+1058783505+1058908997+1059054078+1059132086+1059100454
3488+1058995035+1058953989+1059065153+1059197220+1059110767+1058726055
3479+1058157845+1057604657+1057399287+1057846296+1058683070+1059135478
3471+1058852308+1058243883+1057690902+1057076525+1056304469+1055652852
3462+1055392178+1055491990+1055807416+1056270622+1056848244+1057396103
3454+1057642934+1057475912+1057181044+1057103520+1057102689+1056723029
3445+1055906882+1055107070+1054689963+1054590497+1054481895+1054139197
3437+1053654534+1053322704+1053314951+1053534095+1053775527+1053927806
3428+1054054959+1054331761+1054737862+1054818985+1054076070+1052658905
3420+1051318779+1050671592+1050834738+1051581529+1052418650+1052779759
3411+1052549748+1052204144+1052246643+1052699882+1053211817+1053465431
3403+1053397528+1053095738+1052569060+1051719619+1050598429+1049569575
3394+1049048711+1049058886+1049198221+1049117167+1048861338+1048612777
3386+1048369199+1048117662+1048108594+1048605163+1049398676+1049876002
3377+1049689737+1049182647+1048938654+1049075360+1049182786+1048876981
3369+1048248899+1047769704+1047715714+1047768389+1047507784+1047224267
3360+1047608357+1048599003+1049257610+1048979839+1048186464+1047565027
3352+1047254931+1047102236+1047155603+1047477328+1047795868+1047720559
3343+1047179899+1046486059+1046025138+1045863307+1045643817+1045085367
3335+1044535017+1044656840+1045583943+1046749848+1047545438+1047845982
3326+1047891389+1047919076+1047997430+1048033562+1047819541+1047246348
3318+1046561576+1046215902+1046406736+1046931338+1047383538+1047359104
3309+1046762654+1046056078+1045872028+1046301940+1046848830+1046998756
3301+1046670317+1046213341+1045970940+1045774708+1045168221+1044226028
3292+1043644598+1043841454+1044473205+1045032831+1045379543+1045460113
3284+1045072216+1044316842+1043857513+1044208101+1044991093+1045370960
3275+1045041414+1044339753+1043602237+1042943768+1042522785+1042445123
3267+1042430172+1042089482+1041566541+1041389828+1041587791+1041478427
3258+1040557276+1039195692+1038140743+1037540763+1036860006+1035794121
3250+1034892489+1034966206+1036033337+1037153074+1037401220+1036930885
3241+1036715825+1037102338+1037197166+1036204928+1034711692+1033791095
3233+1033492005+1033092341+1032275225+1031309567+1030510932+1030058455
3224+1029998305+1030116736+1030119851+1030075690+1030308331+1030707926
3216+1030638916+1029817992+1028793984+1028197119+1027969392+1027649882
3207+1027035505+1026305326+1025694756+1025165309+1024475830+1023660375
3199+1023155223+1023256973+1023756657+1024215779+1024254817+1023633034
3190+1022387182+1020806385+1019206623+1017945959+1017419488+1017588864
3182+1017801017+1017513624+1016942993+1016629367+1016586313+1016327715
3173+1015610965+1014716255+1014008572+1013591604+1013345604+1013018896
3165+1012450410+1011854306+1011535489+1011320706+1010754227+1009695125
3156+1008276991+1006706923+1005456433+1005036074+1005361813+1005872225
3148+1006125147+1005824741+1004785021+1003320510+1002077427+1001270001
3139+1000677773+1000265443+1000111710+999952440+999418978+998593625+997962012
3129+997920343+998432001+999004502+999035096+998343125+997384735+996875362
3119+997114994+997660292+997804542+997335798+996536263+995595247+994564317
3109+993752807+993562943+993955754+994472880+994708498+994570962+994244323
3099+993983579+993887920+993943779+994236709+994840704+995515647+995839932
3089+995716863+995564999+995898836+996743086+997577576+997915290+997777201
3080+997503790+997307004+997153756+996970398+996845529+996959323+997251422
3070+997327285+996930459+996358374+996206579+996794100+997895909+998954734
3060+999585862+999846052+999878861+999566066+998907458+998393378+998522330
3050+999183291+999842799+1000150057+1000176982+1000173937+1000229242+1000264335
3040+1000314172+1000512481+1000735570+1000691340+1000480572+1000600665
3031+1001260311+1002057561+1002453972+1002322250+1001982737+1001815091
3023+1001920164+1002230398+1002738457+1003282855+1003394504+1002898350
3014+1002381224+1002486712+1003071879+1003574262+1003786484+1003819778
3006+1003748276+1003658500+1003685080+1003780878+1003693109+1003254684
2997+1002601406+1002090855+1001947920+1002006548+1001958511+1001769269
2989+1001604946+1001511502+1001408368+1001208397+1000810395+1000172968
2980+999423408+998778782+998493051+998849177+999873185+1001075430+1001809692
2970+1001875242+1001560370+1001207082+1000889303+1000467351+999888621+999313352
2961+998883440+998555070+998260341+998013372+997798727+997560272+997293645
2951+996992755+996633722+996331932+996294070+996478120+996504908+996043156
2941+995130173+994053212+993142790+992760708+993133931+993950216+994407400
2931+993971951+992930361+992033367+991757811+991963180+992161766+992107361
2921+992007064+992029837+991874374+991124883+989838678+988529423+987688011
2911+987382276+987220860+986784441+986142861+985730461+985695437+985688723
2901+985325191+984584214+983740172+983098592+982798810+982746620+982748488
2891+982700590+982570945+982309717+981987231+981873783+982105316+982429187
2881+982540143+982440192+982222641+981815847+981202439+980598514+980236435
2871+980170471+980290979+980341992+980036673+979362975+978689140+978446185
2861+978744168+979309055+979760147+979969670+980154897+980609588+981324055
2851+981872191+981770856+981042131+980280873+980048370+980345176+980729889
2842+980771973+980383454+979863074+979596655+979674871+979901421+980119803
2832+980343446+980605297+980860711+981065595+981266535+981536969+981807403
2822+981848864+981471212+980691127+979758071+979062362+978851456+978981931
2812+979140440+979257072+979460919+979771499+980094677+980370441+980524727
2802+980427476+980027467+979472340+979059594+979034398+979381318+979852069
2792+980213247+980390999+980420970+980392037+980434052+980672369+981157309
2782+981803596+982413405+982839164+983101707+983253917+983202142+982832104
2772+982293035+981967504+982080467+982513771+983120811+983967899+985040291
2762+985984006+986462509+986580456+986681514+986900866+987115372+987205424
2752+987204317+987209785+987239479+987231450+987181890+987192688+987332300
2742+987493855+987461807+987163063+986844107+986868195+987278380+987690918
2732+987707530+987290077+986675285+986124795+985817468+985779122+985843425
2723+985842041+985840241+986032666+986438283+986848329+987028503+986900658
2713+986602329+986428938+986629255+987237195+988098542+988972278+989591847
2703+989762746+989463033+988836542+988137027+987679358+987688011+988069470
2693+988451206+988599056+988685301+988946321+989224023+989204019+989004949
2683+989090779+989586656+990117487+990354766+990337530+990210585+990008607
2673+989795278+989737343+989922362+990252116+990559512+990740171+990791669
2663+990812365+990921175+991144403+991430203+991735661+992054202+992442514
2653+992995495+993636590+994047260+994067541+994008290+994277063+994865553
2643+995450859+995811622+995948327+995933169+995794594+995510248+995123597
2633+994898500+995194407+996039556+996975243+997535630+997753390+997906153
2623+997952114+997655931+997174383+997002930+997332268+997870575+998303256
2614+998590925+998817406+999037588+999325534+999787009+1000428658+1001100764
2604+1001629242+1001932416+1001950412+1001590064+1000921074+1000343867
2595+1000303651+1000830329+1001574698+1002245003+1002763652+1003069664
2587+1003064058+1002793416+1002503532+1002470792+1002781995+1003258283
2578+1003675182+1004044182+1004488768+1004935569+1005259370+1005567666
2570+1005936597+1006159064+1006248355+1006765827+1008025384+1009363710
2561+1009792930+1009076664+1007729131+1006384229+1005555484+1005499279
2553+1005941720+1006351212+1006613617+1006960191+1007300189+1007307664
2544+1007127282+1007318808+1008074459+1008990073+1009563127+1009625077
2536+1009413270+1009391467+1009850865+1010686394+1011659112+1012630307
2527+1013429634+1013879966+1014064223+1014130119+1013916305+1013353495
2519+1013040561+1013660822+1014915326+1015741441+1015592345+1015006832
2510+1014913042+1015699910+1016947215+1017870719+1017990051+1017384256
2502+1016394441+1015323434+1014457311+1014074814+1014255057+1014800978
2493+1015427468+1015927152+1016166576+1016115978+1015988133+1016211014
2485+1017088696+1018411449+1019467782+1019628090+1019039601+1018594668
2476+1018987687+1019931818+1020577551+1020563846+1020285383+1020232847
2468+1020452406+1020634864+1020517332+1020232985+1020246759+1020785066
2459+1021504032+1021970906+1022168592+1022218844+1022090238+1021921069
2451+1022062897+1022490801+1022764835+1022780478+1022896348+1023230255
2442+1023521662+1023675326+1023778391+1023679340+1023209559+1022740747
2434+1022939333+1023980300+1025349428+1026397109+1026872289+1026971132
2425+1027028306+1027181139+1027304347+1027290503+1027295556+1027523145
2417+1027858851+1027995072+1027897821+1027847845+1028065674+1028536286
2408+1029128237+1029694992+1030181663+1030637739+1030963963+1030848507
2400+1030264309+1029700599+1029573792+1029799719+1030203328+1030866712
2391+1031843583+1032918397+1033713294+1033769845+1032778577+1031056161
2383+1029458544+1028524173+1028008638+1027399314+1026510142+1025424806
2374+1024216540+1022894826+1021496972+1020190001+1019087015+1017840471
2366+1016036931+1014327182+1014086996+1015516829+1017335181+1018671016
2357+1019874298+1021321505+1022756044+1023837157+1024486213+1024763499
2349+1024781219+1024641537+1024391523+1024117489+1024039896+1024314760
2340+1024797900+1025238472+1025643465+1026195754+1026855262+1027388447
2332+1027778005+1028132608+1028237126+1027832894+1027254095+1027103131
2323+1027445551+1027921147+1028506107+1029421236+1030459434+1031178607
2315+1031542277+1031855073+1032299659+1032894240+1033686369+1034701933
2306+1035795574+1036694298+1037235167+1037560144+1038002100+1038743354
2298+1039686170+1040566067+1040992864+1040636046+1039769854+1039316062
2289+1039853469+1040916724+1041679851+1041891588+1041777240+1041596443
2281+1041663930+1042248890+1043133217+1043683914+1043542779+1043002049
2272+1042604739+1042546042+1042595602+1042578229+1042679010+1043131418
2264+1043776251+1044043847+1043397906+1041951877+1040568558+1040025960
2255+1040277913+1040868064+1041533524+1042049335+1042295889+1042766017
2247+1044000240+1045394979+1045720372+1044978980+1044593436+1045446961
2238+1046683953+1046915694+1045989421+1045000230+1044986663+1046047564
2230+1047296946+1047520520+1046490212+1045467588+1045691854+1046938121
2221+1048163830+1048649808+1048097450+1046791933+1045876735+1046355861
2213+1047904748+1049388778+1050221538+1050723159+1051466628+1052473539
2204+1052966370+1052214111+1050550599+1049040612+1048305104+1048115655
2196+1047925444+1047370871+1046365897+1045029647+1043656988+1042561063
2187+1041831991+1041495593+1042051689+1044326463+1048284061+1052581935
2179+1055838425+1057632551+1057721358+1055435924+1051048691+1046770752
2170+1044851065+1045141088+1045656068+1045237647+1044832584+1046519699
2162+1051392149+1057432581+1060281310+1058247759+1054358133+1051854732
2153+1051635312+1053454841+1056368080+1058653999+1059063491+1057676089
2145+1055127212+1052079759+1049259617+1047005747+1045305757+1044755752
2136+1046358006+1049868596+1053569188+1056035627+1057072095+1057040324
2128+1056267438+1054977563+1053369564+1051974410+1051685633+1052673094
2119+1053690943+1053536171+1052799694+1052948720+1054036409+1054632305
2111+1053965668+1052936814+1052767992+1053535687+1054336952+1054445624
2102+1054031563+1053803421+1054051360+1054297983+1054092198+1053716138
2094+1053652388+1053869801+1054134352+1054454000+1054789983+1054921705
2085+1054832068+1054625106+1054120370+1053292386+1052839633+1053334125
2077+1054152902+1054341521+1054147503+1054436418+1055063740+1055206536
2068+1054867853+1054824730+1055471709+1056537872+1057447463+1057424413
2060+1055898299+1053444389+1051900416+1052729576+1054952783+1055406575
2051+1052057748+1046747426+1043709317+1045307211+1050145121+1055400000
2043+1059652328+1062862581+1064386134+1062682684+1057913022+1053099338
2034+1050843875+1050518828+1050596283+1051421359+1053506408+1055602116
2026+1056523959+1056964046+1057868238+1058499782+1057575308+1055431494
2017+1053789855+1053924553+1055865005+1058463927+1059705625+1058549272
2009+1056723168+1056564036+1057461653+1057124285+1055586957+1055156561
2000+1057098467+1060104181+1061627112+1060308928+1057331869+1055299011
1992+1055621704+1057303351+1058500612+1058249836+1056404696+1053318689
1983+1050165402+1048822853+1050769120+1055743043+1061224195+1063969582
1975+1063034795+1060308443+1057677197+1055237269+1052675102+1050833631
1966+1050776388+1052156453+1053811174+1055364837+1057271373+1059518806
1958+1060966774+1060276326+1057357687+1053813596+1051957797+1053156373
1949+1056714792+1060347274+1062077720+1061627250+1059836724+1057575378
1941+1055710649+1055157391+1056103253+1057565549+1058242499+1057703223
1932+1056386077+1054932641+1053969060+1053851597+1054257836+1054643726
1924+1054995906+1055349886+1055072738+1053849451+1052861921+1053517967
1915+1055121260+1055682201+1054650924+1053479344+1053565451+1054424790
1907+1054753782+1054396549+1054056551+1053960338+1053791654+1053402581
1898+1052947820+1052618205+1052499081+1052481569+1052362722+1052051103
1890+1051555296+1051139781+1051549758+1053255009+1055389686+1056320666
1881+1055616652+1054484040+1054079531+1054437318+1055029961+1055483615
1873+1055665242+1055562662+1055178503+1054599842+1054220113+1054476149
1864+1055317838+1056204934+1056507070+1055992435+1055052388+1054419737
1856+1054613893+1055559962+1056620725+1057017482+1056442143+1055341857
1847+1054493246+1054377376+1055032038+1056088302+1056934213+1057210392
1839+1057022258+1056684475+1056254701+1055504103+1054415515+1053378147
1830+1052961871+1053494987+1054724365+1056031682+1056810659+1056829140
1822+1056382201+1055927232+1055785889+1056026144+1056366004+1056442766
1813+1056213517+1055857183+1055420419+1054885227+1054445348+1054286977
1805+1054288085+1054244062+1054202116+1054310234+1054503352+1054624137
1796+1054630574+1054558311+1054563087+1054911530+1055556294+1056111282
1788+1056389122+1056367250+1055988905+1055405260+1055094472+1055372451
1779+1056013062+1056576218+1056844091+1056784149+1056461109+1056122980
1771+1056110521+1056571373+1057331938+1057865469+1057712290+1057035894
1762+1056435983+1056192821+1056058192+1055926194+1055887501+1055736329
1754+1055121536+1053997716+1052749165+1052085020+1052345902+1053029012
1745+1053433591+1053386730+1053289964+1053570988+1054138436+1054484663
1737+1054303797+1053738910+1053308099+1053458440+1054057520+1054885088
1728+1055713349+1056184930+1056223207+1056129210+1056022822+1055602462
1720+1054729694+1054059804+1054694947+1056372510+1057816048+1058745574
1711+1059445228+1059883861+1059846691+1059586501+1059838177+1060753099
1703+1061659298+1062069552+1062048510+1061956796+1062204804+1063012368
1694+1063944802+1064397971+1064374990+1064149963+1063762274+1063023720
1686+1061976800+1061349687+1061742429+1062302193+1062276514+1061693700
1677+1060693571+1059302224+1057620854+1055798694+1053870217+1052104608
1669+1050955939+1050054100+1048543213+1046176517+1043357898+1040691005
1660+1038275095+1035756051+1032938332+1029855924+1026707759+1024186638
1652+1022618785+1021011893+1019163847+1018133055+1018996478+1020664904
1643+1021596991+1021811982+1021858566+1022155787+1023288883+1026106809
1635+1030003634+1032844195+1034234159+1035111287+1036281968+1037901111
1626+1039509387+1040794624+1041888127+1042776261+1043148445+1042929302
1618+1042387257+1041828115+1041117802+1039818099+1037752085+1034986695
1609+1031502200+1026911397+1020643101+1012412825+1002398113+991147864+979417796
1599+967997963+957649137+949066888+942722936+938646214+936499769+936051100
1589+937329414+940094597+943383620+945676322+945259285+940831144+932466170
1579+921478740+909265879+898084155+891800076+891113781+893810992+899952482
1570+910395167+922339672+932130464+939569511+945158435+948621333+950914381
1560+956219720+967396598+977156519+982504357+986279912+989738727+992973691
1550+996012354+998509871+999967460+1000517673+1000735501+1001033345+1002229775
1540+1005623318+1009565757+1011519153+1011683476+1011453881+1011931830
1531+1012647750+1012481696+1011271561+1009530941+1007635411+1005487997
1523+1003108288+1001051204+999556029+998151392+996810781+995915726+995223617
1513+994002060+991770132+988429680+984584837+982749319+984915906+987645442
1503+988573030+988231440+987440142+986784718+986604198+986617695+986108460
1493+984778786+982892531+981218013+980791008+981705030+982990682+983978835
1483+984745353+985720702+987044077+988290967+988947360+988923203+988688139
1473+989059285+990128493+990634752+989568936+986806729+982510864+977194935
1463+971789923+966729685+961733819+956815547+953430518+953086090+953748228
1453+953260727+951530973+948884499+945561628+941981060+938675355+935855628
1443+933436535+931328852+929488904+928116176+928071530+930262275+933735210
1434+936875207+939938995+944065070+949257168+954090718+957620688+960083874
1424+961763790+962399764+961848582+960810730+960481945+961041364+961738733
1414+962259182+962835351+963741690+964903649+966095926+967560160+969897092
1404+973004211+975989230+978453730+980694934+982864705+984843573+986804791
1394+988944453+990850642+992018485+992572020+993157049+994213382+995276430
1384+995496542+994547012+992661727+990320088+987948962+985818022+984317172
1374+984099343+985440231+987848319+990763289+993850335+996704393+999061537
1364+1001150047+1003377615+1005759538+1007934639+1009642727+1010909414
1356+1012015099+1013299090+1014800632+1016218144+1017273785+1017964025
1347+1018464400+1018896943+1019218113+1019308650+1019212091+1019279094
1339+1019888073+1020951328+1022092660+1023198623+1024381140+1025622354
1330+1026763894+1027755647+1028678528+1029573653+1030426832+1031225744
1322+1031940903+1032568778+1033229531+1034048655+1034932982+1035678250
1313+1036290205+1036939883+1037556683+1037747102+1037244234+1036197038
1305+1034883214+1033375235+1031693103+1030068907+1028842575+1028172685
1296+1027930422+1027847430+1027783196+1027840785+1028136622+1028483611
1288+1028462154+1027822789+1026671281+1025258268+1023756864+1022268750
1279+1020908759+1019800720+1018996132+1018443289+1018105229+1018090486
1271+1018523236+1019223374+1019661800+1019386036+1018416156+1017093888
1262+1015607781+1013871867+1011893760+1010020726+1008678385+1007995482
1254+1007765678+1007666143+1007480986+1007248621+1007228894+1007644893
1245+1008488105+1009632622+1010999881+1012508207+1014029753+1015499593
1237+1016940709+1018350191+1019689487+1020968217+1022214691+1023371460
1228+1024306592+1024934952+1025255084+1025227674+1024714147+1023623066
1220+1022052860+1020233677+1018411034+1016751813+1015171916+1013284831
1211+1010754919+1007719095+1004694761+1002120065+1000121816+998642285+997599934
1201+996923399+996602713+996747931+997453815+998589195+999899004+1001303433
1191+1002885199+1004628381+1006363810+1007901761+1009076733+1009761298
1183+1009901118+1009502700+1008669386+1007678602+1006826600+1006130823
1174+1005330942+1004154654+1002422893+999990233+996777903+992901289+988722679
1164+984748399+981417568+978974525+977558605+977360573+978665537+981797989
1154+986906611+993559897+1000587513+1006643311+1011088688+1014188400+1016437910
1145+1017978353+1018771728+1019009560+1019031433+1018935428+1018508700
1136+1017554601+1016198901+1014832541+1013762434+1012968090+1012206071
1128+1011225601+1009864294+1008158144+1006422091+1005012401+1003966727
1119+1003054021+1002164157+1001497382+1001409821+1002139931+1003574539
1111+1005253694+1006726719+1007909444+1008968684+1009866855+1010142757
1102+1009207209+1006794206+1003064335+998342433+992908280+987051760+981225004
1092+976102124+972489853+971109235+972340412+976041627+981507482+987671606
1082+993560797+998687484+1003042877+1006817948+1010168506+1013092751+1015408226
1072+1016926380+1017732907+1018199296+1018580548+1018709778+1018289695
1064+1017359753+1016140620+1014555047+1012366864+1009735272+1007200999
1055+1005229607+1004143787+1004321676+1006012876+1008951103+1012338900
1047+1015287995+1017357054+1018709778+1019681457+1020279569+1020266971
1038+1019563233+1018313852+1016714228+1014936714+1013029555+1010820330
1030+1008204035+1005529112+1003403294+1002264384+1002474460+1004483992
1021+1008288411+1012890704+1016828783+1019123077+1019376138+1017251427
1013+1012366172+1004725978+995052233+984595704+974557528+965590152+957783627
1003+951018623+945211594+940309657+936302083+933321564+931558240+930905308
993+930694886+929824541+927196202+922259725+915417405+907972474+901645273
983+898071903+898385252+902717526+910050463+918892070+928129258+937162599
973+945620187+953310771+960248128+966470810+971933757+976607206+980552830
963+983886845+986735089+989220286+991457613+993502239+995269300+996606035
953+997517426+998254527+999107083+1000151995+1001233939+1002131971+1002682806
943+1002794108+1002497718+1002002118+1001536144+1001170120+1000935264
935+1000918167+1001021094+1000934087+1000584399+1000259629+1000076893+999741256
925+999043817+998204344+997506282+996873285+996009516+994782491+993280742
915+991603524+989784895+987869984+985865090+983632538+981005514+978017450
905+974947155+972154424+969864352+968102136+966817314+966029408+965852833
895+966446307+967835785+969715188+971682843+973752871+976242982+979090050
885+981729810+983686736+984918744+985659998+986174494+986531450+986613612
875+986515738+986650574+987146866+987549160+987426229+986863073+986136009
866+985341873+984455954+983350683+981773278+979618320+977057330+974175653
856+970884415+967524097+965154425+964849798+966900791+970821427+975777838
846+980823887+985089504+988200915+990531686+992749910+995130934+997555565
836+999950640+1002265353+1004264918+1005926215+1007760072+1010126837+1012461485
826+1013726510+1013533254+1012456017+1011255572+1010000168+1007966202
817+1004236192+998220264+989696297+978710390+965643657+951268776+936478104
807+921671858+906358246+889579361+870845695+850640390+830341710+812046539
798+798375327+792050756+795098901+807651623+827152706+849245236+869989333
788+887358991+901042109+911517119+919472462+925664204+930803835+935298702
778+939071765+941720731+942939104+942847251+941863666+940222858+937888556
768+935117351+932771005+931760010+932318459+933797298+934975385+934830651
758+933248885+930736071+927553435+923663740+919411273+915631842+913027867
748+911781462+911779109+912902583+914838675+916664156+917045339+915137142
738+911133375+905926742+900642861+896573822+895041547+896908767+902200608
728+910204888+919817097+929802945+939071004+946996306+953494475+958779810
718+963181925+967092594+970731513+973897052+976105654+976770145+975037554
708+969927963+961080472+949050830+934692700+918713004+902106264+886606871
698+874219995+866367302+863589107+865708487+872048009+881635370+893228178
688+905162646+915599586+923281311+927796736+929028951+926958577+922142332
679+915740929+908848703+902170636+896389079+892232203+890254650+891755154
669+899158692+910877131+920014576+924309403+925881963+926765875+928140471
659+930496508+933733618+937438017+941225270+944726377+947538213+949631083
649+951560045+953871297+956473887+958862110+960694236+961813489+962000169
639+961291655+960403937+960178494+960707872+961517721+962307427+962862623
629+962627836+961205410+959132682+957451105+956472434+955616071+954607360
619+954197728+955255931+957546556+960023793+961924514+962739139+961788709
609+959032593+955901802+954290065+954821173+956465927+957646230+957701673
599+957436707+958086593+959892279+962023703+963494928+963805647+963220410
589+962640503+962758935+963415397+964077950+964675369+965512351+966526946
579+967158350+966991466+966228201+965614655+966026708+967819727+970188914
569+971432759+970658696+968931019+967643221+966382903+963679047+959341097
560+954629717+950268994+945904533+941857437+939883690+941154737+944308440
550+946638242+946991669+946346420+945727267+945178646+944840656+945337017
540+946663368+947965286+948785102+949526771+950587534+951956940+953641632
530+955736371+957994672+959693624+960142917+959434749+958267460+956886633
520+954908111+952459807+950942207+951701803+954263209+956924288+958726581
510+959974094+960989658+961664532+962506428+964245872+965776832+964742718
500+961233097+958203225+957660627+958793930+959592081+959217820+958711353
490+959836766+963241798+967526174+970171818+969931424+968323771+967764629
480+968636013+969138742+967526589+964032404+960485268+958347268+957481837
470+956880127+956034354+954971999+953885971+953160776+953017634+953077230
460+952996315+953483954+955625208+958749769+960823328+960947504+959529508
450+957129172+954399222+952786031+953911997+957752687+962224020+964711847
441+963865589+960273254+955820471+952685111+952050176+953157869+954288542
431+954967846+956641118+960291112+964085910+964757046+961120134+954655120
421+947529630+943614254+947077014+954255871+958006647+956031170+950775115
411+946387328+944389840+942822541+940163261+938144869+939801390+945666424
401+952204601+953468034+948011109+944768184+949576677+956391657+959638319
391+959625375+956674342+948583332+936358150+928124759+931509164+942685282
381+952142790+956100250+955959253+953336936+948258908+941086835
##END=
