##TITLE=S. Marschner STM155
##JCAMP-DX=4.24
##DATA TYPE=INFRARED SPECTRUM
##DATE=28/2/2018
##SAMPLING PROCEDURE=Diamant-ATR
##ORIGIN=Angelika Moesle
##XUNITS=1/CM
##YUNITS=TRANSMITTANCE
##RESOLUTION=4
##FIRSTX=3997.453
##LASTX=373.96442
##DELTAX=-1.4165319
##MAXY=0.80731726
##MINY=0.44957089
##XFACTOR=1
##YFACTOR=7.5187279e-010
##NPOINTS=2559
##FIRSTY=0.67711419
##XYDATA=(X++(Y..Y))
3997+900570150+900711260+900793151+900411917+899747594+899373099+899518965
3988+899926993+900338667+900703887+900936004+900863467+900505383+900130809
3978+899977095+900077298+900393446+900928869+901601517+902150654+902342499
3968+902250382+902208683+902396882+902576994+902409962+901953735+901601992
3958+901621811+902008435+902572634+902974875+903008884+902971863+903357060
3948+904108110+904640520+904591925+904058563+903259551+902376587+901697756
3938+901621177+902219306+902914230+903082055+902980028+903330740+903942743
3928+903905800+903018397+902038084+901700610+901994245+902438263+902773200
3918+903217139+903974294+904614201+904544756+903856729+903115826+902697017
3908+902723574+903249721+903999900+904256513+903704125+903060809+903078725
3898+903470185+903455123+902872848+902266237+902235637+902805227+903453537
3888+903985947+904682377+905383168+905352330+904581540+903970251+903935529
3878+903994668+903913966+904009333+904304791+904550147+904854404+905241820
3869+905082399+904160114+903306086+903361816+904261111+905218276+905529826
3859+904951357+903772064+902837571+903200095+904783691+905888466+905980663
3849+905875148+905869916+905666813+905098650+904363137+903763185+903682959
3839+904488550+905819972+906624613+906530275+906076110+905689882+905321095
3829+904895706+904555220+904384224+904397067+904793521+905568829+905952599
3819+905611796+905639780+906818123+908252523+908819576+908704311+908500812
3809+908513179+908799123+908882996+908182999+907084645+906414930+906200175
3799+905992554+906006982+906526708+907111995+907298608+907257226+907253659
3789+907186989+906912777+906655213+906813287+907415618+908099522+908607674
3779+908895601+908878240+908479328+907846952+907331111+907313987+907839501
3769+908332036+908253078+907867960+907592480+907347283+907131338+907284101
3759+907744846+907900463+907543647+907054520+906707455+906624454+906884317
3750+907119447+907046038+907380816+908962113+911152082+912152373+911612907
3740+910363376+908995567+908108322+908502477+910154883+911824729+912429121
3730+911944355+911007643+910239707+909803616+909473436+909178850+909122406
3720+909338193+909555406+909492699+909125022+908813868+909158794+910348076
3710+911655636+912257650+912085702+911572556+911253950+911368899+911537596
3700+911271866+910745402+910389457+910207918+910002199+909916503+910342685
3690+911245309+911846689+911557256+910792412+910182233+909885110+909677806
3680+909269382+908759565+908829961+909913570+911065196+911349159+911485353
3670+912227050+912959391+912881781+912389246+912126767+912104649+911975272
3660+911651910+911527131+912031954+912895258+913237091+912768497+912100368
3650+911925012+912249801+912464874+912425712+912517354+912772144+912809086
3640+912465191+912045272+911819418+911692816+911508740+911334018+911451820
3631+912237435+913664224+914709543+914510722+913494893+912367208+911624402
3621+911752589+912804884+913849728+914053226+913819286+913873352+914146533
3611+914162388+913930826+913731370+913537384+913292266+913229322+913530567
3601+914023657+914369216+914452455+914459193+914546158+914540767+914234924
3591+913924563+914206702+915139768+915848961+915546528+914484165+913361315
3581+912698022+912722280+913292425+913953419+914281934+914172456+913768471
3571+913290126+913079017+913596444+914839475+915821215+915558340+914202739
3561+912680898+911808161+911733405+912035442+912294275+912458532+912671306
3551+912948134+913237250+913622367+914091120+914271312+913909501+913441700
3541+913459457+913890316+914211142+914213996+914071697+913823329+913358144
3531+912839686+912647127+912887964+913271655+913476898+913468415+913472220
3521+913724790+914190530+914560744+914600065+914393633+914177767+914096669
3512+914183951+914339884+914279715+913802400+913115325+912609234+912360469
3502+912096167+911675772+911324505+911313089+911614017+911972815+912223165
3492+912404150+912596788+912764771+912797750+912681295+912560718+912587988
3482+912729018+912794420+912680264+912497139+912391545+912327253+912168782
3472+911978840+912032985+912439586+912951622+913341575+913735968+914290734
3462+914737369+914673473+914205830+913850679+913859241+914053385+914249987
3452+914444448+914609815+914668241+914720404+915086099+915963593+917061471
3442+917719294+917496135+916544282+915359201+914386419+913892536+913913148
3432+914285740+914839078+915396222+915604398+915183369+914380632+913789479
3422+913692843+913840532+913812468+913447804+912978893+912777217+912923638
3412+913127295+913144894+913103751+913268643+913628551+913880011+913793046
3403+913438925+913064113+912889867+913032403+913432662+913827055+913965865
3393+913921551+914059648+914627652+915455679+916137522+916396830+916182630
3383+915550729+914698207+914017156+913816274+914019852+914323950+914544889
3373+914667765+914733881+914822034+914992238+915201682+915408114+915669166
3363+915990467+916233128+916310421+916337691+916502583+916842672+917152320
3353+917121324+916684915+916158371+915884239+915885349+916004737+916167964
3343+916368608+916612617+916977519+917528163+918151422+918654738+918957172
3333+918951147+918319643+916815719+914632647+912203743+909780309+907446931
3323+905282488+903269857+901369400+899825362+899002330+898871606+899090484
3313+899478218+899968295+900350797+900571181+900978099+901824755+902906857
3303+904067759+905539577+907315414+908717312+909158556+908928896+908746960
3293+908917877+909319880+909872743+910630215+911565421+912488260+913194362
3284+913685866+914198934+914878874+915486596+915646810+915362848+915044083
3274+914993823+915132633+915304660+915558102+915929029+916201259+916144023
3264+915867512+915704205+915787603+915971362+916142120+916355845+916603659
3254+916735810+916713613+916674610+916725108+916907678+917239126+917571130
3244+917712952+917821480+918222294+918802269+919079493+918858078+918421511
3234+918186541+918397570+918965417+919510035+919740804+919730261+919692685
3224+919703228+919750000+919861144+920085967+920433746+920836859+921173778
3214+921376959+921485011+921546053+921556834+921534875+921551998+921655293
3204+921797830+921892563+921924035+921972631+922080128+922123808+921939098
3194+921584659+921351195+921438239+921735520+922017263+922218383+922375347
3184+922429571+922322630+922220682+922391282+922801291+923059173+922893726
3174+922535403+922440036+922735255+923108402+923196794+922917112+922459617
3165+922157024+922311293+922905617+923501685+923626623+923268538+922828483
3155+922643059+922724712+922952707+923326408+923907176+924549858+924865372
3145+924601625+923986927+923553452+923617823+924023393+924381320+924498092
3135+924495079+924535509+924605668+924623980+924550492+924291898+923712477
3125+922821348+921789585+920788264+919924564+919249776+918756606+918454252
3115+918411047+918590050+918730842+918547241+918009282+917404335+917157632
3105+917471402+918071909+918499359+918688589+918980479+919506230+919874858
3095+919577577+918515056+917079229+915865134+915312350+915426109+915796085
3085+916003468+915989437+915936957+915961532+916109459+916478563+917091596
3075+917768603+918269304+918456709+918327254+918064854+918025930+918460515
3065+919215767+919794632+919779887+919239787+918631352+918298635+918276121
3055+918562938+919178190+919895232+920355978+920465853+920318164+919821744
3046+918805519+917454516+916350296+916008859+916398257+916925911+917008278
3036+916682220+916520816+916966421+917904718+918880751+919547849+919870577
3026+920057032+920387450+920992714+921741307+922400953+922893647+923279795
3016+923560904+923675535+923695592+923887199+924514343+925553478+926595547
3006+927102114+926886486+926325537+925968245+925953420+925922186+925413717
2996+924210324+922451293+920612036+919217194+918368080+917639940+916504406
2986+914708354+912323051+909688271+907264203+905286531+903553027+901528505
2976+898513838+893883946+887584921+880483157+874070293+869800626+868526044
2966+870126684+873580057+877638219+881491693+884802847+887527605+889895784
2956+892119762+893954659+894968427+895225436+895192458+895086705+894858393
2946+894644668+894682244+894881224+894890658+894458213+893508579+892090113
2936+890455148+889010997+888024658+887468149+887159848+886888649+886392309
2927+885475891+884321093+883543724+883754357+885024737+886845841+888578077
2917+889917585+890993821+892084406+893242374+894208101+894680500+894544306
2907+893805702+892554902+891133424+890069872+889678174+889900144+890592056
2897+891714588+893177924+894738133+896139476+897302597+898362740+899505409
2887+900724419+901795185+902517855+902892112+903021885+902984547+902857231
2877+902716360+902511276+902108638+901593827+901336580+901558629+902014301
2867+902311265+902403858+902565975+902977412+903504273+903890738+904083852
2857+904296705+904744687+905381582+905921761+906095770+905922475+905721513
2847+905719610+905649135+904930984+903309098+901163285+899204640+898001881
2837+897758824+898342287+899427402+900691837+901975219+903295067+904701483
2827+906118125+907388664+908464266+909451635+910451926+911435886+912258997
2817+912741861+912823276+912729256+912857206+913405630+914217405+915005397
2808+915569914+915832710+915849516+915789743+915764851+915739404+915707059
2798+915811306+916122777+916417997+916426796+916253263+916263569+916561167
2788+916895232+917109115+917314517+917559238+917665467+917509691+917226997
2778+917036182+917016284+917121244+917310474+917586826+917960211+918441727
2768+919012902+919553636+919859083+919805493+919517091+919358699+919651620
2758+920317609+920917958+921131286+921026564+920850415+920813790+921087447
2748+921684308+922343320+922747305+922807316+922618246+922288541+921918328
2738+921617400+921443312+921366019+921310844+921228398+921105760+920906066
2728+920584289+920216692+919961744+919784406+919396751+918643957+917778116
2718+917158345+916837123+916625935+916417997+916257782+916226151+916399129
2708+916804303+917356532+917937855+918514580+919090433+919648449+920212490
2698+920818230+921380923+921757637+921960660+922186752+922623874+923280588
2689+923959973+924385759+924400187+924061921+923585875+923223906+923132343
2679+923289863+923584845+923969328+924434196+924907229+925320331+925712028
2669+926125843+926479330+926651277+926632410+926494075+926295729+926112684
2659+926065832+926196953+926370565+926421776+926350429+926294461+926382535
2649+926672444+927102589+927465748+927586721+927559847+927640073+927883051
2639+928084568+928117625+928155598+928447647+928981008+929496295+929775105
2629+929782319+929600700+929390384+929350191+929527212+929701696+929604664
2619+929219943+928758563+928401984+928179935+928038112+927899936+927733935
2609+927635079+927697468+927764218+927623822+927507288+927945916+928970702
2599+929909555+930183212+929954108+929797619+929988672+930368398+930798306
2589+931417126+932324507+933311004+934128011+934771327+935295096+935596658
2580+935559795+935238256+934870420+934819764+935316104+936075320+936425477
2570+936070642+935524676+935510962+936103304+936721569+936870605+936613517
2560+936357935+936392895+936672339+936905883+936834377+936511966+936252340
2550+936183768+936020937+935522060+934919254+934529142+934237014+933821455
2540+933495793+933660844+934330083+935075663+935378572+935007645+934273560
2530+933844603+934140378+934957940+935727144+936086418+936221423+936567775
2520+937180174+937692052+937940579+938170000+938542117+938968774+939464005
2510+940130786+940776322+940992029+940662721+940114218+939775476+939874332
2500+940367263+940984815+941427723+941685208+942036713+942584027+943015758
2490+943096381+943078782+943231941+943260401+942702543+941737054+941106184
2480+941242617+941801901+942145637+942091096+941999137+942197879+942605194
2470+942959949+943131183+943106052+942971127+943009020+943546028+944581200
2461+945691921+946325248+946180413+945453779+944722626+944405606+944369695
2451+944259106+944053150+944006298+944200839+944487418+944728810+944827031
2441+944688617+944376354+944108008+943996865+944004554+944081768+944139480
2431+944100873+944180069+944738323+945708410+946562359+946912992+946785439
2421+946385814+945983732+945920787+946393583+947197510+947806341+947816013
2411+947347973+946868281+946599698+946394138+946146879+945911988+945648716
2401+945280563+944959896+944963701+945323451+945685499+945574673+944940712
2391+944399264+944614099+945478354+946273164+946521057+946322394+946014411
2381+945866167+946003392+946387558+946872324+947291926+947440646+947150262
2371+946574013+946226947+946540638+947402197+948199307+948455127+948429521
2361+948757640+949440276+949693322+948952815+947673476+946910614+947115777
2351+947606727+947531495+946892856+946357354+946451216+946988700+947366762
2342+947344327+947095562+946867805+946935902+947541642+948632861+949735417
2332+950208688+949742868+948618275+947460702+946812154+946872800+947479649
2322+948369510+949428068+950492016+951173543+951286668+951167835+951233395
2312+951456633+951544787+951418423+951263520+951216351+951226578+951236249
2302+951278740+951319329+951220394+950930248+950496139+949961191+949508294
2292+949508373+950078677+950821721+951308389+951586406+951970731+952591533
2282+953331088+953961562+954173464+953713194+952713695+951730528+951276600
2272+951473281+952269280+953648981+955335792+956611008+956879671+956347578
2262+955853695+955995677+956600465+957135174+957406056+957576815+957738456
2252+957887176+958162260+958704738+959436287+960204857+960941321+961556653
2242+961900944+961846323+961337933+960534482+959944043+960101324+960956462
2232+961783379+961828486+961019724+960055899+959743873+960203034+960902476
2223+961436631+961848939+962201950+962379606+962416706+962531100+962807294
2213+963226737+963811231+964385499+964475158+963650462+961794398+959104363
2203+956096435+953417815+951468128+950275279+949472779+948150553+945416678
2193+941887676+940026619+941778911+946037321+949594386+950775583+950935956
2183+951921739+953580329+954783960+955586697+957129704+960158560+964169712
2173+967531602+968687589+967802643+966709759+966761764+967469372+967817547
2163+968141226+969670122+972370701+974420354+974564238+973367504+971422415
2153+968906388+966844289+966460281+967456212+968513819+969018562+969159196
2143+969168471+969266772+969563339+969728469+969451403+969014281+968747838
2133+968292404+967199678+966014836+965827351+966654901+967172487+966407405
2123+964864002+963569918+962940317+962953556+963577687+964597242+965487182
2113+965739910+965274012+964539847+964117311+964220369+964772756+965733330
2104+966943303+967902133+968131079+967725905+967360052+967701568+968829174
2094+970282521+971574860+972380848+972455288+971887283+971259822+971104205
2084+971362007+971583739+971391815+970658205+969640077+968998188+969221823
2074+969948694+970338251+970227187+970366235+971293514+972517043+973096067
2064+972675593+971726434+970945973+970621659+970715917+971479017+973284265
2054+975518787+976616586+975923723+974711610+974601418+975573804+976521535
2044+977123787+977891644+978902636+979529463+979277765+978425084+977758382
2034+977692822+977913206+978125108+978790938+980637726+983533956+986103652
2024+986884827+986196324+986055928+987477962+989034524+989075827+987944732
2014+986881101+986262598+985906178+986102066+987578879+990323614+992588022
2004+992241670+989408623+986330537+984630090+984048529+983702336+983316425
1994+983084784+983183006+983714465+984780554+986234773+987470034+987993645
1985+988195003+988797413+989702257+990321315+990757247+991640687+993073185
1975+994483881+995070278+994143237+991937334+989908292+989307072+989732144
1965+989959504+989680456+989469506+989559324+989533481+989132825+988695228
1955+988540404+988397868+987908900+987372209+987320046+987637859+987783091
1945+987522593+986871746+985881048+984940213+984598618+984836918+985108514
1935+985043429+984659184+984023637+983166358+982260642+981647926+981638096
1925+982233055+983040232+983709233+984432695+985550551+986772256+987454496
1915+987635481+987978662+988837685+989982652+991027496+991768557+992149315
1905+992162395+991909191+991619283+991417290+991183429+990821302+990428574
1895+990050036+989652076+989436765+989757908+990725775+992156608+993760736
1885+995187526+996090070+996320205+996017375+995502088+995052996+994740811
1875+994587335+994759362+995381036+996424214+997868524+999511575+1000792182
1866+1001412270+1001617672+1001645497+1001529280+1001340765+1001154786
1857+1000946451+1000743111+1000553406+1000208640+999667668+999280489+999456717
1847+1000308447+1001660639+1003037882+1003860993+1004129814+1004379768
1839+1004931442+1005615426+1006114224+1006370837+1006509013+1006480395
1830+1006041370+1005170773+1004327367+1004069010+1004548227+1005396786
1822+1006138561+1006542942+1006504494+1005962492+1004977976+1003654640
1813+1002107115+1000616588+999587996+999303320+999867995+1001195612+1002928562
1803+1004691477+1006430848+1008258293+1010046655+1011472177+1012465491
1795+1013500980+1015293307+1017792686+1019874762+1020951553+1021679931
1786+1022819745+1024423794+1026099507+1027717825+1029425248+1031105242
1778+1032463855+1033620476+1035040289+1036855051+1038528623+1039520273
1769+1040107383+1040970924+1042395336+1044241252+1046511130+1049316352
1761+1052214484+1054583853+1056545272+1058494880+1060460184+1062504684
1752+1064906714+1067534439+1069755009+1071266226+1072280945+1073040240
1744+1073619660+1073741823+1072655757+1069590830+1064417826+1057149506
1735+1046889985+1032741238+1015943282+997385898+975453782+949470718+921168545
1725+892233205+863582302+836818539+813051288+791102365+769352105+749915801
1715+737746152+733951024+736298275+742908771+752370469+763568288+776098479
1706+788983030+800189489+809610360+819679542+831185898+841444071+849686204
1696+857207173+863408769+867542480+870582118+873393761+875864522+878188862
1686+881667049+887062340+892311132+895415934+897002462+898008619+898835853
1676+899941659+901777666+904311846+907557282+911778671+916360760+920031506
1666+922789400+925614203+928988856+932369218+935005505+936795294+938073285
1656+939496270+942275648+946841486+950400692+951513077+952053256+953640498
1646+956169526+958330798+959792390+961008625+962075903+962998108+964331750
1636+966766045+969545740+971097388+971476005+971685528+972341845+973440595
1626+974788665+976464457+978560090+980664283+982286327+983590162+984861335
1616+984953214+980915743+969823281+949381296+919557996+886500519+861329706
1606+851644611+856349339+868946201+882920623+894287852+901786624+906098069
1596+908706689+911003758+913971097+918180833+923742998+930189633+936652441
1587+942388377+947103648+950823702+953669830+955785360+957390598+958835145
1577+960178062+960423259+958333018+953596342+946288306+937595495+930797196
1567+928446854+929894493+932365413+933036078+930098547+922691258+914053068
1557+910628630+913145291+919252947+926810461+934298293+941108325+946932890
1547+951605670+955325724+958157186+959708517+959377623+956785810+953180228
1537+950812208+951086974+954607652+960293883+965472040+968970046+971561780
1527+973858216+975357304+975007464+971810386+965412505+957359681+950203297
1517+945821059+945520211+949397151+955930275+963011664+969029264+973375986
1507+975859907+976359973+976203881+977075984+979295919+981828911+982156871
1497+976409124+962360421+943089405+924127798+909838734+903784193+907380420
1487+917445717+929178244+939595284+946792098+948781343+944059967+932718899
1477+916363376+897461860+879117726+865288219+859718364+862086543+868335784
1468+874976960+879565233+879615176+874357110+866263538+858602332+853928600
1458+854773037+861517904+870046774+876836512+880974979+882535109+882637453
1448+883440904+886553633+891857362+898333012+904952943+910616738+913456603
1438+909859425+897276833+881305238+871751185+872861985+883228685+897941949
1428+911718660+922756977+931879299+939613914+945875442+951191617+956434225
1418+961364966+964997580+967206655+968316662+968209007+966266533+961561092
1408+953125132+940487682+924765961+909396301+898256908+893326247+894678915
1398+900773966+909087446+917575807+924877184+930195975+933940922+937448678
1388+941878639+947322526+952920286+957999429+962450636+966153567+968772730
1378+969975727+969361347+966179173+959689491+949999481+937566718+921947897
1368+902892826+882956931+867416354+861260895+866077876+878375634+892415378
1358+904831969+914897108+922782028+929075028+934652731+940072440+945167517
1349+949363142+952355373+954424052+956182528+958268647+961230437+965343219
1339+970397232+975915241+981582445+987238314+992651283+997587890+1002051068
1329+1006275310+1010430505+1014433729+1018102571+1021387010+1024393828
1320+1027258347+1029995234+1032452281+1034434629+1035725066+1035846753
1312+1033971426+1029010799+1019594287+1004916221+986945710+970860594+960990392
1302+956568279+953485912+949776085+947018111+946541668+946681351+944204723
1292+936780470+923814900+906228397+885822719+863951248+840273577+813257561
1282+782422476+749887341+719212392+693038672+672582258+658709942+651724753
1272+649878559+649733922+648972605+648331430+650505505+657628870+669814850
1262+685520160+702757538+719896931+735813984+749749403+761063597+768975629
1252+772300260+769384450+759035824+742397369+723611594+707903113+699131662
1242+699067925+707526320+722118848+738775933+753800351+765686275+775062673
1232+783388362+791791978+800497155+808523501+813723618+814028747+809912001
1222+805468881+805759265+812677348+823973309+836091747+847001163+856358059
1213+864316546+870994665+876595437+881415034+885705550+889647495+893389746
1203+896983199+900205961+902441593+902734593+900108691+894383299+887199010
1193+881900196+881539337+886641311+894879877+902573823+906533764+905515953
1183+900931089+895843305+891980556+887302781+878002170+864262798+852769998
1173+851267183+860764951+874457630+883406499+881675610+867461461+842849457
1163+814036992+790086457+778792796+782237052+796129504+813612078+829815869
1153+843444415+855379807+866694239+877699260+888079120+897431815+905646360
1143+912900648+919407850+925217511+930232838+934238441+936770243+937131658
1133+934763796+929532920+921507525+910486331+895903791+877531118+856738182
1123+837139682+823354568+818317995+821402186+829043177+837012525+842095235
1113+842086277+834884945+818338528+792055408+760196567+731683365+715457695
1103+713908029+720711956+725603852+722262018+712799607+705212919+706311273
1094+716578563+731063832+744408335+754916859+764477412+775417508+787992728
1084+800754481+812365877+822411038+830994529+838378748+844948735+851041805
1074+856598500+860974316+863298181+863421057+862512567+862299793+863746877
1064+866800943+871133078+876538438+882600749+888265813+891884871+892096455
1054+889339433+886416329+886346964+888614226+888273661+880844968+868599928
1044+860056630+862026453+873457815+887786675+899307063+905767968+906562382
1034+900822958+887469100+866235792+838440107+806733078+774037411+743206449
1024+718053789+703565270+703234138+715730321+735195640+755314264+772733339
1014+787040874+798937421+809026104+817571464+824673148+830541473+835639325
1004+840594641+846020215+852260022+859153610+866092146+872311976+877230191
994+880875885+884110936+888080627+893190053+898293692+900242903+894780307
984+880239625+861489445+847661364+842761699+839360568+825325263+797887980
975+768362755+751689181+753646161+769263635+790212108+810694048+827944823
965+840659012+848346379+851710013+852822636+854262823+857752981+863498112
955+870543511+877623077+883914413+889223771+893695510+897614385+901295991
945+904823725+908005899+910710521+913008859+914962034+916497113+917540926
935+918167356+918410968+917661582+914059885+904576942+886707982+862178740
925+839456491+829642971+837125412+855194938+872389903+882168780+885946387
915+888834452+894088475+901100896+907441620+911832578+914871105+917701140
905+920877210+924295465+927615736+930609553+933214050+935432479+937348871
895+939167596+941113240+943334523+945869972+948560721+950949750+952300118
885+951886303+949636640+946530570+943777273+941189027+936893595+929472116
875+920314755+912967477+909392655+906926888+900173696+887478454+874987821
866+871860188+881160720+897577364+913757610+925987350+933896528+938072572
856+939046543+937075927+932465616+926355899+920567642+916362821+913914574
846+913093683+914174993+917420586+922433060+928620228+935940156+944292401
836+952610321+959613387+965108248+969777461+974106505+977929775+980466968
826+980593570+977692109+972737903+968425427+967633074+971353763+978185674
816+985522963+990691766+991640766+987847779+980390626+970117946+955574965
806+933034176+899026747+853759190+802227806+750873759+703047842+659602141
796+624485142+606471822+611906632+637125684+671107745+704055902+731007071
786+750802412+766265696+783375678+806220803+833170783+859350132+881503346
776+899483925+914519601+927446087+938351540+947038881+953392289+957365943
766+958739381+956970837+951184483+939513869+918768101+887927705+853456201
756+826213697+808399357+787277272+748046974+692161574+638300300+605279963
747+597934786+609964793+634736259+668680823+706057276+734964237+742064018
737+724105953+694753150+675504252+676992321+691490591+703719380+704320997
727+692842466+674607970+658019973+651027371+656782492+672517252+692872195
717+714193498+735619840+755548045+766737143+758225635+727275681+688529436
707+664491183+664394983+676862548+685039358+684240743+682353683+687821987
697+701581732+719057806+735999488+751088911+764685747+777060797+788040927
687+797490020+805652719+812957109+819520517+825162512+829915835+834068730
677+837772375+840882567+842891472+843269376+842576989+843159422+847990831
667+855950745+861894857+864729252+866328623+868021776+870355075+873498325
657+877158843+880534845+882943375+884494785+885932039+887849065+890164764
647+892184213+892988853+892071801+889975059+887872847+885855380+882071985
637+874638377+864522027+855882093+853172159+857863648+867664088+878457763
628+887157708+893093337+897122960+900095056+902453008+904657247+907140692
618+909802347+912020697+913344509+913902683+914098651+914263860+914673156
608+915534002+916719400+917704787+917838127+916063796+910098677+897557070
598+880016942+864879874+860181567+867247023+880208153+892425367+901295516
588+907293376+911464901+914673552+917345592+918764692+916985684+910356241
578+899933573+890199248+886122695+888957248+895865422+903290389+909092044
568+911929452+910467384+904021700+893648737+882207228+872954816+867643001
558+865974105+866933966+870103377+875393867+882182256+889404280+896256010
548+902230722+906606617+908504538+907589864+904476263+900635076+898151552
538+898736680+902221446+906712370+910681189+913917349+916172720+916112947
528+911853268+901864154+886343475+868731445+854622652+848495574+851395529
518+860461328+870643794+877955635+880980052+879678358+874628468+867932751
509+863386255+864320827+871047541+880808264+889985206+896180064+899107053
499+899908443+899495896+897845868+894897714+891523377+889076636+888235450
489+888804803+890331320+892271970+893726110+893508500+890892983+886405627
479+881637162+878179587+876999976+878772484+884003677+892236851+901658119
469+909879165+914910981+916353388+915931011+915780944+916530805+917660235
459+918934024+920648106+922727804+924278817+924016655+920516272+912474625
449+899953074+886169388+877167801+877568774+886773145+900354047+914101663
439+925640998+933274775+936188524+936553030+938439852+942906518+946384704
429+945475104+941928503+940900228+944974007+951322897+955213313+954956462
419+952699822+951502533+951572295+951464799+950982014+950921845+951683518
409+952492281+951686531+947944438+941707405+934956037+929101189+923694006
399+917723734+912115748+909924193+911982328+915345645+916708698+915055975
390+911602601+907489343+902443416+896383325+891167591+889119762+890573505
380+894207150+898148143+899321095+893884660+883529930
##END=
