##TITLE=X8710
##JCAMP-DX=4.24
##DATA TYPE=INFRARED SPECTRUM
##DATE=2/11/2018
##SAMPLING PROCEDURE=ATR platinum Diamond 1 Refl
##ORIGIN=ComPlat
##XUNITS=1/CM
##YUNITS=TRANSMITTANCE
##RESOLUTION=4
##FIRSTX=3997.453
##LASTX=373.96442
##DELTAX=-1.4165319
##MAXY=1.0018301
##MINY=0.4403201
##XFACTOR=1
##YFACTOR=9.3302699e-010
##NPOINTS=2559
##FIRSTY=0.85133648
##XYDATA=(X++(Y..Y))
3997+912445715+912512281+912432364+912527358+912887659+913267188+913465481
3988+913549743+913629277+913640521+913447338+913046791+912644072+912530169
3978+912776757+913022707+912769539+912017890+911389472+911449075+912134158
3968+912968726+913593950+913923906+914007976+913969710+913922565+913802145
3958+913479791+913103583+913002265+913182415+913280028+913079691+912824989
3948+912932760+913477108+914067707+914263445+914052056+913818818+913765604
3938+913773270+913835109+914110700+914518913+914618443+914154077+913589350
3928+913616373+914296089+914983471+915126952+914967756+914957790+914937731
3918+914455861+913589478+912945409+912857122+913152709+913634707+914406862
3908+915604990+916852562+917214204+916106408+914293150+912900691+911941422
3898+911201273+911225229+912453317+914353264+915628179+915515809+915135449
3888+915745149+916558253+916016972+914537439+913765987+913387352+912461239
3878+912130580+913489821+915325245+916021252+915671109+915074568+914065471
3869+912872135+912509726+912668859+912049001+910650409+910015667+910971613
3859+913190975+916128192+918794544+918798952+914457458+910037131+909297301
3849+911001319+913563605+916164605+918009677+918489375+917915449+916977326
3839+915639295+913827954+912495544+912371355+912993449+913662049+914254309
3829+914773998+914873464+914720911+915403758+917088546+917744434+915837971
3819+913626403+912980417+912670009+911815764+911461021+912280258+913921798
3809+915726304+916785613+916788615+916802222+917162459+916487023+914579985
3799+913708173+914417786+914961431+914508884+914031485+914327072+915094244
3789+915805519+916344117+916733612+916834420+916617025+916252956+915732309
3779+914995098+914495276+914794313+915782712+916916318+917586515+917260136
3769+916090309+915096097+914821655+914952168+915453970+916570391+917849139
3759+918350429+918007696+917815025+918294468+919068858+919278459+917873989
3750+915286916+913660644+913553384+913597911+912859103+912662471+914144942
3740+916531614+918427408+918522913+916365837+913387224+911704416+911994765
3730+913673548+915628690+916582273+916037861+915034705+914756814+915067094
3720+915409380+915786098+916381361+917194912+918035230+918310949+917305685
3710+915526605+914412228+914534884+915607800+916891084+917368163+916731184
3700+916088584+916386216+917287415+918201645+919031167+919771828+919948401
3690+918676872+915943953+913737623+913800612+915841549+918477493+920474797
3680+921645199+922524933+922711664+920706757+917553679+916634210+917641327
3670+917695947+916102767+915310680+916309364+917809020+918710474+919096392
3660+919647575+920508336+920936225+920401076+919867461+920489682+921778396
3650+921870898+919350199+916046102+914722700+915376927+916744728+917757466
3640+917986232+917731721+917429235+917097746+916774369+917091293+918566354
3631+920300141+920174866+918049604+916819151+917457280+918841179+919995802
3621+920307104+919465381+918209247+917724183+918002777+918339058+918519528
3611+918627937+918321618+917415820+916695857+916891787+917591754+917988212
3601+917931612+917940236+918289676+918588394+918382882+917906378+917976777
3591+918903721+919804025+919230930+917154921+915513956+915323904+915923574
3581+916528164+916836336+916863870+916810208+916955861+917490691+918462736
3571+919715100+920609016+920026274+917652890+915376416+914957151+915764569
3561+916417838+916528100+916651522+917156199+917723864+917891621+917594756
3551+917225767+917239758+917688984+918185675+918315677+918045323+917634236
3541+917352959+917435304+917944452+918533582+918648252+918158524+917506086
3531+917134862+917098768+917218357+917357494+917502062+917705529+917998880
3521+918293381+918406007+918222663+917857954+917619096+917680040+917810809
3512+917636152+917149427+916773220+916900922+917521929+918173090+918207650
3502+917521929+916867575+916914657+917445078+917828185+917880761+917907080
3492+918110612+918339761+918307500+917916535+917429235+917255601+917515349
3482+917939533+918233331+918324620+918201070+917841536+917374998+917008373
3472+916800881+916742045+916883673+917195231+917526465+917812406+918072602
3462+918250963+918330945+918453281+918661667+918728106+918481581+918161655
3452+918181394+918575745+918894266+918704852+918096622+917525443+917195998
3442+916926092+916680142+916879393+917852077+919164427+919971846+920008387
3432+919784732+919774766+919860114+919739375+919514379+919512654+919650386
3422+919400028+918546678+917599228+917180283+917372826+917884466+918450023
3412+918921480+919207740+919285422+919299157+919529966+920012156+920276057
3403+919927703+919329246+919121881+919305673+919372239+919022926+918182736
3393+916718025+914773998+913036442+912080368+911724795+911434191+911111645
3383+911111964+911615810+912387454+913104669+913645567+914092685+914593337
3373+915172565+915651880+915858542+915880773+915967654+916238007+916618175
3363+916965188+917117933+917033735+917016742+917507236+918430091+919102972
3353+919072436+918688818+918577022+918910428+919424048+919822359+919976254
3343+919902788+919681497+919387954+919109360+918953166+918907170+918799336
3333+918554472+918374832+918485222+918794097+918947928+918706450+918201134
3323+917789536+917683362+917823394+918133738+918652532+919258463+919549259
3313+919271751+918678213+918218319+918066597+918133802+918281946+918347235
3303+918196151+917942663+917891557+918125625+918372916+918408052+918343466
3293+918405688+918679874+919141110+919653516+919927894+919804280+919530861
3284+919448260+919556797+919707434+919969163+920455952+921019848+921395608
3274+921503826+921466774+921412090+921342777+921230023+921210858+921487791
3264+921990424+922422018+922683874+922926311+923168939+923246812+923139553
3254+923078608+923298238+923799465+924349626+924703794+924836734+924870337
3244+924807987+924579477+924310466+924243580+924398369+924575772+924659906
3234+924687376+924683287+924624132+924491255+924270411+924015454+923923526
3224+924188704+924768827+925413918+925877454+926017613+925828583+925496200
3214+925313941+925411235+925617769+925683760+925572284+925438577+925365686
3204+925252422+924998039+924661120+924365661+924164365+924062408+924006829
3194+923805342+923268149+922492353+921785550+921280746+920845639+920362491
3184+919862797+919394790+918948503+918535754+918280030+918418017+919114790
3174+920187515+921161988+921730930+922016488+922290802+922631490+922962532
3165+923227839+923408628+923508222+923597083+923735198+923808600+923606857
3155+923145238+922753826+922727890+923010956+923351389+923634902+923864817
3145+923915413+923566164+922825056+922076219+921862338+922510815+923824635
3135+925089903+925592088+925237793+924552199+924105593+924142389+924580563
3125+925059239+925124336+924642594+923929020+923354583+923042514+923023477
3115+923359183+923936047+924389042+924423283+924048864+923378795+922427256
3105+921282024+920246799+919543126+919067708+918684665+918525788+918677511
3095+918822333+918602895+918180500+918030886+918289229+918627618+918710602
3085+918519783+918269425+918190338+918413737+918952463+919760329+920792296
3075+921965317+923086657+923894203+924209850+924100737+923905255+924008554
3065+924441298+924752281+924456886+923560925+922454343+921445117+920634249
3055+920035857+919534822+918941986+918325387+917998433+918003799+917985337
3046+917730316+917449103+917446100+917831954+918504643+919117729+919216812
3036+918673039+917830740+917072320+916422310+915677050+914730558+913707790
3026+912911040+912635448+912866449+913183246+913154370+912810871+912532660
3016+912524803+912647203+912738492+912857378+913162292+913672718+914207483
3006+914543955+914622276+914546894+914431904+914347451+914290276+914047967
2996+913243104+911688829+909588225+907252979+904754255+901997381+899151645
2986+896908071+896109404+897041970+899225558+901897212+904500959+906739167
2976+908481195+909769844+910763035+911585721+912302553+912957994+913469122
2966+913524573+912849584+911623093+910392193+909473810+908606981+907196442
2956+904661050+900471661+894067701+885036421+873634759+861219912+849990670
2946+842037162+838420996+838841794+841950090+846118589+850164049+853499002
2936+855919404+857502044+858478944+858948932+858868056+858395960+857928719
2927+857657855+857352174+856713152+855758099+854710672+853659348+852509517
2917+851214543+849883411+848666885+847665390+846908823+846361536+846028961
2907+846068824+846643133+847685577+848976271+850353335+851673543+852733107
2897+853471979+854156678+855160537+856603209+858296813+859968378+861470908
2887+862846950+864247395+865758997+867304840+868749811+870031625+871068512
2877+871668182+871766690+871686325+871872672+872388081+872917480+873243603
2867+873441705+873597579+873631693+873496708+873361531+873489106+873948872
2857+874480827+874686786+874341051+873396603+871739156+869307447+866550189
2847+864384169+863527177+864062901+865620818+867702256+869899196+872041962
2837+874115927+876006866+877490168+878445795+878899748+878874322+878343837
2827+877313467+875882294+874241265+872590399+871057332+869727223+868697044
2817+868007234+867594805+867408394+867495595+867901699+868562442+869369669
2808+870287349+871362885+872671338+874272376+876176220+878325631+880592394
2798+882773554+884648587+886129589+887327460+888396033+889388968+890300579
2788+891090941+891626025+891789822+891729835+891805920+892212344+892772344
2778+893201638+893493967+893895153+894517055+895201498+895841351+896583545
2768+897570666+898679293+899640095+900293363+900662544+900868822+900991669
2758+900999208+900857068+900668421+900583137+900576174+900467700+900226861
2748+900114555+900418766+901149077+902089947+903023918+903806167+904370957
2738+904789327+905190321+905590677+905932323+906236088+906536466+906750857
2728+906824962+906914845+907221548+907727822+908276130+908816709+909415613
2718+910071309+910667977+911105512+911396755+911619899+911833588+912068230
2708+912370461+912788959+913309798+913849482+914315829+914667122+914939008
2698+915205337+915474221+915693659+915914759+916305468+916878563+917382281
2689+917607277+917627528+917593862+917489988+917288692+917163226+917305366
2679+917623695+917828121+917794646+917691603+917737790+917945474+918152008
2669+918230904+918187144+918083973+918004311+918061230+918307819+918645122
2659+918944095+919211318+919494639+919684500+919550601+918970031+918052926
2649+917054688+916178085+915453012+914802235+914171645+913594078+913183373
2639+913031204+913068831+913161525+913362310+913832362+914470809+914940925
2629+915147714+915400180+916003939+916925453+917920751+918819906+919608415
2619+920351311+921111839+921884953+922568885+923050819+923313251+923402176
2609+923373876+923346278+923440250+923577918+923591014+923622636+924074034
2599+924988648+925834077+926089290+925816062+925509040+925546539+925876112
2589+926192845+926360921+926562792+926991064+927548508+927946116+927982465
2580+927701635+927387139+927355389+927657364+928051906+928274858+928203820
2570+927836493+927299683+926845730+926723649+927072706+927835726+928638673
2560+928998909+928879384+928768419+929030404+929542107+930064543+930505464
2550+930695836+930386131+929611995+928745230+928150861+927976397+928155589
2540+928440060+928528091+928302711+927938706+927756703+927931934+928334206
2530+928715077+928985877+929137855+929025101+928545403+927964578+927754786
2520+928139746+928949655+929823001+930449886+930749242+930915082+931219422
2510+931733361+932305115+932791329+933182229+933505222+933745039+933857282
2500+933790652+933597725+933535247+933806814+934209980+934368794+934260895
2490+934144436+934090647+933962370+933693039+933315362+932939601+932885620
2480+933501581+934629820+935589152+935940893+935953542+936042147+936121235
2470+935892469+935470585+935297207+935577845+936062462+936310329+936104497
2461+935684338+935552228+936006884+936923542+937926954+938666912+939025104
2451+939154148+939235152+939233172+939067395+938892100+938933432+939167627
2441+939424565+939658122+939856096+939877944+939666746+939435298+939379975
2431+939409553+939383105+939391410+939566769+939785121+939795023+939624200
2421+939685208+940331130+941342719+942071944+942168024+941923927+941786962
2411+941804849+941761281+941631343+941609175+941772077+942016302+942321024
2401+942788840+943379248+943877280+944215861+944570348+945046085+945536580
2391+945976031+946419316+946743331+946625914+946016214+945319569+944928796
2381+944875581+945057457+945446441+945955397+946478408+947131485+948006044
2371+948741083+948888206+948523178+947956215+947263531+946617545+946447489
2361+946807534+947172626+947095902+946591353+945878865+945173085+944731972
2351+944816362+945468033+946458285+947483481+948354846+949006262+949362538
2342+949387708+949245440+949117418+949009584+948932413+948967868+949050916
2332+949020763+948897149+948830839+948888206+949115566+949593283+950230390
2322+950670225+950630553+950289226+950093871+950205986+950349915+950248788
2312+949995939+949901903+950152197+950736982+951531624+952353799+953063796
2302+953652734+954131282+954363817+954212478+953892296+953922449+954530232
2292+955318230+955763048+955843860+955907424+956130951+956451261+956839798
2282+957288449+957629904+957703050+957632778+957664081+957822958+957979727
2272+958100786+958199294+958193800+958015183+957772363+957759906+958298057
2262+959383878+960537862+961325924+961907196+962605566+963202425+963299847
2252+963163137+963475526+964336670+965094259+965207971+964929505+964971093
2242+965632794+966461996+966887968+966998614+967362300+968156239+968923795
2232+969276877+969302558+969152879+968831803+968579976+968813852+969445464
2223+969893221+969876228+969596675+969202580+968746775+968509641+968707359
2213+969103881+969483027+970123391+971187556+972090927+972260408+972196270
2203+972878797+974256052+975227842+975233655+975003676+975421152+976485444
2193+977781632+979093279+980009618+979846142+978637090+977419734+977027620
2183+977412260+978419760+980119242+982004560+982972772+982560342+981581526
2173+981177465+981579609+982133923+982304299+982326019+982980693+984815543
2163+987245464+988397596+986742768+983401299+981394795+981943104+983599592
2153+984700490+984804172+984292149+983682449+983211822+982665749+981780202
2143+980851470+980446259+980463572+980210786+979550491+979159910+979490824
2133+980291982+981158300+981684569+981250931+979639416+977813446+977198507
2123+978056904+979235547+979657048+979367721+978828804+977989891+976690445
2113+975418660+974995882+975669210+976802113+977419926+977110604+976340877
2104+975731049+975366340+975177693+975391893+976049761+976654415+976879858
2094+977180364+978265163+980263873+982620073+984562949+985556523+985541574
2084+984981959+984548384+984607348+985151057+986116778+987330620+988292891
2074+988685772+988967305+989753323+990727859+990836844+989551196+987591327
2064+986338260+986561787+987782082+988934916+989540209+989955896+990588530
2054+991403103+992310882+993345469+994231271+994552412+994617892+995192840
2044+996141248+996382982+995290006+993363228+991692749+991264477+992265717
2034+993542165+993488822+992083203+991241798+992574655+995487980+997963002
2024+998555454+997245659+995178338+994000079+994585886+995895234+996030028
2014+994907729+994586014+996624971+1000284769+1003518211+1004884862+1004109002
2004+1001807231+999403374+998460332+999437999+1001576357+1004084216+1006712174
1994+1009199909+1011108480+1012180950+1012325645+1011642479+1010932610
1986+1011374170+1013047140+1014528845+1014649775+1014004620+1014041608
1977+1015130368+1016421701+1017368704+1018113708+1018551307+1018315131
1969+1017557095+1017063023+1017727279+1019841937+1022426072+1023646431
1960+1022707158+1020885915+1019836507+1019775627+1020042019+1020191378
1952+1020002731+1019349143+1018486274+1018038454+1018489916+1019660509
1943+1020597355+1020279984+1018833096+1017488484+1017202160+1017884559
1935+1018763910+1019235878+1019363070+1019647222+1020454257+1021635902
1926+1022640783+1023076530+1023140477+1023333915+1023744747+1023980348
1918+1023820704+1023636593+1023958691+1024802778+1025666414+1025946350
1909+1025358881+1024194995+1023163411+1022754431+1022724598+1022363147
1901+1021272280+1019775882+1018600369+1018199695+1018290984+1018135045
1892+1017283420+1015783125+1014125551+1013383804+1014519901+1017349922
1884+1020786321+1023840699+1026208015+1028078384+1029648183+1030788624
1875+1031234081+1031216065+1031542380+1032800366+1034739218+1036472685
1867+1037472136+1038117036+1038908931+1039835427+1040528239+1040739117
1858+1040664630+1040762051+1041219263+1041800726+1042293904+1042773283
1850+1043345994+1044043406+1044912536+1045766844+1046070225+1045719379
1841+1045435355+1045814629+1046916676+1048465585+1050072947+1051605630
1833+1053171213+1054683134+1055836480+1056587617+1057152663+1057557107
1824+1057775715+1058027095+1058525383+1059168621+1059652472+1059868652
1816+1060070906+1060439512+1060819233+1061131749+1061591196+1062311094
1807+1063165275+1064054272+1064888330+1065509657+1065845746+1066017847
1799+1066269865+1066785274+1067521016+1068269598+1068804810+1068943181
1790+1068794333+1068763989+1068986430+1069252567+1069469322+1069780433
1782+1070158301+1070327655+1070107386+1069577668+1069046097+1068807493
1773+1068744121+1068450004+1068023967+1067870392+1067986596+1068264168
1765+1068634562+1068864796+1068750318+1068445085+1068254521+1068312591
1756+1068648169+1069244326+1070105534+1071200490+1072206329+1072750357
1748+1072936513+1072956700+1072859853+1072807852+1072784599+1072531238
1740+1072192403+1072246959+1072775527+1073474153+1073741823+1073130845
1731+1072062209+1070742001+1068824806+1066154429+1062452148+1056906585
1723+1049123453+1038643880+1022186830+994719147+960418911+935959610+927312076
1713+926754760+925961013+919065600+901023803+866163632+815015447+760596639
1703+712030480+664690620+620207996+597965822+604925053+628639222+654754628
1693+677100549+697530552+718402881+738892487+757979668+778313910+802830706
1683+826359678+843095513+855093013+864879582+873558738+882499304+892822109
1673+904191062+916600160+931024706+946107694+958359704+967379038+975170475
1663+983446848+992733980+1002293636+1011196256+1019054259+1026043580+1032889164
1653+1039856317+1045147178+1048270933+1050151460+1050515082+1048677741
1645+1045610139+1042440835+1039017468+1035066746+1030285481+1022878748
1636+1009682929+992273510+976853027+963083922+945138524+917252982+879418926
1626+839234675+805082904+783847974+780744214+792804000+811364273+827564704
1616+831801111+821046330+801970201+779926383+757136603+735395783+715902306
1606+698673037+682900558+667744296+653294516+640764871+631595795+626518495
1596+625283507+627021894+630790038+635779626+641406129+647388653+653521301
1587+659550715+665430514+671370364+677594365+684176431+690956599+697629571
1577+704074735+710546092+717273045+724325099+731851038+739769922+747652072
1567+755496724+763599016+771717662+779354949+786423549+792808727+797144025
1557+798345027+796754658+792835303+788312124+785800369+787024816+792044111
1547+799779203+808987566+818317947+825831492+828395184+823244674+814533449
1537+806530176+796133459+778310844+754265569+732928873+718253523+707569076
1527+699442701+695115707+694782877+696776093+699971844+704337231+710036688
1517+717055523+724835653+732547044+739952883+747152698+754093851+760697318
1507+766879924+772712449+778699636+784918719+791003200+796625550+801716521
1497+806434862+810992537+815455409+819656808+823242694+825724935+826944336
1487+827632037+828603954+830004655+831727390+833854441+836577394+839926912
1477+843771013+847927119+852233670+856651441+861108755+865396971+869441026
1468+873112771+875913405+877356332+877805686+878024038+878014712+876503557
1458+870766089+860087840+847709278+833991598+817319390+797760625+776941254
1448+757088179+740569802+728518193+720673925+717162655+718350178+723255377
1438+729399141+733671898+734838594+734951668+736678172+742016562+751535909
1428+763458856+775608845+787141084+797686648+806708218+813942275+819561495
1418+824325001+829533325+835926936+843302111+850908415+857903166+863865566
1408+869069418+874309940+880283072+886908962+893661277+900421321+907317181
1398+914150116+920471859+925960630+930565834+934571878+938297157+941666414
1388+944095697+944677672+942711095+937798357+929339534+916570582+899260885
1378+878041990+853545062+825826254+796445208+770049547+750247898+736679450
1368+728041370+724125528+724624264+728513083+734683742+742182977+750371320
1358+759013743+767909527+776739703+785273462+793467106+801331050+808690765
1349+814949200+819083074+819948243+816594062+808186153+793935242+774465018
1339+753848285+737600324+727798167+722768141+720018101+717961769+716423911
1329+716444354+719007407+723611461+728468812+732096924+734264988+735564626
1319+736663415+737923509+739221358+739905290+738966847+735525338+729562299
1309+722454219+716901246+715977879+721535389+733195394+748739299+765343791
1299+780834673+794462213+806823080+818852776+830733497+841832481+851479913
1289+859468749+865952754+871258692+875812023+879940787+883665554+886844632
1279+889564390+892223780+895147964+898213905+900852085+902300059+901846745
1269+898887041+892931412+884154323+874425568+867344447+866315163+872179247
1259+882747554+894641946+905492999+914545552+921922324+927881977+932583964
1249+936023813+937969628+938111448+936340290+932723485+927203922+919496811
1239+909333778+896792187+882514956+867686988+853605559+841030237+829894201
1230+819659875+809891448+800564645+792232566+786268313+784891568+790551482
1220+804818428+827434063+856126385+887296094+917181560+942979979+963428188
1210+978568224+988993689+995200697+997317016+994952192+986982841+971702326
1200+948018246+917430129+885022111+857460839+838330602+824480876+807584758
1190+781065099+747109002+717260077+704840183+714605415+738376057+760678537
1180+769411930+762155769+743831033+720351571+694969479+668703564+642211759
1170+616854198+594355852+575717770+560665190+548185053+537429186+528179138
1160+520774482+515735192+513368451+513635419+516264112+520861522+526911347
1150+533773700+540807643+547572479+553969986+560217497+566625162+573257632
1140+579701966+585117336+588572963+589632273+588927706+588102081+588839867
1130+591802254+596477090+601880449+607240688+612192841+616709886+621039307
1120+625555330+630445516+635535338+640500714+645181428+649597602+653768018
1111+657655879+661252624+664627887+667917675+671281886+674820625+678496905
1101+682172674+685723744+689089488+692255342+695273179+698240676+701193992
1091+704117473+707069255+710080704+712946499+715396288+717439141+719242305
1081+720728034+721526317+721197703+719296542+715331766+708914582+700162344
1071+690146561+680869396+674456364+672144691+673940700+678989827+686091838
1061+694057740+701963974+709283443+715826924+721591925+726670950+731214635
1051+735385114+739313413+743077724+746672681+750002267+752945042+755436354
1041+757442603+758834935+759400045+759170513+758777121+759275664+761445070
1031+765167985+769330287+772169507+771800774+766741361+756493364+742207828
1021+726852761+714200524+707102347+706381426+710976984+718849808+727946248
1011+736828553+744784425+751377990+755906726+757689830+757131939+755838435
1001+754955379+753961997+752100763+750511799+751550730+755815373+760446386
992+759520528+745028139+710182150+657102140+601983365+567292357+565103595
982+589445223+624972269+659628013+688657063+711514049+728922893+742060322
972+752233576+760535502+767754547+774387783+780627947+786441755+791770499
962+796639860+800989979+804212305+804732569+800688962+792157184+782455387
952+775729712+773322405+773858512+775941995+778488630+779345303+776484937
942+770379695+762969768+754740795+745008399+734819557+727421385+725395205
932+728508292+734569711+741431393+747938013+753751119+758862788+763280175
922+767012417+770194945+773096962+775987991+778989282+782012805+784875342
912+787458966+789723557+791678444+793450752+795225935+797024628+798685205
902+800110245+801393975+802693293+804082495+805516990+806879616+808098697
892+809261561+810543375+811998185+813537256+815120662+816786861+818481871
882+820051670+821383824+822479738+823513686+824765731+826252993+827564065
873+828307920+828595202+828903758+829489885+829912599+828946559+824259074
863+811900763+788663609+758377149+734235283+729470626+744749033+768254815
853+787890879+799753330+805902077+808984883+810326811+810463968+809706762
843+808349630+806700935+805019021+803522751+802560544+802794293+804997173
833+809428423+815528300+822331018+828927075+834454751+837833655+837218716
823+828974348+807368960+767264819+709233231+641873626+577544443+525596824
813+490184097+472508190+471926439+485042563+506393376+530992422+555727282
803+578894292+599653485+618091677+635038902+651262779+666788094+681114387
793+693992004+705686122+716486453+726350385+735186885+743200827+750723763
783+757798368+764120302+769434033+773860684+777763494+781436707+785034475
773+788671211+792468678+796478172+800530276+804257024+807394514+809959100
764+812086790+813964825+815941432+818350910+820914794+822033387+818883631
754+809517029+795795325+783369107+777599889+779451732+785345905+790469137
744+791813109+788041452+777937830+762062117+746312827+739850478+747015286
734+763356132+780846555+794710718+804501185+811468274+816752492+821108360
724+825054482+828929183+832796346+836374949+839247324+841276762+842782103
714+844219025+845769276+847321252+848637052+849448686+849738524+849993290
704+850859033+852226131+852092105+846461577+832541772+813594240+798498666
694+794236450+800148191+810610324+820911600+829306221+835700726+840416576
684+843911747+846755439+849467723+852267719+855008879+857403089+859320859
674+861001368+862917285+865223912+867355627+868225012+867725702+867297621
664+867391274+867490165+867525045+868043584+869383851+871186121+872820825
654+873900002+874390432+874444989+874157706+873630096+873322690+873838163
645+875030860+875606575+873894508+869298631+863388295+859302014+859265600
635+862615885+866795819+870067911+872509650+874866617+877451199+880009972
625+882028550+883177423+883715511+884403340+885830232+887693574+888880139
615+888639874+887561911+886942565+887358507+888347993+889387115+890483796
605+891660203+892506590+892599731+892036794+891350242+891065515+891439551
595+892428716+893591389+894204219+894087185+894093957+894985637+896281761
585+897087327+897537511+898428041+900000140+902100041+904731258+907385153
575+908712963+908107798+906909032+906998852+908661856+910436720+911163773
565+911494816+912826714+915420942+918221769+920195564+921267586+922002817
555+922825120+923764840+924849575+926325019+928195260+929728390+929763781
545+927702274+924205761+920528459+916492645+908925310+892843573+865479253
535+829884619+794402099+767958398+754975438+753342395+756267026+755989071
526+747204955+729629951+707549975+686695150+671589738+663478247+659984545
516+658632907+660247807+667605095+681997124+702009842+724900494+747870553
506+768531046+785937079+800807465+813913463+825144174+834432072+842298636
496+849308399+855606185+860937229+865131920+868717039+872601706+877083616
486+881669846+885747312+889077793+891622384+892787164+890777594+883198058
476+868381972+845734140+816937114+789028637+771644580+768801655+777301044
466+790799924+804260090+816015089+826061407+834306925+841062242+847175407
456+852797629+857757448+862895310+868982154+875054242+879526441+882412168
446+884913446+887349564+888831460+889139376+889704997+891905770+895347088
436+898387411+899975098+900388230+900106889+899587008+900023905+902266648
426+905134871+906782671+907645029+909401175+910657755+907114352+899792839
416+895775040+896303353+898401019+901005276+905077248+910771787+916754821
407+921497821+923555112+921998345+917988468+914800190+915945806+922360179
397+929364895+931699311+930336110+928054653+924305547+916724030+905837074
387+894986723+885330411+874852818+864274290+858208207+860310664+871653873
377+889615178+903724396+904075817
##END=
