##TITLE=HMS-Q234
##JCAMP-DX=4.24
##DATA TYPE=INFRARED SPECTRUM
##DATE=15/4/2021
##SAMPLING PROCEDURE=Diamant-ATR
##ORIGIN=Angelika Moesle
##XUNITS=1/CM
##YUNITS=TRANSMITTANCE
##RESOLUTION=4
##FIRSTX=3997.453
##LASTX=373.96442
##DELTAX=-1.4165319
##MAXY=0.95586938
##MINY=0.27340081
##XFACTOR=1
##YFACTOR=8.9022273e-010
##NPOINTS=2559
##FIRSTY=0.95264322
##XYDATA=(X++(Y..Y))
3997+1070117830+1070575332+1071211871+1071534325+1071437642+1071115389
3989+1070791462+1070669336+1070882252+1071373165+1071982989+1072590804
3980+1073026077+1073064241+1072695521+1072140734+1071568204+1071101931
3972+1070966615+1071266573+1071806831+1072353650+1072839809+1073243077
3963+1073546248+1073741823+1073681898+1073169628+1072365099+1071774424
3955+1071712424+1072034945+1072430782+1072728998+1072864783+1072717482
3946+1072193293+1071513837+1071174309+1071392715+1071767930+1071810781
3938+1071534258+1071263961+1071225663+1071443601+1071774893+1071995509
3929+1071986068+1071782392+1071480761+1071240527+1071204372+1071277754
3921+1071228341+1071032633+1070892162+1070926041+1071048836+1071169622
3912+1071317994+1071517184+1071651629+1071582733+1071360912+1071190847
3904+1071175514+1071195333+1071075149+1070799429+1070596757+1070702412
3895+1070989983+1071122285+1071047430+1071036717+1071160048+1071289203
3887+1071568003+1072161289+1072668471+1072484480+1071569342+1070408280
3878+1069621963+1069511019+1069997713+1070796082+1071519796+1071875258
3870+1071779446+1071399210+1071088741+1071119607+1071520063+1072073980
3861+1072481534+1072627428+1072600512+1072505905+1072371996+1072247728
3853+1072263194+1072301224+1072049006+1071561241+1071125700+1070931531
3844+1071007525+1071252445+1071392782+1071132194+1070499271+1069799326
3836+1069157029+1068548344+1068160341+1068279386+1068983884+1070153450
3827+1071521536+1072537173+1072601650+1071691401+1070598230+1070373061
3819+1071002771+1071470919+1071141568+1070285686+1069638367+1069552598
3810+1069803210+1069870231+1069406436+1068693769+1068290501+1068308980
3802+1068549348+1068800629+1068913783+1068910904+1068814221+1068475497
3793+1067872100+1067416005+1067622091+1068493173+1069424647+1069852354
3785+1069802406+1069653164+1069625512+1069820015+1070360608+1071016028
3776+1071144112+1070452269+1069282168+1068116351+1067201950+1066677895
3768+1066706485+1067248484+1067934502+1068400307+1068706692+1069151338
3759+1069702978+1069994031+1069956067+1069905115+1070014987+1070179227
3751+1070218597+1070110465+1070033065+1070102899+1070142737+1069926875
3742+1069670371+1069631471+1069600671+1069250632+1068613758+1068164157
3734+1068152507+1068217520+1068088030+1067877658+1067789211+1068086958
3725+1068964133+1070005212+1070268277+1069335999+1067878126+1067005170
3717+1067206637+1067949433+1068262915+1067781845+1067245002+1067412791
3708+1067827308+1067800794+1067406564+1067120667+1067335458+1068085284
3700+1068945117+1069440783+1069480622+1069243200+1068934806+1068691961
3691+1068560797+1068507836+1068479648+1068472283+1068574054+1068910703
3683+1069435896+1069777901+1069464619+1068454808+1067357821+1067047352
3674+1067648940+1068295723+1068595413+1068907757+1069361040+1069516241
3666+1069224854+1068932128+1069073068+1069549451+1069893197+1069873110
3657+1069675527+1069545835+1069518250+1069554540+1069668162+1069753864
3649+1069457187+1068644558+1067786131+1067279819+1067050432+1066834704
3640+1066571906+1066475625+1066696040+1067086119+1067371882+1067356683
3632+1066908889+1066009553+1065074865+1064858735+1065361029+1065928739
3623+1066288219+1066547869+1066801427+1066995395+1066989235+1066652988
3615+1065994087+1065184336+1064426274+1063945606+1064126651+1065139543
3606+1066362539+1067027667+1067230674+1067530832+1067996569+1068113338
3598+1067583860+1066784153+1066332342+1066426413+1066741636+1066989704
3589+1067239445+1067601135+1067861589+1067738392+1067324143+1066896503
3581+1066559252+1066195018+1065707922+1065178578+1064710296+1064341978
3572+1064175127+1064339501+1064820638+1065471839+1066116614+1066587841
3564+1066815956+1066839591+1066674548+1066323973+1065892650+1065516833
3555+1065200874+1064886789+1064595803+1064368961+1064215969+1064214764
3547+1064400898+1064474414+1064022537+1063191160+1062609390+1062677148
3538+1063308531+1064166289+1064827199+1064967603+1064678827+1064350548
3530+1064129999+1063819798+1063363166+1063040913+1063080885+1063416061
3521+1063867737+1064322025+1064698177+1064891543+1064830547+1064500661
3513+1063864390+1062908811+1061893041+1061346891+1061565967+1062258681
3504+1062900911+1063286102+1063608823+1064014502+1064243755+1063907040
3496+1063020961+1062077367+1061548224+1061502896+1061715678+1061937298
3488+1062031302+1061993808+1061924577+1061944060+1062075693+1062183223
3479+1062093838+1061780222+1061362424+1060989152+1060779115+1060753739
3471+1060793979+1060799469+1060857586+1061016402+1060990290+1060533391
3462+1060075487+1060350805+1061249740+1061742326+1061258109+1060491008
3454+1060385956+1060895348+1061292725+1061266612+1061092262+1060977033
3445+1060821028+1060632818+1060708410+1061216463+1061826354+1061948412
3437+1061317699+1060234170+1059256563+1058747373+1058659595+1058679882
3428+1058589292+1058475469+1058539880+1058814327+1059205008+1059627359
3420+1059912720+1059801240+1059245248+1058569474+1058220907+1058428601
3411+1059055967+1059710785+1060050379+1059984295+1059593815+1059100894
3403+1058904917+1059213110+1059618923+1059536367+1059008094+1058573826
3394+1058447147+1058387156+1058287460+1058345376+1058654105+1059009166
3386+1059154257+1059011107+1058650489+1058194862+1057796816+1057593006
3377+1057613360+1057764209+1057884259+1057788514+1057353508+1056688179
3369+1056177448+1056223647+1056864672+1057686006+1058170691+1058149801
3360+1057860758+1057620926+1057553235+1057560800+1057413165+1056896408
3352+1056066504+1055332144+1055120835+1055438201+1055906148+1056237641
3343+1056473924+1056693870+1056732235+1056395520+1055817633+1055354708
3335+1055156924+1055072025+1054998241+1055077181+1055406732+1055783553
3326+1055929046+1055837452+1055703542+1055618309+1055537428+1055506963
3318+1055702002+1056202623+1056844050+1057329070+1057395020+1056900627
3309+1055966206+1055025157+1054494139+1054366590+1054330167+1054212661
3301+1054109484+1054126289+1054181527+1054100244+1053885721+1053790980
3292+1053972427+1054232145+1054344562+1054412990+1054615662+1054861988
3284+1054953114+1054837014+1054579439+1054328158+1054290864+1054505119
3275+1054698217+1054593700+1054257253+1053971356+1053867375+1053871058
3267+1053928170+1054046278+1054129838+1054090134+1054144300+1054619076
3258+1055372451+1055836849+1055767685+1055545328+1055571106+1055746929
3250+1055735145+1055413561+1054862189+1054185812+1053582884+1053342852
3241+1053525036+1053814816+1053854185+1053554563+1053059566+1052607822
3233+1052433874+1052575818+1052784315+1052816922+1052774674+1052950832
3224+1053387979+1053791716+1053913306+1053822516+1053718870+1053671265
3216+1053665373+1053741969+1053949864+1054251361+1054515430+1054556541
3207+1054233350+1053599221+1052926795+1052551781+1052654356+1053099873
3199+1053475422+1053409806+1052950095+1052534641+1052524062+1052842030
3190+1053182361+1053462299+1053830885+1054258123+1054425041+1054092075
3182+1053331402+1052457643+1051934927+1052133247+1052888631+1053536954
3173+1053608662+1053231774+1052770522+1052403610+1052128025+1051875940
3165+1051587566+1051304213+1051130867+1051093708+1051148410+1051283123
3156+1051480237+1051670322+1051805571+1051882836+1051927897+1052055847
3148+1052404883+1052882404+1053169640+1053076774+1052670224+1052008778
3139+1051057619+1049971747+1049154497+1048878509+1049049311+1049416491
3131+1049775034+1049945835+1049874729+1049775770+1049906533+1050241909
3122+1050561283+1050689636+1050523655+1050036023+1049331592+1048542397
3114+1047721264+1046938897+1046316084+1045913217+1045766586+1045931831
3105+1046296935+1046535495+1046427430+1046052483+1045575631+1045014751
3097+1044299340+1043424710+1042468060+1041504247+1040562461+1039660848
3088+1038811193+1037991666+1037194771+1036480631+1035913659+1035510524
3080+1035298210+1035312137+1035433794+1035334366+1034755877+1033854599
3071+1033083079+1032674856+1032444130+1032198674+1032068648+1032230611
3063+1032547843+1032749912+1032856237+1033197170+1034012210+1035161489
3054+1036309160+1037287771+1038167490+1039022903+1039742399+1040084739
3046+1039931680+1039453289+1038915709+1038400626+1037894381+1037501558
3037+1037293328+1037184058+1037247598+1037809148+1038905063+1039993212
3029+1040510906+1040466046+1040309238+1040429422+1040871993+1041456575
3020+1042061846+1042683454+1043238576+1043543421+1043557013+1043489924
3012+1043580380+1043841035+1044040426+1043924125+1043456915+1042829817
3003+1042198434+1041478938+1040470465+1039157549+1037765292+1036457934
2995+1035151513+1033729929+1032203629+1030471911+1028244661+1025450505
2986+1022386187+1019224650+1015775677+1012007731+1008442725+1005677226
2978+1003670793+1001812196+999706870+997702580+996522971+996497796+997325156
2968+998522776+999903383+1001606779+1003846415+1006635683+1009685472+1012578386
2958+1015015807+1016814748+1017845583+1018188057+1018143465+1017819471
2949+1016906543+1015124140+1012700646+1010203367+1008069720+1006413460
2941+1005176873+1004399328+1004310612+1005045709+1006362441+1007893294
2932+1009598096+1011659499+1013971849+1016103086+1017849868+1019523804
2924+1021507272+1023735392+1025816078+1027465843+1028608292+1029239274
2915+1029463237+1029588778+1029981066+1030773877+1031740235+1032498029
2907+1032898485+1033130483+1033366834+1033488758+1033333155+1033020811
2898+1032795308+1032652493+1032388357+1031967144+1031554770+1031124988
2890+1030282496+1028628111+1026150316+1023202968+1020273965+1017817462
2881+1016135760+1015331633+1015392428+1016260965+1017792957+1019724200
2873+1021744158+1023596528+1025131533+1026368857+1027551411+1029010690
2864+1030815389+1032603081+1033908899+1034611255+1034940538+1035189141
2856+1035518826+1035919551+1036262694+1036458269+1036531048+1036535668
2847+1036547184+1036724280+1037168458+1037728668+1038132740+1038267989
2839+1038202708+1038053064+1037956448+1038042418+1038310304+1038637579
2830+1038953538+1039268092+1039525868+1039609025+1039506317+1039321120
2822+1039155474+1039141413+1039435010+1039998099+1040536750+1040811332
2813+1040818898+1040617900+1040259759+1039944067+1039931747+1040233780
2805+1040587971+1040743975+1040632362+1040331065+1040028363+1039935296
2796+1040094313+1040294374+1040265584+1039964555+1039612775+1039438224
2788+1039449405+1039534773+1039679127+1039919294+1040143525+1040141249
2779+1039872024+1039544146+1039415660+1039580770+1039921972+1040224875
2771+1040334011+1040199232+1039842965+1039363837+1038917048+1038604972
2762+1038431626+1038383486+1038462961+1038637579+1038842193+1038999938
2754+1038992506+1038677417+1038032844+1037281009+1036778848+1036708345
2745+1036922131+1037180309+1037429782+1037717018+1037978744+1038100736
2737+1038068932+1037926519+1037686888+1037373473+1037098825+1037025844
2728+1037183522+1037365372+1037345553+1037187808+1037170734+1037428175
2720+1037787053+1037937567+1037740586+1037409294+1037296274+1037444847
2711+1037556260+1037463393+1037362091+1037478123+1037746277+1037913932
2703+1037826690+1037579828+1037412709+1037422283+1037418868+1037173881
2694+1036748383+1036419703+1036315454+1036312977+1036295769+1036321480
2686+1036466169+1036664958+1036796524+1036843794+1036869973+1036864684
2677+1036725284+1036450234+1036244951+1036291083+1036485385+1036574837
2669+1036458804+1036200292+1035883127+1035645237+1035685878+1036020786
2660+1036362925+1036448828+1036368549+1036376182+1036504400+1036588964
2652+1036571288+1036526562+1036435303+1036201162+1035915466+1035852060
2643+1036108698+1036459474+1036656187+1036662280+1036505873+1036173979
2635+1035770576+1035535230+1035593347+1035874356+1036259815+1036652705
2626+1036970138+1037187674+1037304844+1037258378+1037000133+1036622375
2618+1036305813+1036176791+1036181745+1036077430+1035709714+1035371861
2609+1035589263+1036400955+1037153326+1037237756+1036779651+1036309428
2601+1036013622+1035719891+1035429308+1035387461+1035690833+1036147933
2592+1036461215+1036451908+1036231828+1036103609+1036145590+1036114992
2584+1035842352+1035404602+1034909672+1034456857+1034239187+1034379993
2575+1034749650+1035102770+1035292586+1035307785+1035227975+1035177826
2567+1035248463+1035383377+1035380699+1035110201+1034714097+1034505466
2558+1034683298+1035151981+1035543265+1035501686+1035040033+1034458330
2550+1033927981+1033462646+1033197505+1033272093+1033511657+1033640478
2541+1033749949+1034184887+1034937659+1035546010+1035712259+1035630909
2533+1035504967+1035254891+1034911145+1034669639+1034402557+1033811212
2524+1033100822+1032831798+1033161483+1033744793+1034214347+1034418157
2516+1034382069+1034252042+1034194127+1034296166+1034522607+1034715637
2507+1034729832+1034616343+1034602350+1034927884+1035670010+1036575640
2499+1037156272+1037190887+1037035887+1037191758+1037622612+1037787387
2490+1037401393+1036873388+1036734993+1036932576+1037037762+1036857855
2482+1036471994+1035984028+1035539047+1035319636+1035325260+1035363826
2473+1035318498+1035278660+1035345681+1035403463+1035234938+1034868026
2465+1034571952+1034484643+1034520799+1034581728+1034559365+1034312971
2456+1033887809+1033545268+1033455950+1033595082+1033881314+1034192988
2448+1034374971+1034378386+1034249364+1033971435+1033471283+1032750180
2439+1031968149+1031458623+1031576330+1032360704+1033366700+1033949541
2431+1033784096+1033101291+1032408644+1032007183+1031827477+1031643820
2422+1031317415+1030898145+1030605887+1030636686+1030897542+1031048860
2414+1030905912+1030682015+1030695607+1030960480+1031249858+1031488351
2405+1031793062+1032088667+1031996538+1031293714+1030298163+1029603508
2397+1029538361+1029967072+1030463006+1030614257+1030346505+1029971893
2388+1029754892+1029546797+1029091839+1028537789+1028328622+1028649135
2380+1029232043+1029727642+1030082368+1030479945+1031076311+1031942706
2371+1033015388+1033831031+1033721694+1032748439+1031948263+1032120873
2363+1032860589+1033232656+1032978831+1032675258+1032781582+1032854898
2354+1032083579+1030428993+1028651545+1027400361+1026871553+1027001579
2346+1027446895+1027673738+1027627673+1027836973+1028327819+1028357547
2337+1027570293+1026618062+1026247334+1026317502+1026124338+1025391317
2329+1024469149+1023667768+1023003978+1022651595+1023041741+1024200058
2320+1025357840+1025716182+1025341971+1024898798+1024778614+1024847711
2312+1024859362+1024786381+1024766696+1024968632+1025483849+1026163372
2303+1026622079+1026592887+1026222694+1025874596+1025752404+1025861339
2295+1026136055+1026424161+1026537716+1026418068+1026084366+1025564864
2286+1025154029+1025418635+1026517764+1027834831+1028678327+1028998772
2278+1029125652+1029204993+1029163481+1028953779+1028674377+1028581644
2269+1028923850+1029595473+1030040655+1029736279+1028789405+1027857997
2261+1027475083+1027665904+1028162708+1028737448+1029243961+1029476762
2252+1029236863+1028793824+1028966232+1030173427+1031640338+1032213203
2244+1031653528+1030500300+1029179684+1027984341+1027387037+1027587567
2235+1028007641+1027794658+1026681535+1024966556+1022886071+1020560933
2227+1018260502+1015969980+1013022832+1009099618+1005304422+1003320084
2218+1003781335+1006241922+1010115188+1014740556+1019015684+1021922391
2210+1023352545+1023957548+1024356799+1024727260+1024901677+1024775333
2201+1024763616+1025547523+1027054339+1028285905+1028606685+1028403143
2193+1028093209+1027546055+1026813704+1026377561+1026456701+1026855685
2184+1027415025+1028017015+1028379976+1028272849+1027712170+1026854011
2176+1025890130+1024996284+1024304441+1024065278+1024651199+1026066690
2167+1027609193+1028444990+1028498018+1028410977+1028727739+1029449311
2159+1030090202+1030095290+1029662160+1029703270+1030475326+1030952244
2150+1030197865+1028766439+1027937004+1028081090+1028606150+1028912602
2142+1028597847+1027297586+1025179874+1023310832+1022784501+1023583472
2133+1024708111+1025234978+1024908573+1023947103+1022685475+1021428131
2125+1020438808+1019890314+1019669832+1019334791+1018604381+1017890644
2116+1017993151+1019194855+1020860891+1022022556+1022283210+1022037419
2108+1021797588+1021601075+1021305537+1021073472+1021060148+1020953087
2099+1020429166+1019811375+1019699962+1020101423+1020398903+1020172529
2091+1019634012+1019197199+1018943039+1018709233+1018519148+1018617571
2082+1019091879+1019656441+1019854159+1019510413+1018992250+1018773107
2074+1018804375+1018847896+1019189432+1020165833+1021319129+1022005951
2065+1022356727+1022673356+1022540986+1021476339+1019861457+1018579206
2057+1018059571+1017975743+1017784453+1017423032+1017256582+1017437762
2048+1017708393+1017667617+1016935065+1015727938+1015496409+1017620414
2040+1021228003+1023924071+1024706035+1024465668+1024022360+1023578383
2031+1023720394+1025117874+1027325573+1028937910+1028854418+1027207532
2023+1025206254+1023872582+1022872011+1021207314+1019151737+1018373655
2014+1019658316+1021725209+1022969028+1023325696+1023583137+1023539750
2006+1022216122+1019854159+1018054683+1017682883+1018038815+1018305629
1997+1018520018+1018783218+1018751615+1018433446+1018346338+1018321096
1989+1017388148+1015532765+1014277966+1014861075+1016760380+1018654597
1980+1020081671+1021309353+1021888713+1020636324+1017563971+1014510969
1972+1013110074+1013201601+1013815710+1014685051+1015817724+1016476760
1963+1015889969+1014453856+1013225504+1012506477+1011739243+1010650357
1955+1009613429+1008878868+1008309954+1008041398+1008578108+1009975052
1946+1011570115+1012726356+1013275921+1013230258+1012640788+1011753772
1938+1010865416+1009996209+1008984724+1007987768+1007495985+1007625676
1929+1007887469+1007953621+1008093221+1008622499+1009457692+1010280968
1921+1010739273+1010586483+1010017367+1009643090+1009733278+1009825676
1912+1009249463+1007808664+1006128434+1005219322+1005364949+1005779466
1904+1005636049+1004983240+1004357481+1003988962+1003770288+1003631356
1895+1003585559+1003602700+1003665169+1003829810+1004045873+1004030608
1887+1003610534+1003106498+1003054340+1003556501+1004145100+1004400934
1878+1004458114+1004716358+1005218385+1005582619+1005552556+1005276569
1870+1004968242+1004657036+1004441710+1004520382+1004782376+1004852076
1861+1004579637+1004207770+1004043597+1004194111+1004541606+1004769386
1853+1004555466+1003924350+1003283527+1003005999+1003098397+1003358449
1844+1003676283+1003984878+1004055582+1003674274+1002952368+1002311544
1836+1002049550+1001972552+1001671725+1001021192+1000270429+999757957+999618959
1826+999764050+999925946+999826719+999508751+999274276+999287131+999457531
1816+999639849+999750726+999734590+999565462+999295032+998991593+998633184
1806+998208557+997954330+998240494+999045157+999790229+1000014461+999870106
1796+999711490+999753739+1000138863+1000792341+1001272808+1001281111+1000952631
1786+1000522848+1000105050+999729836+999459740+999399079+999571153+999882426
1776+1000240433+1000553714+1000598641+1000156070+999422714+998850050+998591270
1766+998484745+998343939+998075920+997599537+996879237+996076383+995415673
1756+994952279+994620853+994412557+994338639+994295587+994164222+993978489
1747+993802131+993594303+993264551+992759779+992146340+991584321+991140545
1737+990718663+990151222+989308596+988335208+987469550+986659933+985835854
1727+985126334+984520126+983631971+982141759+980141285+977764994+974785239
1717+970686068+965320582+959116956+952090456+943477196+932468897+918283595
1707+899589024+876495994+852051549+826505029+794033312+752646235+711782074
1697+675336391+638973866+605529096+579889308+560205983+544239584+533212135
1687+528819837+533489395+551045769+578387848+607619758+637340840+668639711
1677+702363080+739065467+774815758+803496095+825595382+845616729+864018440
1667+877899901+887431513+895110152+902469484+909275904+914664288+918572103
1657+921475328+923784932+926056707+928893513+931634105+933600566+935489092
1647+937980679+940872991+943412518+945430601+947191779+948855002+950414847
1638+951877273+953452919+955219185+956790747+958015684+959095196+960093090
1628+960859186+961356258+961788786+962385353+963128751+963768370+964181481
1618+964502663+964847748+965056713+964939543+964423790+963386594+961639209
1608+958918971+954803798+948977864+941906170+935035741+929725560+925950048
1598+922846026+920584160+920815154+924750687+931480979+938839843+945233955
1588+950219205+953953807+956676924+958641711+960094228+961067415+961276046
1578+960164530+957194417+952964484+949179732+946678972+945631331+946405730
1568+948913319+952314487+955866972+959008088+961389735+963234674+965031070
1558+966538757+967189959+967361832+967425238+967450480+967533571+967758405
1548+968032250+968190129+968167900+968020198+967899278+967983774+968240881
1538+968334617+968085479+967548301+966841593+966214763+965901214+965831112
1528+965751704+965477390+965065150+964716985+964459343+964100466+963454754
1519+962410461+960832672+958707930+956225582+953497511+950417458+946602510
1509+940737407+930236090+914946570+898331011+879943695+856384058+826531945
1499+795511673+775741541+777787277+797964561+825497762+854231060+880337925
1489+897459728+900567902+890983664+874234195+857872328+849848939+854206488
1479+868283993+885945921+902048874+913783097+919949965+920405391+916805635
1469+911887675+907786294+905833693+906109814+906909923+906521452+904394567
1459+899293084+887721896+868379738+847191504+829704328+818505543+816020852
1449+822708762+834133185+843550639+849022382+854538383+863762271+875774556
1439+887562209+897931759+907029839+914224530+919019628+921914350+923268510
1429+922918872+920791117+917065755+911887407+905561254+898526318+890595326
1419+881120358+870707019+861137644+853041542+846135695+840525824+836704381
1409+835111327+836048225+839808604+846408870+854890632+863872344+872980133
1400+882460993+891873894+900424418+907865636+913903214+917933957+919954116
1390+920532337+920134291+919184337+918459619+918760045+920305226+922630498
1380+924844491+926066683+925740279+923534990+919192974+912708071+904422621
1370+894995593+885790854+878766764+875276145+875515910+878844900+883801159
1360+888643059+892322826+894474350+895045273+894371440+893212186+892348202
1350+892175190+892802824+894532333+897959680+903333334+910062220+917082828
1340+923406906+928289983+931345597+932573145+932062214+929739955+925408518
1330+918893017+910219095+899870836+888928621+878787453+870590718+864890525
1320+861788712+861204733+862929688+866630478+871896537+878117035+884402480
1310+889904554+894149151+896979328+898423542+898698191+898135034+897072462
1300+895895398+895013536+894585026+894337829+893841092+892915241+891656425
1290+890161526+888392649+886278820+883813010+881027826+877942484+874574660
1281+871032285+867562087+864434563+861775187+859569363+857774373+856289183
1271+854807005+852766425+849461137+844214830+836514029+826063463+812786670
1261+796804837+778378822+757816950+735415964+711430495+686084571+659684780
1251+632717882+605759420+579326419+553856228+529748131+507410083+487328979
1241+470065800+456155448+446019402+439886246+437714635+439200863+443807618
1231+450753840+459101323+467906141+476183925+482758715+486359140+485979540
1221+481140853+471922188+458955362+443396818+426672122+410042068+394311148
1211+379805233+366464666+354003750+342182955+331077002+321166025+313256224
1201+308296249+307115067+310138744+317190653+327511963+340033707+353659803
1191+367354394+380203480+391594660+401307686+409406935+416133477+421862026
1181+426967058+431637453+435898822+439876504+443932255+448417487+453363702
1171+458579009+464002311+469830689+476350375+483665349+491480375+499245854
1162+506724868+514161901+521307480+526064347+524436811+512481604+489147169
1152+457931021+425867527+400139091+384484099+378034046+377455523+380308264
1142+386296396+395530964+406429591+415935927+421584063+423002667+421679541
1132+419776921+419191335+421263919+426891198+436665454+450800875+468885622
1122+489795860+512015566+534134370+555134327+574371433+591422800+605955263
1112+617700600+626518675+632360678+635106359+634632252+631237981+625971856
1102+620636030+617653330+619425354+626791382+637829141+648775105+656516079
1092+660166319+660630650+659311507+657297307+655274470+653787606+653437433
1082+654853927+658494592+664380049+671858895+679538740+685642268+689026161
1072+690363181+692018302+696131668+702815627+710449942+717345947+722800416
1062+727045549+730717615+734205623+737207740+738908860+738589218+736112896
1052+732100566+727762366+724404518+722971017+723957796+727400877+732592348
1043+737903869+741294123+741407946+738505391+734380040+731012082+728851184
1033+726332079+721311878+713186048+703615067+695153994+689267533+685684115
1023+683293294+681281371+679650085+679188098+681019310+685886050+693726117
1013+703822426+715118898+726407805+736521789+744537478+749838688+752078659
1003+751244269+747931884+743561278+739938825+738191105+738106206+738656039
993+739109590+739586978+740698092+742874121+746100001+750107980+754585780
983+759257146+764019170+768990359+774250994+779619761+784789271+789507974
973+793569517+796835369+799343427+801289601+802917137+804446317+805980987
963+807460486+808788600+809945779+810869688+811353302+811212296+810495746
953+809413623+808118919+806678588+805239195+804079672+803442397+803386222
943+803838301+804678382+805717319+806701353+807423058+807764460+807591315
933+806716485+805102272+803018640+800847967+798744048+796562796+794044561
924+790997249+787416643+783572301+780026110+777614466+777284714+779560841
914+783999808+789381162+794535473+798867646+802208689+804518695+805784341
904+805964717+804910782+802398907+798335825+792968732+786871028+780766897
894+775492804+771993146+770899239+771834262+773307602+773600730+771907578
884+768650765+764809503+761205664+758509664+757471999+758635672+761890946
874+766643528+772373248+778844291+785894292+793195574+800145210+805933315
864+809863559+811684996+811527652+809545792+805812863+800625343+794772761
854+789402119+785596812+783958630+784389283+786236431+788701504+791045523
844+792444275+792113251+790077023+787648574+786503915+787091443+788322808
834+788878064+788403020+787390463+786410045+785695303+785170645+784592558
824+783649701+782119584+780194903+778651328+778359874+779591506+781964048
815+784793891+787124452+787720148+785467657+779775297+770816684+759938880
805+749729954+743003813+741330747+744380737+750337166+756831577+761898579
795+764564114+764911810+763801634+762337400+761219858+760394239+759278572
785+757270264+753966783+749042998+742433358+735057622+728906623+725527082
775+724427685+723698681+722144795+719967427+717218197+712371075+702828282
765+686343485+661573908+627838420+585501456+537435374+490182122+452810288
755+433245171+434595347+454117278+484565823+516167932+539794658+552161402
745+558523142+567646631+583115791+600414288+612046606+614542210+611162066
735+608967490+613200571+623942524+637540231+650062980+659124837+663819303
725+664359494+662150188+659920595+660858631+666070791+672608588+675439569
715+671901144+663912839+656316889+653355949+656028247+661456871+664327289
705+660225440+649138469+636018952+627276402+626060638+630155189+633446618
696+628979262+612045869+583705327+553392667+536068827+542659317+571455085
686+609595526+643014720+664401073+673731151+674685725+671518899+667745664
676+665696781+666233758+668760430+671809817+673291794+669713665+658990191
666+645000330+631554811+619862033+611495836+607930428+609119344+614470502
656+623604135+635484921+648126448+659564663+668606568+674517066+676800022
646+675811167+672992305+670081782+668170826+667380225+667253412+667519156
636+668520866+670872920+674807984+679938526+685518870+690856303+695540792
626+699362703+702190136+704041167+705172635+706010306+707015498+708515017
616+710432534+712189494+713164891+713276906+712808758+711767344+709966261
606+707640387+705289271+703057669+700913443+699145301+698007004+697136257
596+695937700+694340963+692631340+690579445+687429224+683108432+678780209
586+675809092+674860544+676167367+679742215+684824349+689753022+692790960
577+692909939+690189567+685674808+680202060+673437755+664591358+653750178
567+642080701+631058676+621826218+614846185+609868233+606391875+604174066
557+603376032+604698790+609405308+618409115+630805721+643683732+653862127
547+659663555+661103886+659282047+655825508+652116817+648625260+644957345
537+640246141+633561914+624736005+615089699+606845426+601716223+600522152
527+603630996+610189616+617127132+621085364+621523850+620969867+622431623
517+626760917+632707504+639050664+645526059+651998776+657973349+663127393
507+667675562+672055340+676667117+681854972+687564740+693121516+697914807
497+702010697+705743224+709208132+712519179+716102062+720199425+724418244
487+728146084+731064642+733104084+734244859+734623086+734816853+735752948
477+737927906+740638904+742367542+742142908+740681018+739932866+741029183
467+743050480+744006862+742874858+740379789+738028070+736974604+737604514
458+739550153+741963871+743813095+744043754+742526358+740932701+741121179
448+742992631+745422085+748436789+752542991+756334705+757139769+754246186
438+749728481+746211012+744577383+743917745+743050480+741124594+737724564
428+733651104+730727524+729905856+730190480+730477984+731963710+737070081
418+744765125+750622059+752971769+752911710+752438273+754241030+759260226
408+764119669+764313101+760255174+756817181+757227346+761078651+766956742
398+773060740+776189201+774450185+768989422+761784421+754949344+751074271
388+751610780+754554780+755305678+751754799+747217075+745461253+746635573
378+748850034+750357922+751143034+753789487
##END=
