##TITLE=JMB-199
##JCAMP-DX=5.0
##DATA TYPE=LINK
##BLOCKS=1


$$ === CHEMSPECTRA SPECTRUM ORIG ===
##TITLE=JMB-199
##JCAMP-DX=5.00
##DATA TYPE=INFRARED SPECTRUM
##DATA CLASS=XYDATA
##ORIGIN=Angelika Moesle
##OWNER=
##XUNITS=1/CM
##YUNITS=TRANSMITTANCE
##XFACTOR=1
##YFACTOR=9.1123936e-010
##FIRSTX=3997.453
##LASTX=373.96442
##MAXX=3997.453
##MAXY=0.9784358115957533
##MINX=373.96442
##MINY=0.49863162484010365
##NPOINTS=2559
##XYDATA= (X++(Y..Y))
2559I87327194I87108461I87353293I87818427I88214095I88434136I88535588I88589225
2551I88570125I88431193I88273096I88274731I88427072I88572937I88711281I88959644
2543I89257720I89430208I89461997I89471220I89556385I89734040I89824175I89531071
2535I88900710I88468542I88678314I89410454I90268182I90989268I91465522I91649129
2527I91545977I91228016I90842683I90579929I90552914I90701854I90817892I90713758
2519I90474094I90406918I90624800I90876892I90872379I90657440I90538982I90607597
2511I90582218I90328033I90130558I90200351I90242672I89904892I89361461I89080327
2503I89382392I90277405I91340130I91954465I91954465I91744170I91673920I91610406
2495I91326263I90962646I90753136I90540224I90165749I90005820I90280218I90501567
2487I90278124I89957547I90176411I90929286I91393308I91149393I90729457I90770142
2479I91021253I90762686I90114467I89811224I89947213I89982861I89832221I89889520
2471I90368587I91145599I91986713I92549505I92593526I92210940I91696355I91378329
2463I91325020I91210094I90654693I89548732I88202648I87648294I88980903I90809847
2455I91216242I90563444I89880625I89656070I89813252I90037087I90017071I89730246
2447I89660322I90284665I91258759I91916854I92169797I92340649I92651414I93055717
2439I93327105I93170774I92476245I91598894I91228408I91627609I92201194I92668748
2431I93345158I94046948I94148465I93653896I93104775I93001557I93484810I94052181
2423I94069842I93738079I93690657I93929471I93965577I93956027I94324289I94810223
2415I94835276I94410892I93969306I93691507I93421754I93070434I92772031I92630548
2407I92648798I92966432I93756460I94784125I95519273I95694770I95379687I94791451
2399I94251552I94094240I94381392I94805906I94931887I94528369I93838158I93441574
2391I93729969I94363927I94556104I94017644I93103924I92530209I93052316I94340903
2383I95011884I94717144I94377140I94773005I95237223I94904480I94084167I93554080
2375I93850259I94812644I95643881I95986501I96198039I96346324I96052762I95193594
2367I94211259I93556173I93131659I92715386I92453090I92543880I92758557I92654358
2359I92237300I92227685I93247108I94580894I95113794I94881783I94449484I94176788
2351I94228070I94518884I94643361I94350649I93909586I93773728I94082466I94604311
2343I95131193I95732577I96422658I96849854I96883214I96875888I97147276I97521163
2335I97367317I96368695I95290598I95479831I96696270I97127587I96605088I96431358
2327I97111562I97600963I97188681I96264038I95481270I95207592I95400684I95847961
2319I96402316I96819111I96753766I96272672I95830497I95726298I95872687I96160231
2311I96585988I96935673I97052365I97120981I97275284I97198427I96609732I95893683
2303I95627266I95657290I95318986I94596004I94523529I95725120I97086575I97686782
2295I97651657I97320549I97006774I96970537I97136025I97271229I97435671I97614634
2287I97410030I96655258I95814210I95344366I95243895I95436398I95993107I96829577
2279I97638574I98191948I98513571I98727202I98885757I98908389I98687498I98320414
2271I98084282I98060538I97871698I97166965I96111435I95038637I94227089I94000703
2263I94567223I95700134I96862282I97685147I98153813I98394066I98485706I98516907
2255I98638440I98836241I98853967I98577281I98197180I97948490I97806287I97579967
2247I97240094I96963669I96972041I97385567I98098345I98788099I99172451I99298759
2239I99422908I99531817I99347228I98818973I98269132I98019198I98077151I98200189
2231I98074012I97526134I96813552I96504618I96814860I97390538I97913430I98377321
2223I98746956I98937104I99034828I99104817I99008533I98715101I98450254I98324927
2215I98197246I98054585I98149365I98594353I99123590I99356778I99213595I98987340
2207I98970856I99107695I99066682I98633207I97953461I97339125I96985254I96944503
2199I97168534I97479692I97726355I98033000I98625161I99343827I99716601I99609132
2191I99374962I99304908I99295881I99147334I98821197I98327544I97722431I97296805
2183I97427429I98160812I99136018I99907666A000225692A000102393I99774032
2176I99563541I99640987I99885688A000050653A000075509A000142686A000394189
2169A000766767A001148307A001403343A001281548A000708617A000095721I99964965
2162A000384247A001039268A001618216A001893006A001701026A001054574A000151320
2155I99268670I98690049I98605865I99011084I99749045A000581852A001193309
2148A001324000A001023046A000628686A000462543A000619921A000974969A001246488
2141A001184610A000825637A000469477A000353765A000463720A000661587A000834402
2134A000925061A000957112A001003423A001079561A001139804A001186049A001238181
2127A001207176A000982557A000669633A000575834A000887319A001431927A001816672
2120A001818111A001582895A001401446A001348136A001252114A001000479A000744789
2113A000775858A001241713A001955538A002456518A002372857A001825437A001354154
2106A001338455A001613180A001791227A001791750A001823671A001974900A002091134
2099A002061765A002015912A002165899A002571051A003098326A003524017A003625992
2092A003313265A002783439A002415636A002357159A002367167A002232356A002090873
2085A002103628A002105067A001893856A001584203A001387906A001365405A001603891
2078A002250736A003133386A003683815A003491574A002773889A002149350A002045347
2071A002391172A002823732A003089757A003194021A003208215A003107025A002896927
2064A002762312A002876126A003141300A003356174A003536249A003777221A003922956
2057A003742554A003361668A003162362A003324711A003710699A004093808A004310448
2050A004305281A004147837A003945915A003759953A003699906A003954811A004528003
2043A005082619A005259751A005016947A004506091A003853948A003249947A002983138
2036A003165960A003566076A003828176A003785005A003561367A003450365A003649802
2029A004073531A004455725A004646658A004724170A004782189A004723973A004442381
2022A004121935A004052403A004167003A004148884A003965996A003870628A003921713
2015A003946962A003906800A003925769A004043181A004157453A004151043A004013942
2008A003925638A004131419A004674131A005348840A005907838A006170789A006040818
2001A005629975A005284149A005295203A005641029A006093277A006462193A006637689
1994A006530612A006170462A005827907A005861593A006371730A007062988A007519619
1987A007606811A007553894A007640563A007892655A008140169A008262683A008264907
1980A008205318A008193740A008409791A008961921A009677774A010152785A010101765
1973A009635257A009131269A008865179A008832670A008880943A008883625A008773735
1966A008502347A008034138A007383892A006692765A006235807A006219520A006514979
1959A006735282A006651491A006403389A006239339A006214091A006221809A006181189
1952A006124871A006162351A006324831A006451400A006400445A006343080A006520343
1945A006737833A006571558A006113685A005982799A006469322A007117344A007303307
1938A006926280A006431253A006301348A006568877A006831631A006737963A006335296
1931A005916276A005705851A005726390A005794809A005667193A005338440A005092758
1924A005115390A005222402A005148946A004905030A004647443A004369972A003993011
1917A003653661A003651633A004068822A004574379A004659348A004047563A002907523
1910A001721630A000960710A000782924A000885880A000687163I99868550I98730996
1903I97849327I97467853I97406498I97391584I97295562I97194306I97310148I97745652
1895I98272730I98591410I98732958I98910744I99047386I98775933I97924549I96771166
1887I95793278I95277712I95115364I94877858I94220351I93276281I92492925I92079988
1879I91897297I91895727I92239982I92809839I93008948I92487561I91819131I92023735
1871I93440135I95374585I96851032I97446595I97406956I97259782I97450454I98179454
1863I99377186A000785017A002114878A003198011A004021988A004653919A005145217
1856A005513805A005795463A006008309A006010337A005550304A004658105A003845510
1849A003654315A004093678A004706705A005033169A004825098A004048348A002951414
1842A001991252A001462866A001281483A001205737A001113247A001016374A000994265
1835A001175060A001613309A002123905A002385809A002283637A002053785A002008128
1828A002176888A002338779A002362915A002334200A002337994A002353431A002421327
1821A002693827A003242360A003964165A004685054A005238427A005537353A005667586
1814A005783035A005859042A005748041A005468018A005201928A005029637A004862186
1807A004590274A004206707A003850416A003685450A003676882A003662295A003673284
1800A003875664A004209127A004451408A004583799A004775713A005119707A005607735
1793A006235545A006982533A007752808A008399914A008834174A009115636A009347058
1786A009504829A009530600A009513332A009590124A009738933A009806437A009703350
1779A009527395A009454201A009465909A009297543A008757971A007973961A007265172
1772A006895930A006927523A007188969A007441388A007589020A007652991A007629901
1765A007488876A007231486A006926869A006713827A006665423A006660190A006550301
1758A006405482A006411042A006608451A006894425A007203948A007583460A008061218
1751A008497703A008675619A008590651A008522232A008757513A009363215A010201189
1744A010998347A011440849A011432477A011249851A011228854A011366870A011485132
1737A011645061A012001810A012344430A012286084A011891920A011684831A011995465
1730A012612156A013070422A013095409A012761357A012354700A012132958A012160038
1723A012289485A012321275A012251940A012309436A012640936A013071534A013324869
1716A013368432A013355612A013356004A013342399A013352864A013458437A013623533
1709A013729040A013681421A013475378A013251086A013219296A013405651A013610059
1702A013728648A013857441A014017370A014098806A014109795A014162254A014260174
1695A014354496A014485709A014662841A014750883A014637200A014404666A014235187
1688A014211181A014275872A014339386A014371960A014409048A014494670A014608812
1681A014667616A014631575A014586572A014664411A014902636A015197049A015379936
1674A015374965A015274299A015210654A015208823A015239827A015303406A015349063
1667A015259712A015028420A014824405A014797063A014920101A015087813A015257946
1660A015419968A015514944A015507683A015472100A015482042A015500161A015510300
1653A015623525A015905445A016239889A016497541A016689455A016842843A016882940
1646A016750549A016532928A016369598A016284106A016188280A016021941A015834998
1639A015749375A015862339A016164405A016534040A016814455A016867045A016619597
1632A016175394A015819037A015761672A015932525A016128102A016272986A016432130
1625A016650601A016868091A016973271A016920747A016799018A016751791A016816679
1618A016862728A016726674A016422253A016155902A016120318A016351087A016747932
1611A017100560A017178268A016975888A016777367A016846113A017192462A017675126
1604A018120899A018372926A018419302A018410668A018450764A018510353A018564971
1597A018648043A018766109A018877568A018929308A018892155A018823016A018851142
1590A019062745A019450761A019951871A020443954A020763877A020834586A020746347
1583A020643391A020588380A020575364A020582755A020568757A020499030A020388355
1576A020228426A019959458A019674988A019684734A020100549A020535987A020514270
1569A020012702A019365073A018860169A018704492A019114158A020061433A021017866
1562A021315353A020826148A020081318A019709786A019924136A020480844A020957034
1555A021108329A021084323A021250073A021761518A022368397A022653783A022449048
1548A021953760A021441726A020987188A020556264A020173351A019910466A019863239
1541A020092569A020410791A020414061A019937742A019320463A019077986A019418709
1534A020077393A020584783A020779968A020963313A021431195A022110025A022780156
1527A023330128A023668562A023723507A023622120A023606487A023728216A023804420
1520A023699174A023541731A023587845A023878203A024134677A024090002A023847918
1513A023806774A024220300A024916595A025491619A025747635A025854843A026049047
1506A026271443A026244625A025869364A025350005A024882385A024461992A024123558
1499A024094842A024539634A025312983A026076062A026539757A026625903A026502865
1492A026432026A026582143A027039886A027802442A028641332A029225775A029491603
1485A029638908A029751872A029705561A029427108A029004818A028593124A028343975
1478A028319904A028385707A028299823A027941439A027367789A026729840A026236972
1471A026070240A026183204A026305587A026279488A026241158A026380940A026715973
1464A027183266A027710343A028148267A028360132A028413768A028489056A028604113
1457A028580827A028283274A027821280A027500376A027532296A027771764A027815916
1450A027412530A026727289A026181046A026053299A026240635A026415935A026412991
1443A026344768A026289104A026090517A025689682A025405408A025561150A025998616
1436A026248615A026046038A025532108A025110275A025078486A025213035A024971343
1429A024296830A023777143A023843993A024347392A024965587A025468987A025676861
1422A025675552A025869364A026428428A026963552A027023926A026671821A026407301
1415A026664037A027400494A028158210A028602020A028884855A029335272A030012990
1408A030738131A031193258A030896817A029550211A027624983A026290608A026458517
1401A027871515A029312182A029779867A029270188A028372429A027520588A026839337
1394A026364718A026123223A026067362A026174439A026663121A027791387A029325395
1387A030545694A030999643A031002063A031122811A031423830A031571004A031501472
1380A031468375A031551119A031567341A031380528A031035880A030663498A030363787
1373A030160295A030090306A030290266A030772014A031216282A031329966A031233943
1366A031133734A030905386A030377327A029722502A029328208A029449152A029973940
1359A030361563A030064730A029206609A028523920A028502465A028896433A029181492
1352A029177633A029128640A029346653A029885701A030517894A030943651A031017042
1345A030886286A030912908A031281889A031699012A031696199A031230804A030751410
1338A030640212A030775023A030753830A030433449A030029212A029749975A029645776
1331A029763449A030021036A029956149A029165008A028143296A028192354A030099201
1324A032975695A034802087A034448020A032854162A031768740A031741136A032034437
1317A032085000A032121302A032495451A033175393A033856317A034149552A033899945
1310A033556671A033814258A034739359A035701875A036246417A036513685A036742556
1303A036907914A036925640A036726007A036157655A035267091A034549995A034363117
1296A034298492A033832245A033363448A033753426A035020624A036454684A037781537
1289A039121406A040100667A040238814A039877682A039594586A039188583A038393191
1282A037954613A038739212A040268118A041263601A041268114A040722329A039805338
1275A038423605A037187413A036990724A037521595A037514727A036610950A035617560
1268A035043125A034634440A034128686A033493027A032970920A033535740A036181334
1261A040074895A043022032A044272092A044726957A044901342A044530856A043664952
1254A042980627A042919926A043140032A043116223A042907302A042934185A043243250
1247A043460871A043351766A042897686A041947337A040553896A039645933A040325548
1240A042351574A044205570A044793676A044237947A042972778A041164111A039234893
1233A038011128A037940746A038522638A038717823A037940288A036627041A035701547
1226A035577922A035929634A036250276A036316995A036284748A036470056A036867883
1219A037100221A037125142A037471033A038370166A039340531A040004710A040551476
1212A041127874A041476643A041393375A040959572A040195185A039010273A037647838
1205A036706449A036518002A036786512A036986145A036973521A037089101A037627626
1198A038298214A038535851A038357803A038369250A038840599A039422425A039754580
1191A039609238A038717169A037290304A036362717A036829552A038497913A040527471
1184A042200279A042935363A042440990A041271319A040439690A040213762A039972724
1177A039439301A039333074A040248691A041458720A041792968A041689685A042993382
1170A046251480A049542414A050633920A049177489A046307014A043347449A041372836
1163A040867147A041283616A041507778A041048792A040546701A040964020A042394222
1156A043872696A044534258A044591557A044669657A044832857A044988403A045332593
1149A045563034A044490825A041508236A038063194A036610754A038016295A040506278
1142A041652139A041041663A040073129A039789509A040018511A040341639A040920980
1135A042083456A043719112A045481598A047172068A048538886A049156558A048945216
1128A048275282A047308776A045874258A044256786A043371586A043751621A044869421
1121A045682278A045583115A044734087A043704329A042972516A042682289A042740309
1114A043016079A043266536A043155731A042737888A042593200A043038384A043561996
1107A043579656A043324425A043392517A043920314A044523269A044792825A044663967
1100A044385580A044275428A044433198A044519475A043978399A042717415A041337645
1093A040379381A039834577A039605378A039641681A039525054A038695191A037141364
1086A035489356A034420024A034038027A033833227A033266052A032280381A031217460
1079A030383345A029866209A029703141A030032156A031028947A032684029A034693702
1072A036617753A038082294A038981035A039536043A039966772A040260726A040434849
1065A040731028A041236521A041604259A041502872A041114661A040864269A040900703
1058A041165681A041736977A042667965A043597252A044124199A044316898A044412529
1051A044389766A044100651A043676137A043493053A043725457A044174761A044577886
1044A044885185A045117785A045182868A045048711A044884793A044748346A044398989
1037A043807220A043364848A043418877A043942947A044568075A044909060A044896174
1030A044758092A044713613A044737946A044736507A044765418A044884400A045037526
1023A045220349A045573173A046195227A046912061A047331997A047220603A046727015
1016A046246247A046119285A046372751A046734733A046944963A046951961A046801452
1009A046490359A046080432A045778431A045667887A045592207A045436988A045309045
1002A045354440A045462237A045388388A045067550A044641138A044324813A044185554
995A044046753A043692555A043074883A042308141A041555135A040976187A040727627
988A040845366A041112960A041332347A041579533A042019158A042733768A043733240
981A044809571A045458770A045485654A045349731A045545831A046059500A046593577
974A046987676A047170171A047099004A046925797A046835204A046793341A046723286
967A046752983A047055506A047451109A047545497A047361104A047436784A048245128
960A049325121A049911591A049981842A049790254A049519455A049308834A049225958
953A049197112A049101678A048952542A048960457A049327803A049828651A050076230
946A050040516A049906947A049821456A049858805A050088658A050451425A050640526
939A050478308A050296075A050715748A051714306A052560718A052771143A052399415
932A051899483A051616648A051510290A051325440A051082571A051292604A052351142
925A053479016A053801425A053607679A053415110A053474437A053681069A053582757
918A052959068A052178393A051675517A051381301A050903804A050202799A049466146
911A048724260A047888379A046992908A046156897A045430447A044859610A044609611
904A044783341A044884139A044585278A044172865A044013917A044279026A044671554
897A044912788A045079978A045321015A045706872A046334813A047348676A048529336
890A049355275A049751793A049959341A050214704A050671466A051405568A052485757
883A053826084A054986990A055639002A055967298A056293108A056576466A056445710
876A055820451A054913861A053833934A052425645A050326556A047116861A042394091
869A036025787A028712237A021793177A015262001A005752619I88133379I61289423
862I31645046I07052455H87288926H64457644H33463848G99893728G76024512
855G70711477G84378286H11324348H45180509H82657796I20739214I51192392
848I68998380I79359734I88573134I98613584A007479130A013699082A018131038
841A021350413A022946037A022480184A020382206A019634957A022492742A027055388
834A031655383A035508521A038329088A040216509A041266217A041537344A041242735
827A040801214A040732075A041387946A042570895A043476177A043802118A043920445
820A044291388A045027715A045722701A046081413A046173380A046174165A046294062
813A046591615A046790790A046567936A045964786A045139697A043996387A042352293
806A040144754A037491572A034614228A031424092A026458190A015846052I97633276
799I75422348I49210323I15657471H73082545H22003794G65591926G14663226
792F83277098F77254489F97212417G41170906G97058705H47368687H85587729
785I13991530I35465282I51718097I63284182I70385279I73907832I75242665
778I75894939I77165865I79307144I81543203I83440239I84990861I86041027
771I86463775I86597016I86858855I87070131I85758519I79214196I65832576
764I52375865I45557734I47335395I56582023I69441275I81230409I89429815
757I94464333I97931810A000921660A003681330A006285911A009162666A012499322
750A015581270A017903802A019887376A022096158A024544082A026688762A027759075
743A026128717A019392938A007510527I95573237I91987956I99964769A011789095
736A020273690A025198252A028324549A030377065A031350832A031349393A030693260
729A029511357A027454654A023745223A017281682A007135659I93315920I76091105
722I55950681I37167656I27320037I30372550I44863139I65945671I86042008
715I98962680A004516099A005621537A004388810A002348721A001591398A004061365
708A010035504A017556537A023841311A027766139A030024568A031475897A032426312
701A032919049A033071194A033169768A033494204A033979223A034320404A034338130
694A034029654A033484719A032921142A032631112A032746562A033152826A033690763
687A034344017A035149875A036014537A036739285A037271662A037851657A038754911
680A039951727A041174315A042224220A043164300A044228856A045535235A046945813
673A048226289A049255131A050091274A050881433A051615666A051882803A050926305
666A048172391A043980950A039879972A037502692A036969334A036764796A035077531
659A030675926A023032771A012891459A003034681I97548112I99322765A007883105
652A019612782A030283855A037619646A041718727A043734483A044655463A044891203
645A044288445A042439747A039149860A034635094A029490491A024767328A021760602
638A021101788A022078432A023276557A023878595A024138602A024803958A026365896
631A028719366A031219422A033029920A033576163A032713529A030474920A026787270
624A021589750A015213925A008391280A001527819I93788511I83122933I67704429
617I47727270I25704070I04493464H84623317H63983549H40957474H17571249
610G98434616G86570585G81323026G80143216G81007093G82779522G84233337
603G83585969G79652899G74140820G72520274G81261475H03140314H35036448
596H70275387I02887767I29887007I50856640I66724710I78853130I88425110
589I96232968A002863567A008802450A014291178A019271536A023548272A026985464
582A029470148A030588080A029400225A024718728A016049479A005224102I97217658
575I97426383A006612114A019743865A030868756A037802403A041684648A044093391
568A045713544A046490425A045487420A039985217A025596864I99181020I61621708
561I16256893H66763431H20068492G87144236G73283353G70163467G66405567
554G64831921G80136217H18977510H70377689I17182190I50600296I71922754
547I85810324I95645450A003067256A008776613A013168145A016652171A019589954
540A022182369A024553697A026734353A028542823A029688031A029901792A028836582
533A026228992A022595306A019503808A018564840A020081645A022994506A026037927
526A028572520A030447905A031679978A032466866A033193119A034166297A035274221
519A035820202A034584924A029813227A019006950I99287051I68921784I29119153
512H84773630H43716621H14354033H02398493H08916587H30935339H63109010
505H98952146I32252644I58998092I78345806I91701523A001013627A007748883
498A012735847A016327343A018677935A020104670A021182308A022430929A024046177
491A025946418A027903436A029464392A029594690A026785308A020698074A013957061
484A010750507A012803939A017812358A022213047A024286103A024314425A023097790
477A021166413A019017220A017289401A016283583A015590558A014631575A013413958
470A012517441A012552894A013784966A016124832A019299335A022878795A026184054
463A028262474A027836390A023752811A016602655A009718132A007041664A009158872
456A011294918A005918697I90126503I71910326I65312889I75886305I93562779
449A002935519I98605080I88472598I84153933I90395405A003073666A015293791
442A023550692A028271566A031122222A033376007A035605656A037701278A039343082
435A040505035A041413129A042369038A043627014A045126223A046457654A047276332
428A047631838A047851749A048185735A048618098A049035025A049354883A049363255
421A048693778A047056880A044266271A040279107A035695072A032044707A031058643
414A033389743A038008315A042944978A046718577A048954243A049798300A049279333
407A047448493A044799955A042100201A039592165A036852184A034146151A033332705
400A036149152A041892981A047979822A052455276A055057176A056352370A056853022
393A056923142A056936813A057203099A057725206A058211075A058431181A058446291
386A058456103A058575477A058807292A059137157A059532368A059855038A059990307
379A060099804A060449031A060973296A061374328A061569840A061691177A061795310
372A061877204A061972704A062049365A061939671A061417761A060274777A058548920
365A056851452A056149597A056920525A058684188A060521571A061829847A062508612
358A062723158A062655459A062392705A062045244A061886623A062163898A062818069
351A063569178A064163629A064456210A064456407A064305766A064090304A063798573
344A063496573A063256908A062828731A061594565A058960811A054938717A050588198
337A047625363A046918602A047374448A046568394A041002089A024340851I89009814
330I35374100H77595152H32750285H03759752G79487934G51082432G21367935
323F98678856F88150051F89778250G00472151G16483012G35016953G53953104
316G70973773G84253352G93095809G96396293G91542505G77199547G57515950
309G41650365G37834643G48442071G70702712G99907268H30460786H55740515
302H70199576H73516610H72480638H76708512H90963493I12267963I34426955
295I53474042I68659161I80665590I90258828I97994015A004417787A010055193
288A015044250A019184605A022436620A025037146A027214859A029023329A030440187
281A031645964A032929188A034080936A034477978A034006107A033138501A031786923
274A027466297A013780780I84318506I43801984I12593511I11022612I38561031
267I75227097A002262902A014208826A013558777A004159808I92120935I85752305
260I89685701A000964634A013058844A022235679A028735981A033874566A038207032
253A041710616A044219305A045722047A046576113A047209810A047607310A047026333
246A043794792A035798748A022770933A008644942I99794898I98674350I99412377
239I92929605I77918021I64114111I63040855I77133879I98825841A018431272
232A031261677A038099694A041672613A044066180A046340046A048869602A051485696
225A053667268A055005502A055602111A055910522A056225735A056635008A057339872
218A058427649A059424702A059799635A059846469A060365763A061519736A062609344
211A062944246A062387602A061392054A060956028A061467800A062322846A063017833
204A063451178A063687179A063633084A063119219A062244092A061157165A059606609
197A056972527A052260810A044374983A034123192A025763596A023870092A028270389
190A034310200A037465473A034583551A022455982A000484652I74433733I53111603
183I41871066I41971405I52889011I71580984I91702112A005973968A009021706
176I99464248I82421601I68859383I68126392I79505861I93147488A000224187
169A000666493A001393269A008483509A021570127A035551103A046202880A052923288
162A057180728A060276478A062821798A065034766A066710061A067452863A067533840
155A067955150A069091200A070029645A069970448A069438922A069420804A069930744
148A070182836A069831124A069252110A068790050A068492759A068397652A068401446
141A068189451A067814714A067811509A068438272A069375932A070245630A070800639
134A070791547A070240463A069669625A069730719A070694870A072211609A073448522
127A073741823A073217885A072480119A071735551A070728295A069560521A068759634
120A068146018A066544834A063257890A058897166A053660007A044477351A023335884
113I79895512I11891002H36456184G84801754G76112947G92376097G89951459
106G44670304F70972266F00784418E58016532E47201588E56610271E71538588
99E87342882F10351427F47113254F95306943G45874381G91365438H30076499
92H63147602H90693348I12072778I27908797I39624999I48168660I53807244
85I55175239I48180630I29289547I02168839H79180245H73943806H90399655
78I19098195I46146036I63862019I71271069I68778797I54291412I22296574
71H70251774H11936787G75204068G77795240H14870318H66875283I14121174
64I47032021I66021155I76298587I82712285I86386133I86263750I83061120
57I77828670I69375210I56702771I40385593I18001261H82958160H33842772
50G83712145G54854919G60690519G94340505H32600495H45923376H18213123
43G65842971G26641005G28764492G70437995H27085995H75985072I09006136
36I27765286I36406213I38664445I37129588I33012060I25269351I10768688
29H88397766H64898053H53196961H59396897H76035961H91825866I03288537
22I13937501I26552706I41242863I58367207I77523399I93084694I99554972
15I99431085I98562694A000405178A005330656A012363988A020681132A028830106
8A033358935A032305695A028972898A027483042A027677181A026877144A025840780
1A027881000
##END=


$$ === CHEMSPECTRA PEAK TABLE AUTO ===
##TITLE=JMB-199
##JCAMP-DX=5.00
##DATA TYPE=INFRAREDPEAKTABLE
##DATA CLASS=PEAKTABLE
##$CSTHRESHOLD=0.93
##MAXX=3997.453
##MAXY=0.9784358115957533
##MINX=373.96442
##MINY=0.49863162484010365
##NPOINTS=79
##PEAKTABLE= (XY..XY)
3996.036468107897, 0.899492082252225
3983.287681078968, 0.9005533435042585
3962.0397026974197, 0.9007314415922131
3946.4578518842845, 0.9026308033994951
3939.3751924237686, 0.9024977660978925
3932.2925329632526, 0.9026181080127315
3926.62640539484, 0.9022459359883629
3919.543745934324, 0.9012889241640707
3899.7122994448787, 0.9021322698130751
3894.046171876466, 0.90208828155545
3886.96351241595, 0.9027916763298275
3879.880852955434, 0.9019549462785766
3875.6312572791244, 0.9019740795714185
3854.383278897576, 0.8999839993296518
3845.884087544957, 0.9018135638469152
3838.801428084441, 0.901817438436674
3821.8030453792026, 0.9032463401197389
3809.054258350274, 0.9048621032796835
3801.9715988897574, 0.9054900383226595
3797.722003213448, 0.9057318539116227
3783.556684292416, 0.9045240252759693
3769.391365371384, 0.9058577990372864
3760.8921740187648, 0.9052630640891526
3752.392982666145, 0.9044325924298262
3745.310323205629, 0.9061155886522304
3738.227663745113, 0.9053655839845888
3719.8127491477717, 0.9043623185616224
3712.7300896872557, 0.9041569206536816
3704.2308983346365, 0.9059330200239757
3695.7317069820174, 0.9055657358875341
3684.3994518451914, 0.9083925461805517
3677.3167923846754, 0.9069479675355373
3670.2341329241594, 0.9079874729478509
3661.7349415715403, 0.9068723292012211
3650.4026864347147, 0.9073449945246893
3634.820835621579, 0.9072547526683897
3629.1547080531664, 0.9062489840709015
3619.238984808444, 0.9084787940747363
3606.4901977795153, 0.9069054099237072
3579.576091829554, 0.9057725644412701
3554.0785177716966, 0.9084725356828118
3537.0801350664583, 0.9094343752532332
3528.5809437138387, 0.9080542303433645
3508.749497224394, 0.9094666212804656
3488.9180507349492, 0.908455070869238
3466.2535404612977, 0.9087761023182448
3061.125419319781, 0.9086827011950841
3032.794781477717, 0.9038544274582148
3025.7121220172007, 0.9037846301681961
3015.7963987724784, 0.9087423655034195
1583.6826558561374, 0.7023026330461347
1493.0246147615321, 0.617140947113487
1453.3617217826427, 0.8616294243732102
1419.3649563721656, 0.9039384701531481
1392.4508504222044, 0.8450105170310563
1300.3762774354964, 0.9090051031480884
1232.3827466145422, 0.7108972048561818
1222.4670233698198, 0.7039508800667846
1188.4702579593431, 0.9087039804566188
1157.3065563330724, 0.6969449501996106
1093.5626211884282, 0.7311770892262844
1012.8203033385453, 0.879631099172111
1004.3211119859261, 0.8967998000484029
828.6711573651287, 0.6270694120572073
808.839710875684, 0.6723439678731484
797.5074557388584, 0.7950386981835117
753.594967083659, 0.8301596619044083
742.2627119468334, 0.8982562995267248
706.8494146442531, 0.8775607323640527
631.7732243627834, 0.8582699873843578
617.607905441751, 0.8821948738451891
526.9498643471461, 0.7072246651119939
517.0341411024233, 0.49863162484010365
485.870439476153, 0.7963719944554042
470.2885886630179, 0.7063964587937165
441.95795082095356, 0.6878535132824118
432.0422275762312, 0.6621438843459568
410.79424919468283, 0.7774666526955849
392.3793345973413, 0.9099296302004358
##END=

##END=

