##TITLE=X7692
##JCAMP-DX=4.24
##DATA TYPE=INFRARED SPECTRUM
##DATE=29/10/2018
##SAMPLING PROCEDURE=Diamant-ATR
##ORIGIN=ComPlat
##XUNITS=1/CM
##YUNITS=TRANSMITTANCE
##RESOLUTION=4
##FIRSTX=3997.453
##LASTX=373.96442
##DELTAX=-1.4165319
##MAXY=0.97572315
##MINY=0.64205736
##XFACTOR=1
##YFACTOR=9.0871299e-010
##NPOINTS=2559
##FIRSTY=0.96279544
##XYDATA=(X++(Y..Y))
3997+1059515427+1060054137+1060370227+1059935349+1059178348+1058710805
3989+1058635374+1058802503+1059103310+1059326652+1059271292+1059124759
3980+1059254041+1059613160+1059785864+1059603124+1059320355+1059180971
3972+1059146339+1059128497+1059167328+1059274375+1059340951+1059286969
3963+1059158670+1059056608+1059048212+1059132171+1059214686+1059098063
3955+1058590181+1057803663+1057292632+1057649324+1058860290+1060140457
3946+1060640599+1060331986+1060024489+1060444215+1061287143+1061744977
3938+1061673154+1061352407+1060717538+1059724863+1059040276+1059349150
3929+1060207361+1060635613+1060285875+1059464199+1058677025+1058251987
3921+1058185476+1058308330+1058463916+1058588213+1058779808+1059221311
3912+1059998252+1060987582+1061740583+1061609988+1060331855+1058500975
3904+1057239437+1057057681+1057527125+1058296065+1059246236+1059993858
3895+1060167350+1059803443+1059318322+1059206684+1059478433+1059646874
3887+1059309532+1058317776+1056847851+1055375498+1054494462+1054860074
3878+1056484534+1058457684+1059813741+1059939088+1058905287+1057702650
3870+1057536898+1058528393+1059535957+1059746378+1059295299+1058655052
3861+1058068459+1057620660+1057461402+1057607082+1057796251+1057698715
3853+1057506988+1057894246+1058682535+1059339443+1059650154+1059534317
3844+1058904434+1057808844+1056664192+1056050182+1056245057+1057056565
3836+1058069115+1058993902+1059564949+1059456000+1058659971+1057699436
3827+1057221465+1057485999+1058194724+1058856879+1059178085+1059131711
3819+1058957695+1059022172+1059564490+1060374753+1060847346+1060636204
3810+1059798392+1058650329+1057860531+1058060654+1058806308+1058940575
3802+1057870632+1056298974+1055828545+1057233993+1059880317+1062103177
3793+1062721451+1062207600+1061564730+1061117127+1060690318+1060217593
3785+1059760218+1059297135+1058787089+1058323810+1058181147+1058531476
3776+1059046376+1059274441+1059214817+1059186809+1059327046+1059420252
3768+1059314124+1059240136+1059490764+1060028097+1060511906+1060590486
3759+1060110219+1059320880+1058793452+1058787220+1058994099+1058835168
3751+1057975974+1056853426+1056063038+1055547416+1054969482+1054154168
3742+1053348497+1052654005+1051611283+1049776008+1047485588+1046096079
3734+1046714943+1048933409+1051704228+1054211037+1055899647+1056543240
3725+1056316028+1055723794+1055366643+1055615763+1056363516+1057197983
3717+1057859351+1058277174+1058308134+1057807008+1057128192+1057083393
3708+1057698518+1058114505+1057751845+1056743755+1055707986+1055284456
3700+1055559682+1056071106+1056411399+1056610406+1057146165+1058519603
3691+1060628661+1062466100+1062738964+1061501236+1059938957+1058687192
3683+1057769751+1057243504+1057347730+1057965413+1058261563+1057619414
3674+1056929972+1056928857+1056685903+1055698738+1055368349+1056821154
3666+1058865734+1059970900+1059691083+1058526491+1057215627+1056222230
3657+1055952974+1056737393+1057916809+1058105519+1056734769+1054555528
3649+1053053594+1052674470+1052879840+1053826600+1055594446+1057483637
3640+1058660365+1059002167+1058863635+1058267925+1057005600+1055296263
3632+1053629889+1052138318+1050950571+1050794527+1051672809+1052565849
3623+1053005515+1053348366+1054081361+1055059278+1055634064+1055626848
3615+1055350836+1055052587+1054904873+1055044519+1055650199+1056914230
3606+1058412885+1059117609+1058607300+1057422374+1056288020+1055479003
3598+1054917664+1054449990+1053938632+1053504082+1053391657+1053431340
3589+1053270049+1053186615+1054078081+1055999741+1057842165+1058693423
3581+1058507928+1058027070+1057962462+1058152155+1058096336+1057921729
3572+1057940029+1057770014+1056835847+1055474871+1054902971+1055500845
3564+1056297662+1056809545+1057421456+1058417345+1059440192+1059832369
3555+1059290904+1058135822+1057106153+1056789145+1057119009+1057626301
3547+1057936290+1057874437+1057585371+1057687499+1058771675+1060537159
3538+1061769378+1061494480+1060063779+1058671778+1057967775+1057718065
3530+1057519648+1057297814+1057149510+1057096314+1057244488+1057840198
3521+1058754490+1059333802+1059232330+1058980521+1059285526+1060028556
3513+1060389642+1059861230+1058879706+1058386385+1058740584+1059370796
3504+1059620965+1059494109+1059373026+1059342001+1059248925+1059159654
3496+1059259354+1059444522+1059407527+1059131580+1058973765+1059205044
3488+1059705973+1060188011+1060474059+1060470583+1060120254+1059501128
3479+1058815819+1058300656+1058251462+1058873999+1059879005+1060555394
3471+1060491376+1059899601+1059176118+1058569847+1058285111+1058414262
3462+1058734812+1058988523+1059261322+1059728340+1060238386+1060454316
3454+1060255899+1059882154+1059758643+1060097034+1060519515+1060303323
3445+1059253844+1058098041+1057801760+1058590771+1059631001+1059856310
3437+1059135647+1058312332+1058103748+1058445090+1058936246+1059401034
3428+1059884778+1060412665+1060791199+1060611607+1059685705+1058459980
3420+1057659425+1057584846+1058025890+1058608940+1058947594+1058774955
3411+1058197545+1057673265+1057670248+1058357328+1059469840+1060413387
3403+1060671427+1060217265+1059441570+1058693423+1058018543+1057338941
3394+1056712599+1056283691+1056095244+1056068941+1056075304+1055935198
3386+1055512783+1054915565+1054537556+1054781035+1055602776+1056386080
3377+1056560294+1056326588+1056314650+1056631658+1056800952+1056557932
3369+1056187532+1056104558+1056335574+1056436258+1056099114+1055846976
3360+1056528481+1057950918+1058780661+1058162387+1056763827+1055804801
3352+1055674206+1055920374+1056112298+1056220525+1056339706+1056385096
3343+1056156572+1055647838+1055178590+1055026547+1054986011+1054635485
3335+1054081164+1054026132+1054952165+1056499817+1057810222+1058364871
3326+1058336797+1058167241+1058061309+1057961740+1057731905+1057293026
3318+1056798722+1056610669+1056928398+1057595932+1058284652+1058608153
3309+1058222732+1057239437+1056390737+1056384047+1057149313+1057885128
3301+1057853447+1057051580+1056037457+1055272387+1054927109+1055097124
3292+1055723860+1056458101+1057013668+1057454711+1057869780+1058076789
3284+1057923828+1057691172+1057903625+1058679190+1059410545+1059354922
3275+1058514553+1057610100+1057228352+1057387545+1057848265+1058340077
3267+1058500188+1058129919+1057641977+1057770932+1058616287+1059386866
3258+1059350069+1058669088+1058017953+1057697009+1057466518+1057099201
3250+1056808954+1057028098+1057815797+1058632422+1058910665+1058840153
3241+1059166213+1060048103+1060647158+1060256818+1059321208+1058733303
3233+1058646328+1058614450+1058412032+1058132543+1057868140+1057722328
3224+1057811075+1058016575+1058082627+1058076133+1058385336+1059094389
3216+1059730176+1059863066+1059639462+1059438881+1059305728+1059048475
3207+1058671778+1058396683+1058343553+1058378973+1058307806+1058223913
3199+1058559090+1059590071+1060910577+1061639964+1061293636+1060302273
3190+1059471152+1058998756+1058431054+1057598424+1057008617+1057081031
3182+1057576910+1058062621+1058457619+1058837792+1059031355+1058791943
3173+1058271402+1057965676+1058157468+1058716774+1059426156+1060110874
3165+1060522401+1060517350+1060253735+1059918033+1059451737+1058695260
3156+1057628990+1056562524+1056133746+1056740017+1057943702+1058871966
3148+1059075040+1058648624+1057914776+1057286139+1056981593+1056792753
3139+1056568755+1056626214+1057154888+1057685924+1057700683+1057349042
3131+1057139868+1057292239+1057684809+1058102174+1058346768+1058344406
3122+1058283536+1058458668+1058848287+1059025649+1058679518+1058041566
3114+1057540375+1057215233+1056797672+1056261258+1055966551+1056178021
3105+1056613620+1056703547+1056302450+1055834776+1055581131+1055279799
3097+1054722002+1054266725+1054345633+1054807075+1055153534+1055199121
3088+1055202072+1055470345+1056000922+1056442293+1056372896+1055688309
3080+1054707506+1053789737+1052931264+1051985291+1051157974+1050850215
3071+1050989861+1051009998+1050592896+1050025128+1049797064+1050177434
3063+1051087856+1052133398+1052924508+1053417894+1053658487+1053389296
3054+1052496715+1051562286+1051270465+1051465209+1051394107+1050747235
3046+1049976328+1049605534+1049611503+1049634132+1049568081+1049620620
3037+1049846455+1050044806+1050128108+1050187273+1050238828+1050236861
3029+1050188847+1050042969+1049697494+1049202928+1048733024+1048436350
3020+1048418574+1048565304+1048403816+1047647733+1046760924+1046391704
3012+1046482287+1046550569+1046494947+1046514559+1046563753+1046386916
3003+1045888611+1045225865+1044632582+1044166483+1043624821+1042880741
2995+1042181461+1041849957+1041858484+1041961005+1042027515+1042051260
2986+1041964940+1041528554+1040435064+1038619795+1036341116+1033839357
2978+1031203265+1028609677+1026204535+1023658502+1020337232+1015996591
2969+1010959293+1005618827+1000058955+994209099+988168041+982171520+976358068
2959+970873299+966072527+962252952+959377251+957367698+956397783+956698524
2949+958394349+961511824+965707768+970032602+973389685+975305835+976081137
2939+976247676+976132037+975970286+976027614+976262500+976204516+975590703
2929+974829175+974539716+974994599+976137415+977785030+979785139+982175325
2919+985012129+987967591+990461741+992269467+993728700+995345224+997315685
2910+999383944+1001155069+1002556778+1003856163+1005248296+1006672765
2901+1007985794+1009078759+1009906010+1010587581+1011389316+1012456045
2893+1013664913+1014816125+1015844810+1016781272+1017619215+1018251132
2884+1018473949+1018119029+1017218708+1015913223+1014162431+1011737809
2876+1008579405+1005060308+1001903937+999863358+999302609+999957680+1001186160
2866+1002497876+1003810314+1005292964+1007094721+1009186659+1011336383
2857+1013212719+1014624988+1015723070+1016829220+1017981678+1018880753
2849+1019444716+1020122154+1021456959+1023582611+1026216014+1028900579
2840+1031283747+1033345315+1035292490+1037212904+1039028894+1040718226
2832+1042297035+1043666931+1044726839+1045549433+1046266226+1046852228
2823+1047175927+1047249193+1047271364+1047372704+1047506578+1047685120
2815+1048062670+1048646377+1049207257+1049600549+1049928052+1050351319
2806+1050942634+1051651950+1052237362+1052348410+1051866700+1051110289
2798+1050600570+1050633498+1051110551+1051727185+1052212896+1052431385
2789+1052431581+1052437485+1052657941+1053082389+1053534255+1053870153
2781+1054047450+1054045482+1053844310+1053516479+1053214951+1052983541
2772+1052736389+1052516786+1052509571+1052733175+1053080421+1053647992
2764+1054536441+1055394192+1055706084+1055488121+1055227391+1055218142
2755+1055313382+1055262942+1055043667+1054844003+1054821636+1054937997
2747+1055053309+1055132216+1055244707+1055356608+1055275536+1054940555
2738+1054657000+1054784446+1055235000+1055547678+1055466409+1055152550
2730+1054824457+1054513943+1054223172+1054028559+1053942174+1053884781
2721+1053849951+1053934368+1054186177+1054553298+1054947508+1055263008
2713+1055401670+1055388420+1055404031+1055637606+1056126466+1056710697
2704+1057097626+1057061026+1056655534+1056151719+1055724122+1055363823
2696+1055097256+1055019266+1055074495+1055115294+1055187970+1055410525
2687+1055615895+1055542300+1055312989+1055289310+1055508454+1055673353
2679+1055647510+1055589067+1055586968+1055487268+1055167636+1054756175
2670+1054453860+1054305031+1054245998+1054240226+1054296897+1054455959
2662+1054734595+1055004639+1055035008+1054764768+1054458911+1054543262
2653+1055267665+1056390081+1057199229+1057151084+1056538386+1056206882
2645+1056551439+1057109958+1057223301+1056798132+1056223149+1055742029
2636+1055230670+1054618890+1054247769+1054561694+1055511078+1056511624
2628+1057077161+1057284105+1057427294+1057446775+1057057353+1056365091
2619+1055887316+1055871114+1056035358+1056154670+1056410809+1056908851
2611+1057366817+1057616659+1057909398+1058379629+1058711068+1058631963
2602+1058297376+1057927304+1057463697+1056849818+1056374339+1056408250
2594+1056886878+1057374951+1057612986+1057674052+1057626563+1057419619
2585+1057124257+1057016095+1057369244+1058171111+1059012989+1059428976
2577+1059385685+1059186219+1059039751+1059101408+1059558062+1060192340
2568+1060400990+1060185912+1060440148+1061637668+1062908652+1063089424
2560+1062174345+1061007653+1060032688+1059160310+1058497171+1058307740
2551+1058434268+1058454405+1058258677+1057986928+1057696485+1057494001
2543+1057669920+1058363822+1059286247+1059898749+1059834468+1059248597
2534+1058745897+1058772659+1059191466+1059637560+1060015306+1060409845
2526+1060827668+1061189672+1061251592+1060632859+1059433240+1058603234
2517+1059015482+1060307914+1061271991+1061302754+1060983778+1061273631
2509+1062448652+1063857314+1064596016+1064352209+1063486521+1062426351
2500+1061336206+1060416010+1060088311+1060603736+1061646195+1062532742
2492+1062730437+1062163063+1061221288+1060532568+1060516629+1061111158
2483+1061958349+1062637952+1062702692+1061972124+1060968298+1060532699
2475+1060827209+1061184556+1061089578+1060839606+1061032907+1061715002
2466+1062297396+1062287361+1061918928+1061833002+1062185693+1062442421
2458+1062150469+1061484641+1060842426+1060389183+1060230187+1060499968
2449+1061006079+1061271335+1061143495+1060950916+1060937798+1060947308
2441+1060734592+1060310472+1059879137+1059584692+1059462166+1059575641
2432+1059978903+1060518400+1060938388+1061170782+1061279337+1061211646
2424+1060872402+1060338546+1059892911+1059893370+1060437918+1061083281
2415+1061223846+1060828586+1060448478+1060546670+1061131229+1061887510
2407+1062433304+1062615847+1062579968+1062426810+1062038503+1061420230
2398+1060846034+1060500624+1060343006+1060401186+1060785492+1061382252
2390+1061899251+1062096225+1061601264+1059864313+1056853819+1053438884
2381+1050445379+1047638025+1044246374+1040225627+1036328719+1033051592
2373+1030116727+1027036771+1023739049+1020342282+1016650743+1012593789
2364+1009184822+1007888389+1008673136+1009926410+1010754841+1012051209
2356+1014770866+1018514223+1022300936+1025571438+1027969364+1028959940
2347+1028093005+1025635981+1022901434+1021290814+1020998403+1021361916
2339+1021897740+1022667466+1024002009+1025875918+1027669803+1028791958
2330+1029228934+1029217849+1028867717+1028381809+1028133410+1028361934
2322+1029196335+1030907312+1033562491+1036511262+1038781677+1039929740
2313+1040227005+1040223397+1040425028+1041270251+1043045509+1045602694
2305+1048214648+1050012863+1050789870+1051252690+1052268584+1053910099
2296+1055378647+1055852683+1055336668+1054668281+1054680613+1055457489
2288+1056531630+1057583928+1058540527+1059192778+1059366860+1059344034
2279+1059476662+1059588759+1059338459+1058846385+1058405735+1057913792
2271+1057097364+1056099442+1055510684+1055803489+1056856246+1058078626
2262+1058839825+1058751341+1057950590+1057170893+1056969196+1056997532
2254+1056674883+1056075500+1055552598+1055437614+1056447671+1058949758
2245+1061667972+1062770777+1062270110+1061758752+1061974747+1062119707
2237+1061550824+1060928811+1061223059+1062269388+1063009926+1062913702
2228+1062489582+1062508079+1063184599+1064003126+1064242210+1063701139
2220+1062616897+1061079149+1059266045+1057974268+1058073706+1059616767
2211+1061819621+1063719570+1064919386+1065783172+1066644793+1067145329
2203+1066844260+1065878543+1064600148+1063214968+1061863568+1060617904
2194+1059484730+1058311610+1056709713+1054818488+1053787769+1054285222
2186+1055357854+1056159131+1057431492+1059896256+1062749262+1064694142
2177+1065088680+1063800249+1061187114+1058465227+1057263575+1058175506
2169+1059849817+1060320704+1059452852+1059108361+1061049829+1065443600
2160+1070357191+1072392457+1070110826+1066121825+1063673131+1063715438
2152+1065391389+1067128013+1067552526+1066443359+1064574567+1062631983
2143+1060881454+1059366270+1057897197+1056527366+1056179858+1057915957
2135+1061422066+1065013839+1067285959+1068001703+1067466338+1065984475
2126+1064012309+1062188316+1061089119+1061060652+1061867897+1062520148
2118+1062291099+1061862322+1062345344+1063375145+1063513020+1062448849
2109+1061492447+1061808536+1063094672+1064064914+1063782998+1062465116
2101+1061037170+1060001729+1059148503+1058435317+1058393863+1059273325
2092+1060500624+1061359425+1061629732+1061473491+1061238932+1061225551
2084+1061163894+1060422504+1059224197+1058865210+1060062795+1061881541
2075+1062986969+1063278265+1063483962+1063800905+1063903622+1063924678
2067+1064418785+1065340030+1065771759+1064914795+1062909439+1060521811
2058+1058575423+1057970530+1059390080+1061882918+1062483154+1059136893
2050+1053871924+1051315724+1053683609+1058852682+1063769552+1067689090
2041+1071238621+1073741823+1073276117+1069713861+1065920850+1064594507
2033+1065375056+1066431946+1067036970+1067106433+1066378816+1065475413
2024+1065925573+1067863237+1068947545+1066862298+1062342917+1058570765
2016+1057895689+1060137046+1063401972+1065354526+1064806961+1063088440
2007+1062519230+1063252290+1063457594+1062513589+1061980782+1063474714
1999+1066648007+1069184465+1068934099+1066253666+1063590550+1062585937
1990+1062516934+1061937163+1060291057+1057511973+1053834274+1050347121
1982+1048720955+1050347384+1055701755+1063174563+1068753523+1069545944
1973+1067071341+1064649211+1063144981+1061505959+1059851260+1059451671
1965+1060306012+1061214991+1061854123+1062925378+1064529374+1065600891
1956+1064939523+1062215406+1058362379+1055409475+1055329256+1058272255
1948+1062064412+1064162384+1064026674+1062947745+1062115115+1061856025
1939+1062278965+1063317948+1064326169+1064599886+1064097579+1063132978
1931+1062001312+1061269301+1061522816+1062462624+1063118154+1063110742
1922+1062862803+1062501848+1061753308+1061022018+1061193018+1062100750
1914+1062709710+1062696526+1062650677+1062908652+1063052430+1062826596
1905+1062720008+1063145375+1063693071+1063710584+1063164068+1062430483
1897+1061782562+1061465029+1061612612+1061892035+1061801846+1061320660
1888+1061053503+1061751865+1063520497+1065382665+1066032620+1065323566
1880+1064273760+1063661587+1063493342+1063527253+1063615803+1063752366
1871+1063970002+1063987253+1063308109+1062175263+1061559351+1061912041
1863+1062787634+1063376260+1063273739+1062815904+1062563636+1062726305
1854+1063186501+1063657126+1063763058+1063355861+1062737259+1062357676
1846+1062386143+1062629097+1062788880+1062824431+1062835123+1062795570
1837+1062624374+1062235871+1061453682+1060166628+1058664235+1057738201
1829+1058100468+1059437897+1060696942+1061194789+1061110699+1060859808
1820+1060549884+1060392069+1060659030+1061048124+1061024773+1060589043
1812+1060018324+1059435929+1058995476+1058883838+1059032208+1059211275
1803+1059281590+1059250106+1059201961+1059177561+1059170017+1059183333
1795+1059065070+1058558893+1057891950+1057700617+1057965610+1058148482
1786+1057826095+1056768615+1055204565+1053791443+1052862261+1052171836
1778+1051424083+1050416912+1048744896+1045798421+1041285338+1035817164
1769+1029921655+1023049804+1014690778+1004864580+992793353+977338215+959828461
1759+942612955+925140982+906682304+889254475+874089386+859340088+843131556
1749+826893638+813760798+804315627+797068981+790937209+785664960+780949196
1740+776589861+773056006+770212314+766557573+761508796+757996915+758415788
1730+762286394+768942249+778144138+790300767+805791718+823188128+840552332
1720+858569902+879986928+904439569+926096926+942105663+954491275+965032823
1710+974062204+981532782+987837652+993468102+998257526+1001917777+1004907937
1700+1007991435+1011102547+1014020161+1017119794+1020086013+1022158142
1691+1023383407+1024273889+1025079560+1025654019+1025809866+1025698359
1683+1025728335+1025722956+1025194609+1023878564+1021395630+1017244026
1674+1011768309+1005966139+999576064+991616429+983008086+975771607+969510880
1664+962462454+953904683+945031477+937368254+931012615+925497477+920106440
1655+912478112+900100306+888531844+882348254+878446622+874865672+873075066
1645+874770432+879213988+885650043+893759622+903264088+915123911+931265802
1635+949202496+963204304+973093732+981321115+989033729+996017677+1001746712
1625+1006192498+1009455391+1011228877+1011243242+1009562700+1006557257
1616+1003925363+1004124698+1007333674+1012270419+1017877321+1023211358
1608+1027425865+1030185140+1031789726+1032800046+1033534155+1033846310
1599+1033364337+1031962103+1029907815+1027512972+1024792200+1021706013
1591+1018655705+1016486369+1015950414+1017213132+1019866606+1023252682
1582+1026664338+1029474906+1031399517+1032617699+1033642120+1034823767
1574+1035806997+1036247646+1036556849+1037716063+1039984051+1042343802
1565+1043995352+1044712933+1044370082+1043010089+1041677449+1042643493
1557+1045002720+1046461429+1047141950+1047616839+1048049683+1048339732
1548+1048279912+1047644978+1046404495+1044881702+1043512330+1042763265
1540+1043634988+1045815213+1047347057+1047526387+1046963079+1046773452
1531+1047268740+1047782394+1047925320+1047746843+1047290910+1046486288
1523+1045484693+1044819193+1044659278+1044538588+1044458500+1044820832
1514+1045432285+1045678584+1045176474+1043679722+1041173044+1039141582
1506+1039864869+1041646358+1042062935+1040566642+1036809773+1029474906
1497+1016065594+996434189+975158383+956285161+941875303+935810960+942157219
1487+957098047+972241950+983612060+991386397+996933675+1001121289+1003890796
1477+1004908658+1004175336+1002043846+999158962+996442913+994223792+991778245
1468+988093922+982205169+973725124+963713432+953442059+942637946+930005641
1458+916258397+907489287+906651279+909418096+912305341+913852075+913608859
1448+911948978+909552757+906550332+902365997+896529391+889270020+880769445
1438+870670384+860191411+852883633+849885603+849595619+850869554+853120947
1428+855549767+857639409+859619708+862050430+865337002+869993470+877074430
1418+886933686+898010139+909034840+919980699+930927739+941619427+951467860
1408+959931966+967166674+973687146+979291031+983247432+985317265+985730104
1398+984693022+982079035+977566345+971414633+964508477+957287413+949799912
1388+942938359+938666130+937922510+939270892+940559651+940406690+938419306
1378+934826943+929828738+923429087+916212942+909759242+905379377+903387599
1368+903845827+906733991+911732589+918607195+927153816+936477313+945371246
1358+953308579+960320404+966583099+972228897+977144127+981050284+983891484
1349+985998770+987865857+989800504+991693894+993084386+993572787+993244235
1339+992535641+991558970+989950120+987376538+983684999+978723591+972432430
1329+965101826+957361073+949929260+943423414+938197998+934217000+931195946
1319+928893719+927143583+925713932+924453378+923529706+923217289+923453422
1309+923842975+924028864+923835366+923111423+921667997+919461863+916739976
1299+913948824+911534434+909755700+908565855+907693607+906848646+905751548
1289+904083272+901705482+898924431+896297719+894197779+892684169+891649253
1279+890931410+890330977+889602639+888538469+887174934+885851936+884881235
1269+884140172+883129065+881440718+879054073+876112714+872474961+867612008
1259+861026205+852713487+843209217+833379216+824247183+816819764+811897122
1249+809975659+811183083+815164869+821056441+827684748+833900806+838838994
1239+842076568+843701226+844223734+844358789+844792683+845989219+848072826
1230+850831182+853790973+856349731+857948808+858132532+856527356+853088085
1220+848499242+843988651+840410325+837536592+834268976+829413501+822365141
1210+813364161+803246209+792936399+783149820+774398157+767031215+761184704
1200+756845113+754067603+752991429+753540241+755290245+757769703+760709422
1190+763859889+766714469+768566536+768794010+767051877+763267328+757549247
1180+750164595+741548446+732228687+722807523+714249620+708178521+706556815
1170+710806873+721077196+736116413+753698909+771384909+787350487+800835296
1160+811853503+820548166+826946571+831252711+834129986+836646241+840042680
1150+845456937+853553988+864178444+876282140+888282527+898747922+906987112
1140+913054669+917260452+919833510+921084291+921673376+922475899+924075959
1130+926416492+928988828+931290661+933019217+933966961+933967683+932916040
1120+930683407+927043030+921797345+914990169+906945723+898074354+888699236
1111+879174567+870100386+862187256+855867431+851203222+848206963+847151778
1101+848571656+853009833+860659019+871029961+882870697+894527118+904607683
1091+912444069+918007287+921499884+923103290+923080726+922037873+920945694
1081+920767939+922046137+924848703+928910445+933601415+937923690+940948417
1071+942477441+943150944+943756230+944574233+945540539+946681322+947854507
1061+948234812+946623601+942292339+935384872+927033716+919498070+915511825
1051+916585375+921788818+928330477+933267747+934738065+931943043+924501391
1041+912429377+897074136+881719944+870580850+866729922+870608727+880021167
1031+891437783+901836405+909842545+915363783+918574792+919665003+919145511
1021+917629540+915350599+912399663+909355849+907235707+906787186+908051020
1011+910558485+913741355+917134646+920388290+923320794+926030218+928894965
1001+932425803+937053345+942865617+949420263+955909710+961651798+966427120
992+970322126+973297462+974992894+974961869+973030895+969535739+965489018
982+962490921+961960541+964112103+967807249+971464286+973995759+975054288
972+974769617+973380371+971021144+967725127+963437551+957966884+951090114
962+942837346+933680651+924476007+916208875+909652589+905188175+902914547
952+902824357+904849981+908898342+914882400+922541557+931126877+939405094
942+946170226+950789832+953242527+953825053+953030599+951504985+949794402
932+948203459+946981473+946340307+946125033+945830195+945170926+944326425
922+943390225+941806169+938676035+933720859+927873430+922880472+920263337
912+920474150+922775262+925839148+928573104+930556879+932012112+933606335
902+936097730+939801403+944351743+949142217+953906519+958698042+963394325
892+967545995+970878743+973675996+976339768+978783936+980630034+981817256
882+982699736+983716024+985096481+986660663+987906327+988502824+988527750
873+988087953+987096786+985589605+983938448+982638341+982041516+982199791
863+982854599+983741408+984905607+986468870+988099497+988997260+988444054
853+986188660+982392895+977609833+972931326+969665809+968415028+968573302
843+969011000+969160879+969248182+969633275+970196648+970258174+968921926
833+965701275+961080948+956303592+952316888+949063834+946055046+943409968
823+941885863+941910198+942971155+944026405+944322423+943880528+943435155
813+943920408+945858335+949192526+953554682+958367785+962733613+965662903
803+966622979+965737875+963395571+959768838+954907852+949375988+944387557
793+940905520+938908953+937853834+937381176+937243825+937012153+936145481
783+934186565+931047248+927224262+923341259+919308771+914178266+906763966
773+896332352+883040319+867842368+851749607+835285986+818783600+802813234
764+788070232+775094748+764363835+756658830+753100509+754409274+760048513
754+768397439+777845299+787504170+796998666+806104856+814802340+823485458
744+832956801+843971991+856513581+869665443+882493475+894678440+905920252
734+915356961+922133178+926047535+927279622+926093318+923190462+919790809
724+916965549+915224202+914892502+916436743+920071151+925179879+930406017
714+934477664+937058986+938665934+939744338+940255827+940218768+940003690
704+939792352+939291488+938309570+937225787+936688586+937115461+938483390
694+940417906+942565794+944869398+947298743+949540953+951296861+952689846
684+954061055+955549018+957143175+958958313+961141949+963614781+966174786
674+968545294+969933885+969209614+966496648+965253410+969594838+976480135
664+980867216+982204513+982244525+982492923+983150027+983743114+984085178
654+984201473+983898961+982974830+981714145+980727045+980298792+980189319
645+979995624+979446419+978462403+977140716+975684697+974391609+973741588
635+974264425+976045652+978432033+980428403+981465156+981763733+981905806
625+982052077+981672362+980174954+977865053+976116491+976219209+978035987
615+980209915+981454071+980903554+977874957+972572470+966770168+962803863
605+961842410+963285114+965499447+967061333+967585612+967581808+967767566
595+968676545+970555635+973250826+976338456+979504141+982608038+985412308
585+987498080+988552609+988699930+988453827+988205166+987833454+987090424
575+986216930+985727086+985758702+986028286+986186954+986146746+986294592
565+987069565+988135835+988696256+988827835+989376777+990221935+990144536
555+988938358+988133146+988784544+989596971+988197951+983958650+978638649
545+974362092+972098368+972067146+974202440+977694513+981075996+983247629
535+983916671+983186497+981274741+978407436+974808710+971067059+968417127
526+968109696+970220196+973411724+975708900+975412423+972337911+968310408
516+965339729+963741374+962963711+963123953+964620968+966924441+969038352
506+970920788+972934999+974091720+972983275+970700857+970089273+972009884
496+974437523+975150578+974298467+973830531+975107877+977572183+979198152
486+977967377+973798326+968976892+965473276+962515715+957923265+951321983
476+945272791+942960398+945176436+949565878+953264501+955698175+957838454
466+960393146+962922126+963752328+961427997+956965157+953862375+954962425
456+959196544+963430598+966366840+968131210+968791200+968918974+970277786
446+974453331+980640529+985695733+987010008+984943913+981571285+978356012
436+976452915+977221198+980124973+981791347+979808752+976208977+974418961
426+974186501+972509370+968302406+963079416+958122338+955189703+957512066
416+963928837+969017822+969350834+965239242+959554154+954190075+948681168
407+943070265+939360032+939344421+942700652+947193664+949337092+946527770
397+941098296+937240939+935373000+934741935+934993285+933501387+925624661
387+910548646+896217565+893534837+902324478+912683941+918668589+920813329
377+920443453+916456093+908950554
##END=
