##TITLE=X9731
##JCAMP-DX=4.24
##DATA TYPE=INFRARED SPECTRUM
##DATE=19/11/2018
##SAMPLING PROCEDURE=Instrument type and / or accessory
##ORIGIN=Default
##XUNITS=1/CM
##YUNITS=TRANSMITTANCE
##RESOLUTION=4
##FIRSTX=3996.5625
##LASTX=399.65625
##DELTAX=-2.0390625
##MAXY=1.0516505
##MINY=0.65708405
##XFACTOR=1
##YFACTOR=9.7942587e-010
##NPOINTS=1765
##FIRSTY=0.94962436
##XYDATA=(X++(Y..Y))
3997+969572465+969720651+969971868+970357882+970632407+970094555+969198318
3982+969143182+969894641+970479230+970846744+971522193+971596925+970164418
3968+968531815+968165701+969135575+970219433+970230326+970341511+971588892
3954+972908874+973618098+974030037+974011232+973577872+973317040+972633010
3939+971591204+971553899+972385506+973440883+974301701+974188995+973993097
3925+974595518+974661000+974557604+975532894+975866389+974283323+972550245
3911+971580554+971573860+974512144+980490586+985194750+985133650+981064100
3897+976087116+974492305+977279847+978967221+977644378+978648697+980501358
3882+981035193+981616496+979586499+978015057+980127150+983937633+987265217
3868+986294309+983941649+983828395+982085763+979107800+979717097+986333501
3854+996698678+995634476+984046505+976993638+976914280+981207174+986617519
3840+991520197+993003701+989315663+985123973+982134996+979980972+979619605
3825+980510486+984225120+990767704+991865924+989077043+985513700+979283128
3811+975778451+978385066+983324745+985090076+987204726+989000364+985719943
3797+981824383+978095205+974841014+973726058+973985612+975209197+976353181
3782+976286543+976980553+977270901+974693801+973150110+975901685+980475676
3768+981766569+980573473+979293717+978928455+981067995+983109677+983911951
3754+988513875+997931392+1001996864+997793247+996279679+995109831+988959286
3740+986002684+990184331+996578303+995875591+987787307+980632748+978697200
3725+980314589+981968553+981337408+978457181+976123326+977482074+983579613
3711+989003407+985993799+979935695+977645656+979167744+980180156+978536355
3697+976397789+975769931+979861632+987931294+990695893+984069266+977584313
3683+976288004+979737058+986570903+995225276+997908753+993961221+991932441
3668+987451682+980090149+975713273+974026081+974138179+977149796+980363396
3654+981439586+986627074+996884717+998625949+988169426+979178333+976174080
3640+975874300+975486643+975614685+977164462+981338868+988263146+988673259
3625+980949811+976591740+978638838+983783422+985916997+985659817+986209292
3611+985816766+984171566+981516265+977732621+975576163+976055288+977229823
3597+978063377+978146446+977135069+977481343+980956566+982957048+979784588
3583+976255872+974660817+973669765+973016468+973227824+974094119+976324031
3568+980866194+983796141+980925468+976581820+974255024+973287768+973368768
3554+974819410+975786910+975101541+974720396+975055655+974611097+973346555
3540+972498578+972463585+972676279+973355319+974650167+975624848+975639697
3526+975109696+974199158+972960359+972385141+972674028+973017077+973364751
3511+973834200+973872540+973646944+974345823+975667874+975352393+973737499
3497+973299878+973410333+972425732+971773774+972476913+972841384+972607998
3483+972771703+972284910+970952087+970742740+971358731+970988662+970135633
3468+969746394+969722355+970048851+970226188+969493595+968699049+969050984
3454+969809745+969647197+969195823+969934563+971050614+971281383+970941559
3440+970288323+969378393+968357461+967696496+967829103+968455197+968753881
3426+968500657+968667100+969726372+970486959+970173364+969766902+969756617
3411+969578551+969508748+970138433+970786435+970548911+969954706+970002965
3397+970370723+970490671+970533575+970422816+970503208+971217726+972065643
3383+972470158+972157537+971571426+971343274+971022863+970508928+970653098
3369+971362139+971729836+971632587+971558220+971364756+970887518+970638066
3354+970728073+971100577+971593273+971586701+971307916+971309803+971499493
3340+971675795+971620111+971651391+972161675+972554079+972472044+972507767
3326+972848260+972884957+972084265+970754850+970173973+970740427+971461823
3311+971750588+971520915+971172084+971258318+971399384+971218578+971031201
3297+970802988+970461034+970688942+971457076+971912893+972069294+972434435
3283+972857937+972977703+973049818+973116213+972849964+972373882+972169221
3269+972174272+972090594+972316434+972629115+972669098+972657292+972479043
3254+972184131+971964560+972030042+972549454+973508678+974667450+975294518
3240+974695323+973483909+973001498+973210358+973259226+973054443+973204394
3226+973560771+973342600+972989996+972956403+972710177+972228557+972127108
3212+972723565+973418123+973389764+972927009+972643417+972609641+972699101
3197+972547202+972285823+972315521+972415752+972591263+972741761+972534301
3183+972454639+972992491+973715104+973931632+973609335+973439362+973692221
3169+973406803+972374552+972051889+972782779+973314849+973103372+972645790
3154+972370048+972166300+971963160+972134715+972306575+972120110+972226001
3140+972305662+971831466+971687784+972405224+972973990+972649381+972273590
3126+972525781+973066371+973298235+972725634+971686810+970918494+970508502
3112+970176103+969481423+968647139+968492806+968812608+968682679+967931585
3097+967289243+967186760+967421545+967258084+966577097+966387103+966228571
3083+965477112+964773061+963539921+961554471+960275628+960002685+959457044
3069+958236015+957099576+956176380+955269250+955026553+955612542+956237723
3055+956594709+956520707+955692569+954624047+954123744+953984990+953824633
3040+953943182+954152590+953735478+952569098+950751247+948381791+946179751
3026+944649813+943362389+942164972+941624321+941847239+942716456+943989883
3012+944107884+941218103+935030009+927806438+923457678+923187474+923980011
2997+923028760+920595465+918344497+917039242+916867626+918862387+923324341
2983+928501300+932589350+935085450+936189756+935217265+930284646+923218085
2969+919589077+919503269+918733067+917250232+916792650+916488671+915567239
2955+914640452+914201736+914544664+915162177+914774885+913159930+911437624
2940+910571146+911187016+913266003+915424104+916795693+917363608+917192114
2926+916879006+916727838+916851377+917576180+918818814+920276089+921655102
2912+923022918+924708588+926410811+927745095+928698354+929450057+930198594
2898+930670903+931117409+931898201+932727739+933832349+935192557+936449857
2883+937594085+938309578+938536451+938620312+938589579+938644290+938921492
2869+938923257+938852846+939106131+939138811+938747868+938416503+938642403
2855+939094508+939459587+940120369+941050077+942570826+944690709+946087431
2840+946138247+945298911+944398475+944911314+947229408+949974715+952226292
2826+953961256+955321891+956413417+957111748+957489120+958070545+959016685
2812+959849570+960491243+961356991+962258948+962650987+962765580+962961113
2798+963167600+963292417+963023552+962586296+962784081+963501277+964069009
2783+964426603+964622927+964671065+964957700+965465367+965952586+966349189
2769+966411811+966297948+966232953+966338539+966836469+967222605+967255832
2755+967382232+967362758+967124078+967254128+967751510+968084823+968069730
2741+968072164+968259177+968344681+968314983+968454466+968492623+968096811
2726+967887099+968387767+969130584+969314493+969086828+969129002+969367682
2712+969507409+969529500+969861291+970603013+970992313+970829339+970738358
2698+970973630+971246390+971445817+971558889+971613295+971618833+971295014
2683+970835059+970556153+970025665+969240796+968937303+969005950+969011914
2669+969211341+969378271+969226008+969194484+969396285+969818570+970482273
2655+970967727+971146098+971188819+971321365+971946120+972703056+972892138
2641+972761053+972964436+973313814+973158812+972845887+972791603+972855989
2626+973252958+973668366+973335114+972629359+972253569+971950441+971686080
2612+971843577+972329944+973096434+974038740+974507762+974241758+973597711
2598+972647494+972030650+972546898+973110492+973078847+973351972+973595824
2583+973340956+973148893+973151510+973148954+972856537+972333048+972448493
2569+973274684+973922808+974159723+974094484+973858117+973582801+973651873
2555+974618643+975821355+976144382+975533746+974763482+974626555+975185463
2541+975555837+975302551+974929621+974363106+973685162+973398588+973200803
2526+973195631+974027542+974974594+974644568+973532838+973336271+974267865
2512+975385377+976008063+975996865+975854096+975600932+975135499+975444469
2498+976442884+977132939+977414462+977331940+977122715+976878192+976940875
2484+977616080+977600136+976430774+975438931+975264942+975410085+975355131
2469+975269445+975531251+976264452+977227997+977928823+978511282+979075059
2455+978819643+977899733+977458279+977512015+977473919+977335652+977550051
2441+978316602+978886160+978974219+979324632+979711438+979276008+978373077
2426+977826888+977793112+977999295+978142247+978399671+978696591+978472395
2412+977901316+977703896+978165921+978721360+979094168+979517244+979675289
2398+979308262+978907155+978933202+979103479+979300351+979370518+978591918
2384+976826890+974620530+972340715+970183466+968832873+968733433+969342244
2369+969758078+969608553+969773718+969990794+969052384+967928664+967544171
2355+967897810+968874438+970214382+971470221+971521097+970314308+969682920
2341+969794653+970088165+970956529+971798482+971841812+971112992+970535279
2327+970607881+970511606+969879426+970146100+972407840+974491514+974373026
2312+973476971+973380878+974146213+975860851+977771204+978364983+978294085
2298+979406606+981046634+981380312+981448410+983222079+985243496+985698461
2284+985455217+984995931+983923575+982822251+981897289+981332782+982333206
2269+984119290+984157204+982730600+982610348+983939397+984702906+984396614
2255+983708507+982974027+982332902+982247033+982816348+984199012+986234061
2241+987286030+986820780+987021486+989466891+992636553+993022506+990701248
2227+989942487+990837811+990467254+988913217+987493917+986797959+987220487
2212+988071325+988377313+989656338+992258937+993875596+993748770+992309996
2198+990885279+991280178+992296790+991618542+990334100+990022452+989191515
2184+987742151+988257668+990333856+991326429+990864162+989137413+987942552
2170+990090855+992397386+992605272+993444973+993109227+990117206+988493245
2155+988505660+987366787+985539990+985448157+988149770+991781698+993354966
2141+991856552+989116965+987570840+988057389+989292050+989040286+987273859
2127+986051065+986154095+987030432+988169365+989039921+989899644+990445285
2112+990211108+989938348+989293267+988839033+990075641+991858987+992554275
2098+993076486+993886002+993121642+991687492+991515815+991366412+990816389
2084+991189137+992534800+993161259+992408462+992224796+993305307+994318146
2070+994224305+992765447+991171488+990728451+991792653+993709822+995034916
2055+995664601+996628328+998073796+998844668+998494681+998248820+997902363
2041+996335302+996116340+999468024+1002083645+1001161666+999725083+1000374667
2027+1002988037+1001467532+994517147+991296488+994307009+998881608+1000524375
2013+998137818+996701477+999374548+1002772544+1003249356+1002303764+1000999300
1998+998651692+997445451+999141406+1001637444+1002978057+1004358470+1004551446
1984+1001880567+999659844+1000548961+1002663914+1003274794+1002994914
1972+1003597517+1004847453+1004918717+1003563072+1003209251+1004706935
1960+1005550044+1003750328+1001245709+1000414650+999995651+998946177+999565090
1945+1002965581+1005053940+1001900954+997261724+994876080+994073806+994403345
1931+995857151+997123154+997661979+999256790+1001298411+1002145172+1002361456
1917+1000961508+998761112+998693744+999399316+998668123+997869257+998233180
1902+999068378+999780158+1001116267+1003224222+1004929367+1006728778+1008645521
1888+1008237903+1006602865+1006031360+1005663725+1005153806+1004947076
1876+1005429730+1006828218+1009488326+1013283838+1013920338+1009508043
1864+1006179059+1006144858+1006451697+1006397839+1006729934+1006618323
1851+1005645711+1005513104+1008031416+1012358572+1013202107+1009918826
1839+1008385541+1008719584+1008268940+1009018877+1013270084+1016063651
1827+1014951190+1013536941+1011050396+1008252630+1007535008+1007639803
1815+1007594708+1008728651+1009909333+1008560565+1006034281+1005227017
1803+1006708939+1008195060+1006974396+1005114188+1006407272+1008063122
1790+1003491992+997066435+994718400+995113969+995752295+994648050+991272328
1776+989260587+990629863+989176848+979249657+967032123+957192565+950625639
1762+944362083+936238076+927606341+917465543+908271858+902988216+897638667
1747+887533227+875480310+865663209+858416026+850274918+843239212+841170631
1733+834326137+813252490+784375125+752316110+721893289+696932845+683858752
1719+686677331+699960405+709537914+714671787+721638177+733512784+751668351
1705+772368825+791321676+814365620+835243978+848059733+858959841+867954525
1690+880434777+896644086+915066145+934139067+936885591+931102195+932275391
1676+940908403+949624789+955599336+961542786+961978581+959539626+962322422
1662+966194248+966234535+968064314+977729700+993995848+995524082+990420090
1648+992811881+989661816+978909103+971828728+969337802+967447896+950326528
1633+914050872+881555576+857536585+840727777+827966245+808552465+778471962
1619+748743455+718736833+689377300+673938620+673918538+684098284+696976175
1605+707817190+717118105+727526734+740069182+754352437+769029008+782875981
1590+795809311+808041755+819001198+827862849+833109733+833868799+832773865
1576+829592458+823884767+826433994+842168255+859595490+870514159+880923700
1562+894924397+919193995+937719572+932064583+926928519+927526254+930722205
1548+934997512+942903895+956739791+973432546+978669632+968675680+964591099
1533+967328069+967171363+967427753+972809312+980288116+988885649+995131922
1519+994806095+992711772+989133153+986032625+988445168+997560592+999746991
1505+971861043+936341958+903655328+874968992+860234850+860239597+866063281
1491+875464427+885662978+893309016+901527351+911792236+920904556+925583890
1476+925784839+922136479+907644912+874999116+837548987+809202780+799382270
1462+807448341+825172739+842133750+839302999+825775890+817737508+816333361
1448+821850692+832318839+846252045+863198086+879664575+891987391+894846014
1433+890728752+882986986+861808422+827896746+802654353+801347151+820576596
1419+850737916+876774368+892135638+904850980+916696983+926941421+936300454
1405+943861232+947910273+950883062+953639507+953501362+948330488+937614898
1391+925297742+914113981+900299141+877209980+842717852+802199327+770670314
1376+759243187+760800023+759761017+754740763+754471351+764925865+785636624
1362+802585220+802977259+798843079+802775823+814486056+830229993+847425850
1348+864141973+879420965+893327638+906466239+918508505+927506171+933793644
1334+939305802+944872853+950519078+955446708+959291574+962521666+964719811
1319+963578991+957131222+947263001+938111976+930936178+921901572+907865517
1305+892619023+882957836+883140528+894128695+911357050+926930832+937086662
1291+943643243+949471673+954336620+955812700+954887861+956687698+963147456
1276+970883136+977565143+983316042+987476207+989112705+988719997+987452230
1262+985978950+984398987+982570304+979348245+971520671+953812887+920145551
1248+869971621+817034552+783617641+780297725+797480924+817149815+826860478
1234+823195017+807994713+786770871+770135566+769424820+785561527+805969279
1219+820137393+833611618+853760182+873429561+882708689+880087712+865479787
1205+834973774+790118295+749653933+737539186+758411945+797456033+838617753
1191+872927006+897698368+915413089+929121856+936864535+933091662+913818522
1177+880809046+840976681+799654665+763548860+744475452+746125156+759285665
1162+773404728+781668827+778193178+760253347+734278361+712420636+703300222
1148+708164439+723140121+744068503+768191133+793151272+816810295+837597003
1134+855075479+869471805+880771437+888141794+889278719+879577489+852954378
1119+809294856+761086537+724013841+700470324+682751403+670886960+671884219
1105+685800386+705626470+725682776+744189973+760677458+775042017+788331298
1091+801899486+815711406+828472025+839702889+849939415+859346281+868004975
1077+876578409+885305932+893648475+901154117+907777032+914170395+920424336
1062+924512629+922965651+910821937+882532509+840609289+799472216+769509472
1048+748815997+734938717+726098975+717463711+709750608+710151472+721147733
1034+738136981+756180390+773110911+788628888+802881775+815556769+825608838
1020+829882684+823280642+806980353+793364393+793063699+803696403+817508687
1005+830368259+841486964+851404784+860352791+867489397+872347041+875903264
991+879590451+883901785+888464821+892892330+896733302+898639700+895771218
977+888049657+882241918+883831678+890369819+897498028+903658736+908773743
962+912897333+915527622+914628342+906851644+891453069+876399855+873374485
948+883254756+897073735+908397101+915226989+917272749+916885578+917904198
934+922295558+928428333+933634382+937404273+940011497+941522691+942172336
920+941721266+939421430+934543155+927367600+918891659+911792784+911287612
905+918995420+929681008+937793087+942401036+944669166+944156265+939436096
891+931494355+925043787+924709501+930556675+938825217+945608611+948166419
877+944297027+934741426+926953288+928726531+937961295+947674149+955166097
863+959855169+960942313+960261205+961500552+965408222+968784918+968340299
848+961458986+947896276+934642108+929625324+933123551+940682564+947978006
834+952724465+953518950+944910584+914454231+851835710+778751903+747683088
820+776707604+827408189+857705402+849511957+809171012+772406860+772693799
805+803387920+839506261+868779742+889638504+904519554+917246215+929229025
791+939637897+948698063+957017663+964282312+969051775+969961826+966962381
777+958580890+938221700+906642419+886866724+897164594+923978490+946777486
763+957495997+950551880+922703420+886601815+871968330+891843343+923726056
748+940320284+931701390+903192695+878123683+882277762+909654096+933362535
734+935913831+906256831+852892731+818128634+817832810+814728752+801141942
720+812107775+850682110+889623655+916815837+934862775+947459507+956286287
706+962386747+967968647+973265433+976208282+976343323+970624252+954237302
691+932750621+920543189+924325251+937774525+951444953+961702109+969842851
677+976498020+981965449+985633040+984590747+978061977+973119012+975721732
663+983041761+992510884+999296834+1002140121+1003811368+1003950243+1000686680
648+990448328+964585135+927005381+906349637+919894274+947091385+964784928
634+974385197+985031776+996664476+1004756351+1009710818+1014834528+1019675497
620+1022021402+1022384351+1022794404+1025220640+1029642245+1033484617
608+1034693596+1029966003+1009905073+978700973+964431776+977710104+998609457
593+1013418088+1022803898+1029018829+1033383108+1035744227+1037857172
581+1041701491+1044826240+1046344980+1047447582+1048417517+1050210721
569+1053814777+1057147170+1055705109+1046551650+1033015168+1025181083
557+1025120956+1020463470+1000483783+963982167+919926345+890170940+888707579
542+907444085+932533301+954078345+969466148+981455713+987017835+981181310
528+970644274+969772805+981595988+997031199+1011134013+1023063026+1031715269
514+1036610340+1039528298+1044276704+1048097532+1041240440+1017487150+985264552
500+971743468+988598101+1018915823+1044474732+1059537621+1066061462+1068584338
485+1069920386+1070553661+1072097718+1073741823+1072687541+1067793687
473+1050755754+1009402031+950166535+896284727+870684497+877709918+905179363
459+941283828+972117371+986588125+996249494+1009144546+1014952894+1012373421
445+1013590008+1021674032+1030127882+1032136154+1021345771+999213947+980680459
430+980716730+999924875+1023373151+1039313838+1052148642+1067055982+1069502422
416+1055837290+1045679573+1049290324+1061260597+1065208129+1061063178
404+1058101768+1056259879+1058527157
##END=
