##TITLE=X7348
##JCAMP-DX=4.24
##DATA TYPE=INFRARED SPECTRUM
##DATE=26/10/2018
##SAMPLING PROCEDURE=Diamant-ATR
##ORIGIN=ComPlat
##XUNITS=1/CM
##YUNITS=TRANSMITTANCE
##RESOLUTION=4
##FIRSTX=3997.453
##LASTX=373.96442
##DELTAX=-1.4165319
##MAXY=0.97216517
##MINY=0.52373081
##XFACTOR=1
##YFACTOR=9.0539937e-010
##NPOINTS=2559
##FIRSTY=0.95090955
##XYDATA=(X++(Y..Y))
3997+1050265318+1050206991+1049782569+1049388694+1049010486+1048649264
3989+1048707986+1049366574+1050018644+1049856565+1048840178+1047802725
3980+1047554931+1047936233+1047988833+1047173235+1045988448+1045086017
3972+1044468904+1044084245+1044398134+1045624658+1046825113+1046573238
3963+1044732036+1043030268+1043148306+1044729601+1046375082+1047593575
3955+1048390411+1047914640+1044956657+1039748653+1034837027+1033182262
3946+1034428734+1035111745+1033703195+1033061921+1036149594+1041568525
3938+1045740721+1046355267+1042685635+1035485344+1028074719+1025282699
3929+1028375771+1033153691+1034869482+1033124264+1031433358+1031761599
3921+1031886746+1029570563+1026607380+1027366559+1033249412+1040893084
3912+1046451382+1048670396+1047582910+1042270825+1031551725+1017013224
3904+1004305523+998824117+1000693890+1007608863+1017982804+1028766552
3895+1035302199+1034526758+1028031138+1022844003+1023878625+1026774133
3887+1025242542+1019503270+1014809352+1012585729+1011360785+1014075452
3878+1022526361+1030281225+1030604857+1023855255+1015152997+1008004911
3870+1004622572+1006997477+1011625103+1012607652+1010265334+1011186593
3861+1018098669+1025837535+1028955688+1025344253+1013769594+994867127+981526777
3852+989092240+1008205437+1024851234+1033981468+1035114049+1029717896
3843+1020391284+1009664086+999464996+992975893+994222891+1002167747+1010979484
3833+1017410194+1022115172+1025810544+1027381108+1026291318+1024239519
3825+1021848024+1016135151+1006070688+999314898+1001905404+1008314455
3816+1014391645+1022838144+1033858493+1042182939+1043449686+1036990932
3808+1026615280+1019283916+1016618888+1012867953+1005820130+1002146878
3799+1006058114+1013226937+1021163498+1030732440+1040491769+1047303451
3791+1050318906+1050683420+1048914503+1045100369+1041262535+1039858330
3782+1039645888+1037518842+1034399373+1034898777+1039836868+1044987532
3774+1046322285+1042482476+1035376260+1029714407+1028273664+1029181099
3765+1030612823+1032271800+1032043230+1027184862+1019480821+1015103952
3757+1015833112+1016188607+1010080739+995572982+979332779+973919707+979167408
3747+984852105+987095411+990574852+998960390+1007392735+1009879292+1003317576
3737+988710083+975196593+975781119+991246080+1009820175+1021703127+1024112462
3727+1019202152+1012476316+1009557240+1011774213+1017172670+1023985866
3718+1030671084+1034861450+1033932950+1026174861+1012969730+1002533117
3710+1004788733+1017580107+1031332042+1040057275+1041990379+1038610542
3701+1035085741+1036047356+1040087624+1043134942+1043173124+1039651616
3693+1031680493+1019103799+1006388791+1003089927+1012342676+1026281838
3684+1037562358+1043144685+1042156211+1035385872+1024160915+1009030317
3676+994482205+990848913+996923535+1001004882+1000865318+1005837444+1019608339
3666+1034187260+1043409858+1047134130+1047826688+1046937357+1043681877
3657+1037539711+1031291489+1027473076+1022178437+1008689371+986472307+969864363
3648+975953074+997407272+1018131256+1031798267+1038836018+1041855817+1043117957
3638+1043313479+1042144690+1039509813+1035308518+1027913693+1015211785
3629+1001828446+1001152610+1014285128+1028289728+1035133470+1033070018
3621+1023825959+1013655836+1009851313+1011414110+1012550180+1012327732
3612+1013510543+1015933572+1017380108+1019473053+1025505608+1033377390
3604+1037697972+1036412923+1032307086+1029246865+1027937129+1027051024
3595+1026992565+1029486232+1033149346+1032787136+1024650774+1012709034
3587+1008501354+1016480245+1028401050+1036863744+1040847133+1042398672
3578+1043369963+1044392999+1045380815+1045995295+1045095102+1040030811
3570+1027942725+1010399039+997952035+1001008108+1014881899+1028505000
3561+1037255315+1042335012+1045533349+1046529723+1044385758+1040077815
3553+1036683231+1036189949+1036400415+1033516625+1027676959+1023981521
3544+1026677952+1034158031+1041765364+1046205630+1046882190+1045736376
3536+1045650465+1047483306+1049136358+1048041894+1043814727+1038430951
3527+1034112936+1031659361+1031383128+1034047893+1039365640+1045098394
3519+1049119307+1051194477+1052042202+1051699083+1049599884+1045973570
3510+1042744555+1042172603+1043780231+1044192606+1041388868+1037919564
3502+1038101459+1042393273+1047371917+1050292968+1051237269+1051542797
3493+1051647734+1051046354+1049681187+1048412004+1047922408+1047667966
3485+1046501810+1044402940+1043139879+1044608403+1048394097+1051906258
3476+1053068134+1052174920+1051042536+1050833189+1051309026+1051838779
3468+1052222846+1052366097+1051913565+1050771438+1049569865+1049066312
3459+1049399819+1050239249+1051188948+1051890129+1052132721+1051740228
3451+1050250835+1047487980+1044691945+1043863641+1045332297+1047364083
3442+1048544459+1049012198+1049342348+1049599950+1049769929+1050084806
3434+1050533586+1050700405+1050397642+1050007255+1049950969+1050112719
3425+1049895867+1048783365+1047054407+1045973965+1046737161+1049084087
3417+1051482626+1052629032+1052346874+1051267354+1050099223+1049244126
3408+1048856702+1048970394+1049478555+1050144713+1050653664+1050579471
3400+1049614038+1048101340+1046920307+1046551250+1046744139+1047197790
3391+1047858353+1048522471+1048847354+1048856570+1049047155+1049891061
3383+1051256031+1052349837+1052460172+1051779596+1051230817+1051407840
3374+1051984796+1052246809+1051883085+1051049185+1049979803+1048937807
3366+1048299364+1048233795+1048493768+1048814372+1049149525+1049330300
3357+1049019769+1048228331+1047491930+1047413523+1048175929+1049387772
3349+1050341750+1050672031+1050677166+1050723578+1050584869+1049792378
3340+1048417534+1047088377+1046389368+1046510631+1047305756+1048402656
3332+1049300610+1049548798+1049011869+1048082907+1047550257+1048024975
3323+1049398305+1050892109+1051700861+1051655502+1051236215+1050891517
3315+1050548332+1049910547+1048973357+1048111479+1047881460+1048605354
3306+1049857355+1050702380+1050690267+1050203568+1049792378+1049705809
3298+1049932930+1050153008+1049932667+1049360649+1049095476+1049543202
3289+1050366700+1050897244+1050761366+1050161369+1049709100+1049894287
3281+1050629833+1051341350+1051447801+1050784276+1049747349+1049079545
3272+1049311406+1050291191+1051390592+1052162543+1052553325+1052528177
3264+1051979595+1051112714+1050486120+1050492111+1050951622+1051275451
3255+1051061167+1050543526+1050242935+1050194944+1049991982+1049530628
3247+1049134646+1049007656+1049105483+1049425889+1050003832+1050756823
3238+1051542402+1052174064+1052369916+1051969128+1051193358+1050497773
3230+1050228386+1050506726+1051239968+1052063663+1052479856+1052310666
3221+1051892433+1051585654+1051282166+1050757679+1050266898+1050256431
3213+1050678680+1051170119+1051698030+1052369521+1052839169+1052621198
3204+1051827259+1051034307+1050593493+1050450571+1050473744+1050646225
3196+1050918903+1050999087+1050565975+1049868744+1049656961+1050158407
3187+1050668015+1050580063+1050178551+1049986189+1050035695+1050174667
3179+1050405739+1050576048+1050279143+1049401926+1048439522+1047991729
3170+1048079155+1048200023+1048050255+1047877313+1048000814+1048301866
3162+1048428857+1048262301+1047979353+1047856641+1048112071+1048684945
3153+1049108050+1048893239+1048148213+1047562305+1047664016+1048305948
3145+1048958676+1049250709+1049107984+1048681522+1048311214+1048261840
3136+1048364144+1048248213+1047968491+1047972836+1048442747+1049091526
3128+1049526020+1049443071+1048729579+1047719973+1047026165+1046875080
3119+1046991274+1047222412+1047743212+1048516611+1049085667+1049077109
3111+1048517467+1047582449+1046429592+1045321829+1044506758+1043831054
3102+1042831125+1041425866+1040246609+1040009218+1040739694+1041866416
3094+1042918550+1043748697+1044067656+1043341063+1041478400+1039193488
3085+1037283821+1035915362+1034980080+1034709838+1035472573+1037192643
3077+1039226602+1040685383+1040982353+1040341408+1039524493+1038841087
3068+1037912915+1036642415+1035737285+1035833795+1036557162+1036811341
3060+1035780537+1033626829+1031443233+1030438103+1030946988+1032270747
3051+1033444802+1034015964+1034229656+1034693446+1035720827+1036815357
3043+1036997450+1035767634+1033507146+1030910978+1028503025+1026738123
3034+1026010938+1026441021+1027961421+1030469703+1033528739+1036236558
3026+1037876049+1038545499+1038855833+1039232000+1039741609+1040307834
3017+1040794072+1040984328+1040750096+1040308163+1040145952+1040540288
3009+1041243773+1041817305+1042131721+1042308350+1042309930+1041892157
3000+1040941142+1039675447+1038540233+1037930361+1037929505+1038330425
2992+1038939111+1039656553+1040230480+1040289071+1039740160+1038805801
2983+1037646821+1036289883+1034834459+1033351913+1031632830+1029246536
2975+1025755442+1020766463+1013981970+1005369836+995225980+983882722+971168965
2965+956350874+939243196+921682394+907397875+899848936+899990278+905912300
2955+914241091+921886738+927154386+929936070+930962003+930539556+927906324
2945+922045065+913109958+902671106+892444038+883132566+874652822+867039367
2935+860527749+854684265+848054675+839188560+827835560+814886320+801603704
2925+789392380+779898224+774523269+773608001+776279744+781156282+787110891
2915+793437454+799605492+805221987+810331900+815497508+821318280+827939246
2905+835134599+842651281+850245052+857571478+864340764+870525063+876200477
2895+881262135+885528406+889068743+892146541+894808739+896827819+898177582
2885+899400551+901428190+905087420+910643414+917621060+925130829+932489974
2876+939499153+946158828+952266234+957235596+960182980+960300096+957210382
2866+950786848+940728771+926688490+908836116+888134054+866246547+845269437
2856+827058078+812530374+801957027+796062720+796325194+803728973+817090521
2846+832528359+845069174+852158669+856261017+862971515+875720690+892781363
2836+909536771+922580480+931208150+936166188+938087771+936871780+931919930
2826+922886140+910383376+896207810+883007156+873266984+867794070+864969003
2816+862064344+857904853+854378341+855157995+862776058+876746557+894122172
2806+911497261+926648859+938861500+948310232+955540937+961399168+966771819
2796+972002798+976814886+980938959+984484891+987636487+990409152+992882740
2786+995354090+998034721+1000768742+1003237129+1005291561+1006882468+1007909717
2776+1008486870+1009084234+1010007073+1010980471+1011550251+1011569606
2768+1011028200+1009799240+1007836314+1005365623+1002773142+1000532469
2759+999187183+999088764+1000108706+1001804615+1003852399+1006115323+1008306490
2749+1009853815+1010230640+1009314647+1007428021+1005195973+1003355232
2741+1002476369+1002725084+1003884130+1005604595+1007622754+1009771919
2732+1011883297+1013781312+1015390652+1016771290+1018011573+1019144681
2724+1020121173+1020817812+1021159812+1021275677+1021352503+1021320706
2715+1020962709+1020388387+1020059752+1020229402+1020659880+1021038482
2707+1021373240+1021798320+1022218134+1022363689+1022057108+1021284959
2698+1020172786+1019025722+1018233757+1017969440+1018075562+1018326384
2690+1018671675+1019134608+1019565218+1019658437+1019251066+1018476482
2681+1017531720+1016471752+1015401778+1014681439+1014676831+1015395721
2673+1016524747+1017717631+1018736256+1019422428+1019706956+1019690629
2664+1019629273+1019731906+1020047836+1020643488+1021685023+1023123461
2656+1024518846+1025457485+1025988094+1026451883+1027046614+1027700527
2647+1028207437+1028339892+1027929361+1027055238+1026198560+1025981050
2639+1026636938+1027948057+1029681623+1031683982+1033521958+1034596804
2630+1034784031+1034578173+1034485152+1034551972+1034552170+1034414777
2622+1034364876+1034682189+1035367175+1036095150+1036529447+1036646760
2614+1036656306+1036643271+1036507195+1036278362+1036159995+1036174412
2605+1036187316+1036364471+1037059859+1038069333+1038571042+1038070979
2597+1037017265+1036252424+1036158415+1036515885+1037018450+1037676906
2588+1038611332+1039600530+1040192100+1040301843+1040332455+1040606844
2580+1041046539+1041454964+1041744297+1041862861+1041801308+1041614542
2571+1041260956+1040648846+1039980251+1039692037+1039888086+1040248124
2563+1040627647+1041241667+1042058581+1042590244+1042582805+1042372536
2554+1042299528+1042378593+1042725596+1043543761+1044480688+1044826769
2546+1044581346+1044544612+1045145398+1045823670+1045772386+1044826572
2537+1043468120+1042328626+1041851407+1042102228+1042715655+1043209201
2529+1043431846+1043581483+1043867657+1044302480+1044692866+1044797540
2520+1044674696+1044750009+1045276273+1045922484+1046124524+1045656456
2512+1044819462+1044261400+1044445073+1045113404+1045532822+1045374627
2503+1045058236+1045137235+1045591347+1045896151+1045771004+1045586673
2495+1045755665+1046028277+1045855269+1045164819+1044282072+1043400378
2486+1042622107+1042251470+1042542845+1043210978+1043569897+1043342577
2478+1043133230+1043790567+1045303462+1046611684+1046626562+1045309058
2469+1043645670+1042695313+1042801632+1043594584+1044449813+1044866335
2461+1044644611+1043959032+1043311899+1043244158+1043883720+1044859225
2452+1045824131+1046776199+1047577183+1047718393+1047116158+1046504706
2444+1046364813+1046129791+1045187597+1044077465+1043902745+1044892404
2435+1046157901+1046776726+1046715173+1046615832+1046926561+1047492917
2427+1047990742+1048372702+1048623655+1048466513+1047788439+1047024454
2418+1046592395+1046305037+1045868107+1045526436+1045676534+1046254938
2410+1046962110+1047686004+1048338140+1048681193+1048646236+1048469673
2401+1048260128+1047790809+1046967772+1046166196+1045854479+1046149080
2393+1046843019+1047567242+1047917273+1047746569+1047275078+1046725443
2384+1046077783+1045367451+1044920449+1045106228+1046050594+1047717011
2376+1050187702+1053657993+1057877128+1061744059+1064178016+1065524882
2367+1067236723+1069922159+1072542093+1073741823+1073204565+1071524850
2359+1069477790+1067684120+1066232975+1064219754+1060681524+1056537833
2350+1054193342+1055154957+1059058491+1064233315+1068766339+1071527747
2342+1072175999+1070875676+1068597216+1066560689+1065101118+1063799743
2333+1062409889+1061103312+1060131230+1059486863+1058730448+1057243886
2325+1054807164+1051880056+1049331551+1047836431+1047354274+1047172906
2316+1046520243+1045137564+1043343565+1041767404+1040966685+1041071095
2308+1041757793+1042543766+1043016904+1043056799+1043132440+1044037965
2299+1045912544+1047754404+1048334190+1047533404+1046450658+1046118599
2291+1046367446+1046244207+1045473046+1044931970+1045483250+1046919122
2282+1048440180+1049707191+1050980325+1052516327+1054309537+1056214859
2274+1057872322+1058693187+1058340852+1057142306+1055744947+1054526059
2265+1053566223+1053050162+1053376625+1054713550+1056471013+1057437565
2257+1056769958+1054846071+1052818695+1051320612+1050057354+1048838335
2248+1048254730+1048688105+1049385665+1049507982+1049438397+1050055050
2240+1051392304+1052900262+1054388075+1056048500+1057905502+1059260399
2231+1058761916+1056057651+1053254177+1052959379+1055006307+1056973973
2223+1057590757+1057549612+1057464885+1057222622+1057004256+1057221898
2214+1057736312+1058133019+1058330187+1058374821+1058139733+1057728939
2206+1057788452+1058802469+1060219446+1060950647+1060819706+1060692649
2197+1061007658+1061073095+1060009375+1057635852+1054518160+1051783283
2189+1050556298+1051105209+1052802040+1054774577+1056113345+1056174240
2180+1055494191+1055601959+1057164228+1059083310+1059864872+1059046773
2172+1057131181+1055283067+1055203409+1057825449+1061592513+1063372359
2163+1061935829+1059264086+1057802803+1058151649+1060225502+1064271169
2155+1069024929+1071228011+1068571475+1062187770+1055886618+1053535018
2146+1056358044+1061515028+1064205995+1062398170+1058603589+1056610644
2138+1057817352+1060736823+1062712125+1062013116+1059037490+1055611505
2129+1053221787+1052220937+1052345558+1053273597+1054526718+1055303606
2121+1054931982+1053473267+1051580782+1049879409+1048892515+1049229906
2112+1051065709+1053555097+1055352191+1055657456+1054670627+1053447000
2104+1053233505+1054336857+1055762722+1056406365+1056175754+1055472862
2095+1054281426+1052547466+1051025749+1050851227+1052146085+1053704668
2087+1054481952+1054750746+1055221579+1055834742+1056107750+1055893004
2078+1055271414+1054531655+1054448114+1055582275+1057295696+1058312873
2070+1057961064+1056317294+1053833173+1051429828+1050267425+1050882432
2061+1052884659+1055472137+1057924922+1059811877+1061093766+1061979871
2053+1062606925+1062826739+1062327927+1061175004+1060128465+1059852233
2044+1060063884+1060113653+1059768955+1058855069+1057345399+1056358505
2036+1057124531+1058391608+1057630125+1055391558+1054849626+1056870023
2027+1059179557+1060358484+1061406800+1063092308+1064261887+1063338652
2019+1060562565+1058266132+1058353623+1060005951+1061292449+1062201200
2010+1064173474+1067216051+1069506362+1069646519+1067504068+1063579270
2002+1059163362+1056249158+1055930265+1057063307+1057020977+1054158780
1993+1049810219+1047271457+1047908846+1049568021+1049791193+1048437744
1985+1046554937+1044691550+1042936193+1041263984+1039504612+1037896721
1976+1037563872+1039433710+1042557394+1044073383+1041584259+1036131029
1968+1032271339+1033851317+1039687034+1045224463+1047900025+1048879282
1959+1049879540+1050379735+1049006471+1046254412+1044390300+1044867915
1951+1046652105+1047391535+1045690030+1041787220+1037071643+1034109512
1942+1035491928+1040697430+1046361389+1050193824+1051977159+1051929036
1934+1050358866+1048259865+1046826035+1046546510+1046676990+1045277063
1925+1041017178+1035582645+1032388455+1032189773+1033008662+1034207537
1917+1037037607+1041009607+1043235007+1041861874+1038366698+1036173952
1908+1036974013+1039297964+1040921918+1041164314+1040588938+1039732919
1900+1038638850+1037273353+1036222273+1036536030+1038002053+1038433123
1891+1036504891+1034434132+1035485608+1039269656+1042878919+1044890100
1883+1045681735+1045915967+1046174425+1046750064+1047198975+1046975672
1874+1045791478+1042535669+1035646041+1026505603+1021373833+1025027072
1866+1034032423+1041993276+1045967448+1046735317+1046589301+1047218988
1857+1048819507+1050554718+1051658925+1051814092+1050453928+1046710959
1849+1040483145+1032679763+1025092378+1021512805+1025249652+1033338154
1840+1039873800+1042535274+1042969834+1043359035+1043101038+1039544309
1832+1031866470+1023876124+1020704449+1021793185+1023514704+1025785198
1823+1030313351+1035771650+1039182231+1039883478+1039755960+1040087361
1815+1039715802+1037173815+1033505895+1031756793+1033412544+1036775463
1806+1038928710+1037629112+1032500173+1026044578+1022285875+1022614313
1798+1024460057+1024436292+1020644673+1014303693+1011632805+1017848638
1789+1028513690+1035956507+1037419435+1034879620+1031085631+1027225349
1781+1024542875+1024281651+1024898370+1022769349+1015654772+1005127902
1772+997592458+998625962+1006051136+1015095525+1022767835+1026434306+1024606930
1762+1019733815+1016659506+1016228501+1016256414+1016751013+1017490114
1754+1014685521+1004805850+990501318+981005186+981410714+987025892+992086365
1744+994956988+996165672+996339075+996362643+995978049+991896965+981024739
1734+968359236+965466559+972376924+981892871+990110075+994480625+993663776
1724+989353463+984082128+976838520+963690005+944528224+930934485+935029657
1714+950630957+966301973+976721141+980503214+977930153+971350531+965618106
1704+963399157+961060855+953719815+943349363+938490797+942885507+955368851
1694+970896682+981447712+983382330+978821459+972008460+963503502+950422531
1684+937491856+938562686+951824301+965725742+974996199+978153918+976053863
1674+972216622+968418025+963246426+959255006+963885264+975920421+985410298
1664+987327273+984884428+985300884+989904547+992982410+989607642+977451156
1655+957014596+941674191+946346384+954960756+954895055+951008440+956404198
1645+972147498+986495611+993694256+993542381+986547619+974655845+966753320
1635+974327276+990873139+1002801515+1006104658+1003081369+998270335+994102747
1625+990118699+988039777+990891770+995654944+996063566+991207700+988856231
1615+994966797+1003561683+1007938091+1007350471+1004832249+1003280973
1606+1002464124+1000069667+994292344+984577715+971780087+959057838+951587765
1596+953645885+965011525+980554497+994449815+1004291567+1010800815+1015281304
1587+1018308740+1020161989+1021356256+1022004705+1020771729+1015107770
1578+1003075247+987512459+977653196+976058142+975923910+974302062+975309759
1568+982303270+991125212+997124126+998908778+994353173+978575179+951741813
1558+938562028+952960701+971939336+984558755+990742988+992776421+994025854
1548+994849747+990682028+977721662+958176407+938234841+925847678+933778643
1538+958273576+977698555+984090094+982463375+983190362+989533976+993777403
1528+990394735+981774899+973475404+966162803+958087928+953143715+955040545
1519+959622153+964871105+973563093+983705567+988056169+981681944+964288290
1509+940671365+929076957+949192979+979532054+997250656+1000986318+994033623
1499+979649499+961945446+944271412+924787579+898453486+865172162+838569275
1489+841784070+876421213+919139748+952977356+975199424+989385392+998469610
1479+1001939111+998088176+987332671+973880537+966692754+973570400+988501526
1469+998805026+998597851+989784929+980451009+976521208+973291534+962178492
1459+937253082+900683889+870453634+855616847+844454760+828951353+809266073
1449+790750898+781819346+786473567+798930315+812023465+825021618+840062618
1439+857264435+876767294+900229711+924800153+943828030+955350352+962472763
1429+969394517+976632201+981252585+982219136+981688790+980418093+976005608
1419+969676938+970320780+981368450+994779307+1003647857+1007344743+1008780022
1409+1009914183+1009673566+1006945931+1004006512+1003724420+1003974847
1401+1000074275+991186370+981093204+973286728+968654758+967570564+969061669
1391+970170550+969318086+968809201+972846375+981379312+989179073+991891764
1381+989036678+982854485+976039051+970526045+968453179+972270012+980949821
1371+989000601+992464112+992169709+990189272+986187911+980192287+976826473
1361+981213743+991037852+999734317+1003987816+1004589919+1003534955+1001579007
1351+998336431+993945539+989307775+984545655+978429163+969821375+959250332
1341+949496071+945003403+948627939+957967587+967780964+975056304+979532581
1332+981388594+979874909+973197525+958753692+935089499+905957330+881097620
1322+869889648+874444002+889805605+909068110+927339376+942704468+955381030
1312+965909348+973922143+979029292+981931120+983584435+984200956+984028146
1302+984092991+985201543+986833858+987491985+985445189+978763724+965464058
1292+945081217+921127559+901479210+894194983+901257618+916877417+932588261
1282+943205453+947953749+947989496+944644550+939639376+935205101+932768840
1272+931427833+928113038+919674176+905167209+886715036+868641465+855268198
1262+848427155+846207549+843893341+837470400+828098099+822984697+829865963
1252+849692389+875677372+899455982+916734824+927576965+933976865+938268152
1242+942360428+947121759+952390921+957667522+962700280+967519017+972126827
1232+976314033+979807826+982498595+984458493+985835970+986625828+986160656
1222+982939343+975947478+966844498+960005627+959078838+963579736+969219601
1213+970488389+963104426+947331435+930729878+924399826+933405900+952242140
1203+971056194+984192793+991737256+995823672+997736302+997467903+994738754
1193+990427914+986804300+985960657+988239118+992341861+996560469+999659004
1183+1001025751+1000691257+999347946+997922410+996966655+996637295+996976332
1173+997818790+998754927+999537478+1000210878+1000717524+1000855904+1000771046
1163+1000909096+1001002249+999604166+995775220+991302630+989785061+992859962
1153+998456838+1003188413+1005271680+1004771880+1002259122+997958816+991657006
1143+982657383+969516900+950439121+925247682+897244539+872055733+854388480
1133+846570615+849301410+861443412+878613499+893934155+901363674+897781995
1123+881837182+851881251+806183469+746418152+681491703+625822479+590880861
1113+578452817+583304470+600469487+627587381+662072122+699690355+736412609
1103+770039685+799808125+825459667+847010573+864881380+879816718+892515071
1094+903187825+911426754+916631664+918707032+918424347+917334294+917456018
1084+920491815+926278157+931668780+931968910+924433532+909744736+889888291
1074+867083080+846402018+836196805+842090520+861489627+886227810+909373638
1064+928139042+942325932+952373015+958670809+961761576+962850905+963740433
1054+965943449+969898135+974956436+979997818+984129265+986969671+988561170
1044+989295662+989737793+990064190+989576833+986917992+980787742+970604452
1034+957010515+942255425+929920139+923529784+924774412+932668972+944169898
1024+955706440+964648196+969882533+971518601+970367718+967380901+962916079
1014+956032047+943830927+921113536+882422893+828011200+769582479+727233593
1004+715557881+731323696+757745083+781442982+801598635+822771202+845628552
994+867735940+887956241+906018422+920564625+930074055+933909189+931306965
984+921198592+904660563+886966252+875615819+875386459+885404905+901010812
975+917588012+932473845+944738164+954501443+962428524+969242839+975309759
965+980553510+984792460+988107189+990793482+993027111+994715515+995704450
955+995995627+995591942+994145867+990787820+984247039+973748477+960977380
945+950928849+948930637+955948506+967677673+978423567+984954935+986946959
935+985449666+981551266+975412523+965891244+951717653+933329337+913172631
925+894898073+883186220+882677467+894334548+912748406+928410140+933248758
915+925481848+911556378+903023639+908383848+926604291+949301668+968611440
905+981775689+989713237+994022234+995725121+995203136+991960493+983720182
895+966471426+938755246+908111828+889846356+894751596+918871020+948084953
885+970919328+984497136+991130478+993589715+993669306+992675500+991675571
875+991035614+990066494+987259663+980475564+966765104+942308486+903295856
866+849511415+790000211+743568068+728275523+747910112+789866374+835915964
856+873909113+901037804+919741325+932719860+941356352+946810437+950616803
846+953753389+956178393+958053498+960749534+965687954+972599438+979847260
836+986148806+991210267+995111695+997906347+999714633+1000823119+1001660705
826+1002589272+1003658654+1004729484+1005704002+1006360088+1006248502
817+1005221713+1003894597+1003168400+1003323435+1003855164+1004193937
809+1004269776+1004270698+1004163523+1003641472+1002382031+1000397842+998328202
799+996944470+995592864+991532714+982511630+970502214+961008518+957504785
789+958519592+961410294+966260433+973945382+983008994+991056482+997339793
779+1002155436+1005415063+1007000374+1007270419+1006280694+1002103033+989936212
769+965739040+933023940+901391061+872923141+834925844+774738080+699903916
759+636309718+606269983+612096680+639266121+671339881+701739653+733750411
749+771552251+813309501+852791846+884854216+908178516+924510885+936520169
739+946088519+953991900+960447758+965538975+969441917+972497463+974889353
730+976342538+976423183+975101465+972827547+970003006+966586040+962420097
720+957654093+952504548+947129856+942203747+939036878+938752942+941633243
710+946921167+952591776+955723754+953919879+946463632+933204058+910824585
700+871266797+809281017+735046784+674563629+650898910+666164398+705134369
690+751285736+794730206+829855364+852433059+860321496+855487355+844852915
680+837906079+841404348+855516782+874967501+893346271+906801960+915510604
670+922308395+929700982+936855783+941881695+945885952+950269866+954823166
660+958677853+961549464+963317723+963326939+961216220+958014591+955802687
650+956255153+959501285+964219430+968816640+972421295+974783100+975870322
640+976027333+976082829+976786776+978373206+980760355+983657246+986405882
630+988199026+988511335+987304758+985239989+983619261+983440262+984528736
620+985992257+987178030+987933655+988405608+988858798+989426537+989906785
611+989841347+988670452+985515301+978823829+967341664+952878871+941602170
601+940132198+949096139+962039191+971620312+975303966+975395407+975915747
591+979199929+984060206+987646362+988850174+988633651+987866243+986626025
581+985043019+983294970+981315981+979092754+975981250+968537576+949038668
571+908600370+848040192+787806477+757729415+770958772+813687116+861294039
561+898253158+922028805+935883965+943635141+948619973+953091773+957504785
551+961050256+963140765+964393096+966177089+969109331+972067380+973261317
541+972396740+970704978+968241528+961700417+945064627+913712522+871473445
531+833804389+818491633+830941402+861307929+894214930+919280564+934249345
521+940971890+941360894+936871122+929694333+922812408+918692285+918632839
511+922487723+928420278+934043027+937718254+938161438+934888117+930712695
501+931031390+937751697+946866461+953418236+954987286+950608640+940068867
492+925607851+911479815+899572835+888053936+876331681+869289585+873162442
482+887458152+905196439+920207090+930599332+936552559+938646096+939225817
472+941949107+947536503+953319422+957441717+960157108+961990278+962628194
462+960961975+955884319+948812204+944778453+946598918+950729376+953612310
452+955166614+954706248+949662101+940407114+931846922+928348455+930432052
442+936575798+943904067+948299435+947872051+945836315+947312673+953167085
432+959949472+964329765+964574793+959838939+951105872+942045222+935617278
422+929786104+921498656+916732454+927020154+946566396+960122414+963269533
412+960869085+959489962+961323658+963739906+962887639+956839482+946558036
402+933896878+919161736+903056753+892412767+896829070+913894352+932852249
392+947549011+957927100+965049313+966704143+960679290+953441607+957054096
382+970743753+981735466+983082134+974648143+956104924+931798535+916524028
##END=
