##TITLE=YCW-2
##JCAMP-DX=5.0
##DATA TYPE=LINK
##BLOCKS=1


$$ === CHEMSPECTRA SPECTRUM ORIG ===
##TITLE=YCW-2
##JCAMP-DX=5.00
##DATA TYPE=INFRARED SPECTRUM
##DATA CLASS=XYDATA
##$CSCATEGORY=SPECTRUM
##ORIGIN=Angelika Moesle
##OWNER=
##XUNITS=1/CM
##YUNITS=TRANSMITTANCE
##XFACTOR=1.0
##YFACTOR=7.7091261e-10
##FIRSTX=3997.453
##LASTX=373.96442
##MAXX=3997.453
##MAXY=0.8277611112350881
##MINX=373.96442
##MINY=0.45144727704534665
##NPOINTS=2559
##XYDATA= (X++(Y..Y))
2559A006119067A006023967A006028761A006079944A006177673A006268134A006239140
2552A006144272A006243779A006611421A006942106A006976126A006824662A006684486
2545A006569825A006414263A006132520A005642717A005082633A004840476A005169228
2538A005895929A006566887A006788477A006518100A006093707A005851782A005784825
2531A005745471A005747559A005854951A006030616A006248031A006546707A006901128
2524A007143904A007057154A006581809A006037884A005985772A006547480A007158671
2517A007317402A007084833A006769148A006530934A006399186A006411789A006587221
2510A006903293A007298073A007578502A007484330A007011846A006501786A006300684
2503A006416505A006451685A006046930A005371334A004879985A004842099A005214535
2496A005781269A006311354A006634075A006706753A006694924A006776725A006798683
2489A006460267A005889590A005571275A005665525A005704493A005213685A004715222
2482A005003615A005856112A006442716A006517559A006562402A006565341A006027909
2475A005123224A004511259A004344255A004418943A004638446A004957919A005203943
2468A005282032A005286749A005280409A005382391A005739750A006119917A006127108
2461A005842040A005713617A005935671A006022730A005197526A004052306A003715282
2454A004081146A004674631A005191803A005625784A006224373A007052670A007659531
2447A007537292A006910870A006509750A006533409A006605776A006321405A005632975
2440A004931246A004703857A005149048A006057368A006932596A007101843A006297746
2433A005506639A005659571A006330915A006478900A005855261A005053715A004526955
2426A004416392A004752566A005440224A006203729A006829610A007302017A007656670
2419A007809603A007651490A007329000A007257096A007690689A008429299A009014588
2412A009042036A008513033A007917074A007740559A007932460A008118562A008126139
2405A007956505A007574714A007058622A006683172A006612581A006611035A006277799
2398A005782274A005923223A006898963A007947614A008484658A008710113A008801193
2391A008311545A007030943A005906986A005922527A006919143A007837128A007561570
2384A006414727A005836551A005926084A005700627A004893129A004683290A005582487
2377A006757396A007224545A006395089A004742050A003893574A004482729A005418575
2370A005920517A006026673A005784207A005179124A004748778A005186469A006187570
2363A006774174A006687965A006624333A007215576A008350203A009275765A009217777
2356A008384609A007699272A007462836A007376782A007031949A006312669A005901806
2349A006701186A008376027A009734255A010117902A009740904A009089972A008363425
2342A007454254A006388671A005706503A005851858A006636395A007557318A008173302
2335A008312859A008022147A007376705A006843527A007641284A009947727A012166570
2328A012481714A010505492A008304509A007547421A008024312A008971755A009895150
2321A010732108A011526076A011972195A011649861A010894705A010488869A010418046
2314A009706653A007655897A005766888A005678437A006735283A007791820A008353296
2307A008519296A008673852A009070024A009553797A009714848A009450656A009250017
2300A009617660A010329441A010726077A010947436A011321109A011466155A010819863
2293A009337309A007897126A007795685A009164429A010855582A011777743A011698802
2286A011161681A010610179A010109088A009844431A010083341A010742931A011461594
2279A011907403A011961216A011682952A011218277A010761643A010397557A009991025
2272A009463181A008949101A008556484A008264691A008208713A008591278A009276306
2265A009888193A010169627A010131200A009941773A009773222A009708276A009763790
2258A009958938A010211455A010165142A009473619A008493781A007924573A007849498
2251A007890631A007739244A007451393A007308589A007370520A007415286A007392168
2244A007575951A008041245A008400073A008240722A007632315A007085297A006895793
2237A006814842A006518718A006089918A005854256A005889977A006069429A006484312
2230A007249751A007962613A007953954A007214339A006473565A006206203A006192595
2223A006110175A006010746A006094093A006360837A006607324A006696702A006783529
2216A007115219A007570925A007717285A007468712A007234519A007299465A007515644
2209A007577342A007323898A006819018A006345760A006242929A006591242A007155578
2202A007658911A007967871A008060032A007943593A007667417A007389230A007290497
2195A007335417A007260962A006937776A006573304A006481452A006751674A007134857
2188A007278358A007118234A006930741A006957183A007094962A007054680A006754844
2181A006423541A006250351A006111412A005858972A005647201A005650294A005710447
2174A005645036A005663206A006116051A006983625A007823674A008173921A007871998
2167A007028469A005973015A005245849A005301053A006042678A006866954A007293280
2160A007344464A007250988A007117384A006956951A006781983A006565418A006324885
2153A006261639A006589231A007117074A007297687A006885278A006253908A005883637
2146A005847375A005982061A006230249A006545702A006743788A006692836A006477276
2139A006264732A006179297A006333234A006769148A007296373A007598526A007630922
2132A007696256A007966556A008137194A007805505A007073777A006515007A006540443
2125A006976590A007381112A007627831A007940269A008377651A008613468A008390022
2118A007918465A007581518A007491907A007565204A007745893A007922176A007896198
2111A007652030A007466083A007599301A008000885A008364430A008440278A008288968
2104A008182116A008268402A008454195A008574809A008555403A008471746A008509012
2097A008707408A008767792A008353063A007583760A006986332A006933137A007288177
2090A007678705A007962536A008289123A008759519A009228834A009478799A009465656
2083A009339010A009273677A009324939A009459316A009666139A009917187A010093856
2076A010160426A010301066A010595875A010711928A010304854A009569647A008997115
2069A008763308A008714212A008710423A008661635A008462390A008148019A007912898
2062A007899368A008162478A008732613A009461867A009996591A010142642A010108005
2055A010226841A010563789A010852336A010784838A010355188A009875745A009645186
2048A009688328A009860359A010132051A010652703A011454481A012198579A012451792
2041A012199120A011837741A011686741A011724549A011746893A011627129A011460821
2034A011468243A011741249A012182111A012653358A013022469A013145325A013001052
2027A012783173A012759050A013085559A013693117A014261629A014483219A014411933
2020A014296267A014087742A013533612A012772658A012353523A012574340A013200839
2013A013840638A014270443A014493812A014731252A015169485A015593723A015534421
2006A014891839A014206811A014203486A015057684A016163471A016768168A016794069
1999A016709948A016746751A016756184A016692088A016600545A016249758A015428729
1992A014560227A014404665A015126342A016103783A016689846A016800023A016729432
1985A016722628A016796697A016801183A016627219A016430216A016578973A017271502
1978A018203635A018752663A018583726A017988772A017478711A017245059A017239569
1971A017450723A017798494A018075908A018249793A018540738A019091698A019762114
1964A020251376A020318255A019980457A019548797A019371509A019549647A019927804
1957A020270163A020409953A020315781A020084371A019876002A019824817A019984091
1950A020320265A020689299A020850660A020726876A020608735A020776204A021012794
1943A020929755A020623967A020492218A020569922A020610977A020646542A020969110
1936A021625995A022259840A022469523A022197213A021781943A021645247A021891115
1929A022260303A022477332A022512434A022471688A022361666A022046599A021407341
1922A020505130A019558925A018776477A018301132A018255670A018649600A019331613
1915A020158596A021034443A021703776A021896759A021779237A021843488A022259608
1908A022706422A022864922A022739437A022402412A021647953A020082052A017510721
1901A014138385A010503250A007379102A005530838A005293399A006398336A008137968
1894A009554029A009792473A008692872A006862238A004993795A003333568A001739445
1887I99936336I97794346I95542953I93549179I91863823I90224085I88413089I86414367
1879I84422294I82884073I82306825I82859023I84289928I86217364I88325257I90341375
1871I92017607I93194836I93848319I94037823I93758477I92804385I90821359I87599637
1863I83376505I78877816I75104050I73070228I73517816I76513075I81191063I86138577
1855I90288258I93443642I95908198I97810737I99002501I99475991I99571323I99660701
1847I99784408I99772192I99727348A000159241A001441389A003309986A005139847
1840A006601369A007799552A008851604A009590832A009723894A009096312A007693859
1833A005401333A001814289I96354549I88733104I79472925I69949636I61718856
1826I55585608I51206683I47619948I44303899I41790324I41169159I42965851I46551659
1818I50592941I53925690I55929437I56208010I54135760I48788826I39337829I25660607
1810I08670585H89890133H70571090H51273078H32237480H14013169G97766627G85044116
1802G77091599G74370505G76760449G83901989G95090222H09121090H24524569H39922480
1794H54317512H67294783H78892564H89186007H98114264I05664191I12000550I17377715
1786I21996555I25865111I28741922I30281535I30237928I28446493I24722443I19095235
1778I12326210I06013818I01906199I00992312I03203887I07838886I14088882I21183722
1770I28338791I34892179I40509491I45155237I48966423I52192243I55014390I57338075
1762I58955159I59843068I60024145I59220667I56921491I52721013I46417978I37878703
1754I26978012I13782398H98976348H84240194H72114492H65188049H64955093H70991463
1746H81114190H92574965I03405219I12884748I21106790I28376753I34889164I40635208
1738I45504478I49526739I52967732I56128683I59121624I61872253I64272018I66294862
1730I68019571I69567227I71007873I72339814I73568844I74758753I75919204I76893088
1722I77534433I78009933I78673854I79607921I80554281I81347785I82088791I82820055
1714I83383077I83710283I83994577I84448351I85094566I85826140I86478463I86865048
1706I86953731I87007311I87387866I88220647I89285843I90169344I90576882I90599072
1698I90588325I90717831I90810534I90612062I90052905I89285225I88609242I88304381
1690I88435279I88870806I89473723I90195168I91002203I91748931I92185153I92229609
1682I92189250I92448417I92956776I93340810I93505727I93733349I94147613I94515023
1674I94680559I94801637I94992378I95095133I94995162I94866506I94955807I95314790
1666I95812480I96247697I96437897I96341251I96124917I96038476I96210817I96607607
1658I97150528I97773471I98359147I98733128I98746505I98364559I97796897I97508041
1650I97807490I98423088I98833409I98967012I99176619I99598383I99965485A000031823
1642I99863966I99710416I99764460A000048136A000426913A000717083A000820224
1635A000791153A000753576A000743448A000700072A000605979A000524332A000491550
1628A000504848A000621210A000924525A001378221A001810577A002066110A002135618
1621A002153092A002286386A002581660A002884201A002977755A002851805A002759643
1614A002939174A003310140A003541009A003438254A003183650A003118162A003375860
1607A003842081A004387089A004940756A005384942A005607847A005677432A005723900
1600A005646969A005202165A004438118A003770486A003503820A003528948A003635877
1593A003904243A004554944A005520711A006398567A006845924A006844300A006557377
1586A006175431A005985463A006292180A007080658A007963464A008573804A008831965
1579A008840934A008734237A008619498A008574886A008720010A009192803A009905976
1572A010501317A010724144A010661440A010490570A010265191A010078083A010157797
1565A010594638A011099132A011212632A010785225A010191971A009995818A010385496
1558A011012382A011409172A011465382A011428115A011550353A011836968A012090645
1551A012171286A012184508A012302107A012469188A012506146A012441432A012471122
1544A012669981A012975151A013357252A013793706A014182843A014453529A014699939
1537A015097657A015675755A016237078A016536681A016457740A015987420A015215334
1530A014447344A014096093A014272144A014597958A014571592A014077691A013452274
1523A013100559A013170299A013580697A014180214A014767436A015103224A015082503
1516A014872897A014768441A014880010A015094797A015345922A015661762A015889229
1509A015782222A015507051A015562023A015999560A016234371A015846627A015157887
1502A014805012A015024825A015535890A015964457A016184425A016247825A016202672
1495A016114376A016108268A016242954A016453952A016670903A016883138A017110605
1488A017430079A017974236A018748798A019464598A019722373A019426017A018883175
1481A018442545A018200234A018104979A018094773A018027894A017723188A017190474
1474A016737551A016785023A017496881A018495043A019104533A019071364A018809955
1467A018774853A018919127A018963816A018832532A018611791A018364764A018141163
1460A017993101A017938902A018034157A018439607A019283831A020464384A021645788
1453A022435890A022556041A021983199A021065060A020377944A020229185A020308513
1446A020062955A019403827A018797275A018660270A018936755A019292259A019497226
1439A019551967A019565110A019593486A019580959A019426636A019127728A018878922
1432A018959486A019404446A019874997A020025920A019884662A019662452A019366947
1425A018880545A018301055A017925449A017928774A018236804A018697150A019220972
1418A019741161A020156276A020403227A020529099A020669197A020979547A021527880
1411A022152678A022530372A022457307A021949644A021141217A020319879A019933371
1404A020280602A021214050A022185460A022630033A022521867A022416561A022616116
1397A022692815A022198141A021276213A020406087A019942263A019906774A020137488
1390A020501265A020823986A020985346A021178716A021512725A021447547A020305111
1383A018319455A016605261A015922630A015911264A015813149A015585604A015953479
1376A017318820A019001701A020007596A020117308A019778815A019421378A019206360
1369A019174660A019393079A019854972A020297457A020402299A020212408A020052826
1362A020085222A020253927A020507063A020750303A020762596A020442272A020013008
1355A019825127A020002338A020356604A020647626A020871536A021195879A021669060
1348A022166826A022566092A022793636A022701088A022057578A020834965A019504803
1341A018900416A019629361A021518524A023529848A024435772A023995451A023336479
1334A023710074A025076111A026403489A027057900A027283357A027513297A027830605
1327A028122401A028258710A028008822A027218024A026239500A025859796A026560597
1320A027984158A029210792A029594516A029349189A029073090A028768539A027967998
1313A026867159A026464879A027347220A028947991A030096226A030002286A028929513
1306A027924160A027571825A027402502A026947414A026701237A027416032A028974125
1299A030461394A031095780A030900245A030501908A030330265A030336450A030533144
1292A031042045A031212451A029718687A026438204A023373282A022719953A024533655
1285A026900173A028107169A028305642A029022369A031080626A033403383A034538319
1278A034763002A035272367A035857966A035202627A033195168A031531771A031952607
1271A034378582A036930816A037773958A036762111A034945470A032903683A030506006
1264A028089154A026650362A026609462A027448042A028984098A031769288A035701089
1257A039452819A041564113A041488421A039516528A036396169A033338746A031735809
1250A032156337A033650334A034590122A034463940A034292760A034945239A035911546
1243A036318388A036192284A035961957A035606917A034938203A034150188A033670436
1236A033713733A034145085A034586101A034569633A033804813A032548102A031570120
1229A031447572A032025904A032828918A033588403A034088489A034090963A033693167
1222A033202668A032652558A031978740A031469917A031609320A032606941A034145394
1215A035479422A036019326A035834848A035339555A034778079A034323069A034216217
1208A034491233A034908668A035246929A035408599A035365611A035154226A034820294
1201A034527340A034832820A036355732A038895982A041295670A042456738A042328624
1194A041789493A041565506A041462597A040898106A039927004A039238033A039190946
1187A039488076A039930561A040804011A042081365A042811469A042164402A040746487
1180A039602350A038405019A036311583A034395669A035291309A039883629A045710934
1173A049242542A048903430A045642818A041736995A039233238A038455430A038330098
1166A038564215A040045145A042661474A044749961A045305329A045054049A044916811
1159A044719421A043863830A042540551A041908407A042959454A045156571A046738399
1152A046591574A045191441A043659946A042649954A042321048A042822680A044188253
1145A045842914A046799171A046686906A046261044A046436245A047169364A047575201
1138A046829710A044890910A042621347A041327755A041712099A042912445A043291530
1131A042571477A042050902A042835979A045140334A048721271A052528281A054456567
1124A053232563A050162614A047785967A047277608A047725042A047812486A047366755
1117A046851513A046326145A045687507A045279892A045412800A045788328A046141590
1110A046787650A047768803A048270358A047899237A047460772A047532909A047643316
1103A047295546A046781232A046559565A046550982A046388540A045954019A045527769
1096A045456638A045609649A045368652A044492727A043583325A043379981A043866537
1089A044306935A044133125A043409439A042591425A041980466A041336415A040127410
1082A038096602A035362132A031952762A027535796A021968818A015939021A010569588
1075A006540908A003919784A002699877A003184810A005689726A009762707A014172018
1068A017970911A020942977A023248956A025143145A026922054A028842995A030889653
1061A032683793A033837363A034384613A034764935A035470453A036575158A037520900
1054A037849265A037794523A037813080A038059258A038421024A038785418A039024947
1047A038978402A038698747A038491227A038552772A038757044A038909281A039081311
1040A039542893A040232252A040561004A040305007A039959555A039986925A040430029
1033A041067430A041675683A042138580A042448775A042668356A042837525A042978397
1026A043145556A043287433A043187385A042779460A042364035A042355067A042834046
1019A043436655A043823471A044060912A044375901A044715399A044775940A044477108
1012A044103359A043975786A044130807A044260854A044015063A043432711A042821288
1005A042293754A041781761A041282062A040812207A040301451A039804457A039496117
998A039364214A039155071A038672381A037992301A037325210A036849247A036598893
991A036449673A036263725A035976415A035532848A034908668A034192635A033490442
984A032867266A032373907A032054433A031966060A032135616A032489342A032934765
977A033434774A033974214A034541798A035099563A035484602A035413934A034758054
970A033672214A032452693A031452675A030928853A030852386A030963723A031072661
963A031219023A031537105A032041134A032522201A032875385A033174370A033415522
956A033608196A033952334A034694808A035789927A036926950A037894727A038622589
949A038938352A038704004A038161316A037627597A037234749A036934837A036487171
942A035520168A033949009A032275328A030875736A029557790A028266287A027594867
935A027861533A028764518A029868914A030912770A031853177A032650702A033258567
928A033788035A034369845A034820681A034897766A034935265A035220409A035673874
921A036096798A036294343A036262256A036317461A036764429A037515797A038027944
914A038018744A037893026A038010548A038243736A038171677A037765608A037397347
907A037261965A037297067A037293897A036982928A036640568A036766827A037333560
900A038148791A038833974A039127933A039235326A039385631A039628870A039929942
893A040329826A041051889A042198577A043426603A044481207A045362853A046157130
886A046984036A047912767A048960181A050088313A051064672A051676712A052008712
879A052212597A052255431A052052551A051687151A051268015A050838829A050378329
872A049867804A049436376A049232645A049066801A048267034A045885825A041113434
865A033711259A024269695A013936201A003040845I89450142I69479548I42106086
858I12453860H89774235H81274081H87816878I04252924I23226746I40017368
851I54493583I68597903I81540072I90779375I97302997A003653351A010742004
844A017103260A021630247A024969568A027631128A029511942A030807774A032584904
837A035606531A038046887A039016056A038899771A037500952A033986894A027325649
830A016834893A001869880I81888617I59257547I41110707I35907738I46392850
823I61668136I72800314I81636409I91310698A001481207A009370246A014689037
816A019031469A023093085A026506475A028953558A030411446A030572421A028819800
809A024364253A016817419A007943361A001084880I98005654I98529399A002022581
802A008816889A020055455A031017381A034182042A028199640A010372043I77389387
795I36209893I10529595I17792212I43410191I66876285I83805228I97739451
788A010124164A018580709A021571332A018395614A006532249I83096309I49792169
781I14156999H84598790H67145793H65608113H80382308I04004736I25089235
774I40348439I52536613I64118080I75227449I84085038I89847319I93425627
767I95728204I96327719I93753683I87904962I79212134I67797286I54926789
760I43532740I37458949I39111831I47204601I57952668I67162359I71281653
753I67664765I53935664I31561904I10241666H97088113H91502811H93418648
746I04197024I21620949I40985145I59066419I73690850I83560056I89218423
739I91492393I89540524I81996088I68205442I48124209I24360831I03511686
732H92358168H92708569I01891972I16057373I31127460I43842317I52952423
725I57581701I55246960I42002868I15154774H79271958H46794414H27324372
718H23515196H34869351H56794517H80347747H99740240I14837079I26732762
711I35761995I42276879I47152257I51488040I56084999I60991148I65890262
704I70769583I75655012I80284444I84501081I88453680I92149897I95262524
697I97593167I99313316A000715537A002004798A003216278A004290288A005228607
690A006115665A007022748A007919316A008699290A009339397A009963113A010733268
683A011750837A013005691A014359976A015665628A016838759A017794783A018457081
676A018814208A018783900A017873569A014949518A008708645I99191310I89054975
669I82606196I82723718I88515689I96541270A003970428A009842189A014298509
662A017644788A020014631A021521385A022479188A023334546A024357063A025434553
655A026221253A026497120A026310090A025700832A024438632A022213527A019078323
648A015614831A012682429A010998774A010813677A011852895A013551859A015342984
641A016808914A017736640A018104670A017947098A017223643A015927191A014290004
634A012739876A011659139A011310439A011910264A013496654A015665937A017677261
627A018986779A019539828A019428337A018513213A016620183A013889347A010671337
620A007171195A003338902I99049278I94308587I89300069I84264568I79393443
613I74890270I71101118I68491746I67428948I67969316I69855542I72663540
606I75920132I79165126I82037452I84335777I86018736I87207176I88121295
599I88909851I89536814I89844768I89644517I88749186I87014347I84336860
592I80568971I75517620I69178631I62106137I55596201I51322427I50420910
585I52668438I56508850I59902603I61246063I59723382I55119000I47609278
578I37963983I27833215I19306001I13748920I11132049I10601809I11514536
571I13891879I18330106I25620867I36025105I48610610I61417706I72441950
564I80569899I85698876I88134825I88094852I85932063I82696193I80033551
557I79126081I79668692I80226920I79951208I79762168I81402989I85464992
550I90848651I95991469A000014272A002778818A004554403A005864153A007290729
543A009218164A011787330A014961114A018469374A021805525A024466698A026130251
536A026445935A024750838A020335033A013410910A005910388A000813729A000056719
529A003036670A007392710A011083050A013541653A015268760A016889092A018641482
522A020421473A022076908A023584125A024984800A026253881A027287454A027962200
515A028128895A027454459A025176005A020055300A011071451I98962993I87298178
508I81084598I83235943I92372801A004390259A015751914A024995005A032035491
501A037236760A041126268A044249720A046970814A049440242A051681660A053679223
494A055510863A057354873A059240944A060907589A062097033A062940871A063912358
487A065400170A067402912A069592529A071549345A072926747A073596312A073741823
480A073599019A073025172A071656352A069534386A066919294A062643897A052157779
473A027697621I82720780I18937739H49064441G90389349G54372774G42452581
466G50001890G71250919H00467773H31740873H60127498H83137112I00776907
459I14500905I26183966I37305397I48293456I58649680I67863547I75922374
452I82991931I89229170I94950086A000412454A005440301A009674179A013076359
445A015927655A018522723A021022072A023411708A025493391A026999525A027805865
438A028075933A028159126A028248427A028167786A027585202A026441993A025160154
431A024442653A024827460A026416556A028970181A032106777A035428702A038687381
424A041861785A044914182A047489689A048970928A048757301A046358849A041257862
417A032963527A021625918A008760757I97028289I88884491I85284611I85552515
410I88193741I91707334I95047119I97813598I99514108I97855349I89124946
403I72990746I56590265I50317151I58358273I75573288I93833706A008759365
396A020137565A029044715A036260555A042119405A046628919A049748814A051662641
389A052679978A052958705A052456764A051059723A048389195A043213286A033295449
382A016232207I90664173I57262459I19447491H83085310H54259525H36142375
375H27148629H21585131H12941014G98680282G82956248G73765809G76271420
368G88685746H04556528H18520827H29810190H41116564H55069807H71943467
361H89985001I07023114I21522292I32689881I40320528I44711901I46528309
354I46709076I46506042I47290887I50013141I54849087I61337915I68644603
347I75799749I82108893I87482347I92282572I96934735A001718337A006688738
340A011650711A016153421A019045386A017395364A005723436I76921232I25702591
333H53970049G74454084G07490533F70806712F69858728F96574843G36306035
326G76111142H08814684H32548140H48414824H58469280H64679304H68702957
319H72003542H75732308H80334757H85350543H89618209H91829475H91287251
312H88161401H82767769H75075501H65718753H57139582H52404999H52174208
305H53079435H49542259H37576682H17503413G93826089G72489537G57190592
298G47856730G43158872G44106082G53799467G73401723G99641332H26910803
291H50976721H70356381H85300441H96520220I04666415I10286665I14016746
284I16691914I19012583I21212484I23355092I25686276I28405747I31427991
277I34610126I37938158I41443634I45125392I48844340I52312471I55465535
270I58737049I62646737I67252588I72204896I77147230I81924260I86557017
263I91129853I95619033I99808145A003544256A007118776A011103229A015692689
256A020527088A025277212A030147487A035576918A041286469A045332699A043259831
249A027199468I87768265I22762457H47441634G90623001G71981023G84045412
242G99409766G91638637G51769356F93256707F42966023F23210295F38619803
235F78055567G25992644G71265918H09051119H38788626H61363951H77172415
228H85603215H86358060H81826976H77784225H80501994H92360256I10473694
221I29687972I46273782I59021111I68375385I75050007I78822457I78078436
214I69480245I48899312I15727075H74557245H31907569G99803620G96028541
207H18247898H49965571H82966473I13178088I37285759I54524354I65556253
200I70861125I71093154I66900100I58290002I44148724I21633938H86566894
193H35757645G71047266G02723554F47358904F19341198F22883553F51153970
186F91891057G33623831G69512523G98343798H22130216H42520639H59339869
179H71802132H80396843H87226176H94595026I03706679I14422351I25611898
172I35945314I44760611I52032197I57839321I62427389I66414472I70511190
165I75133353I80149990I84895552I88762407I91726354I94002257I95595683
158I96581088I97341655I98109336I98457958I97700329I95983892I94497550
151I94242867I94726717I92927474I82031499I53303520I05224180H52291884
144H19316651H21826515H52688443H91673449I23891827I45856270I60346015
137I70441991I77745045I83448797I88839491I94391161I99477537A003525159
130A006760875A009646887A012358394A014930498A017332737A019463516A021461000
123A023566574A025168969A024711948A021325928A015933763A010194908A005167836
116A001623702A000598092A002345998A005389504A007742181A008646559A008304818
109A006456246A002283448I95463935I85191599I66258446I26536532H53789978
102G53551049F56145014E95508892E85601106F17120422F68567613G21085953
95G66137869H02857487H32839857H57710414H78380261H95053825I08096737
88I18454200I27116023I34651877I41523426I48536540I56070308I62918429
81I67317378I69253705I70341634I71029446I69562896I63161205I47376631
74I16772091H71777545H25037644G97763457H03231005H32359950H66126368
67H93713922I12868047I24676285I30723092I31506545I26764617I18359100
60I13057010I18016818I32145957I48441209I61141994I68872533I73957131
53I79061135I84837874I89806496I91793852I90231353I87278849I86070770
46I88299046I92844899I96196977I96352230I95250231I95442441I96849610
39I98243171I99475295A000853701A002257779A003728425A005487310A006854970
32A006513770A004626772A001994824I98512003I93338259I85004647I72131445
25I55398501I39091497I29503417I30478461I40571731I54453456I66424523
18I74214442I80637551I88453448I97451754A006763117A014287143A016081439
11A008851681I91720478I66964350I42943584I29962061I28989568I33603923
4I39532513I48326470I62446795I77041692
$$ === CHEMSPECTRA INTEGRALS AND MULTIPLETS ===
##$OBSERVEDINTEGRALS= (X Y Z)

##$OBSERVEDMULTIPLETS=
##$OBSERVEDMULTIPLETSPEAKS=
$$ === CHEMSPECTRA SIMULATION ===
##$CSSIMULATIONPEAKS=
##END=


$$ === CHEMSPECTRA PEAK TABLE EDIT ===
##TITLE=YCW-2
##JCAMP-DX=5.00
##DATA TYPE=INFRAREDPEAKTABLE
##DATA CLASS=PEAKTABLE
##$CSCATEGORY=EDIT_PEAK
##$CSTHRESHOLD=0.93
##MAXX=3997.453
##MAXY=0.8277611112350881
##MINX=373.96442
##MINY=0.45144727704534665
##$CSSOLVENTNAME=- - -
##$CSSOLVENTVALUE=0
##$CSSOLVENTX=0
##NPOINTS=18
##PEAKTABLE= (XY..XY)
473.1216524472243, 0.6150059087984928
512.7845454261137, 0.45144727704534665
576.5284805707583, 0.6316215378388691
640.2724157154025, 0.4774579394307068
667.1865216653632, 0.613668440176802
691.267563831118, 0.6766949279115773
708.2659465363563, 0.48044067509731997
718.1816697810787, 0.5951299053114001
793.2578600625484, 0.5729105456581759
806.0066470914776, 0.6569518428639629
838.586880609851, 0.5164025411046727
896.6646881860825, 0.5965058193449515
1034.0682817200936, 0.5723660570199465
1389.617786637998, 0.6348582491230216
1474.6097001641906, 0.6673082096300049
1585.0991877482406, 0.679385302679974
2848.6456355043, 0.6668047882774227
2923.7218257857703, 0.5969719871165681
##END=


$$ === CHEMSPECTRA PEAK TABLE AUTO ===
##TITLE=YCW-2
##JCAMP-DX=5.00
##DATA TYPE=INFRAREDPEAKTABLE
##DATA CLASS=PEAKTABLE
##$CSCATEGORY=AUTO_PEAK
##$CSTHRESHOLD=0.93
##MAXX=3997.453
##MAXY=0.8277611112350881
##MINX=373.96442
##MINY=0.45144727704534665
##NPOINTS=50
##PEAKTABLE= (XY..XY)
1512.8560612509773, 0.769375143519897
2711.2420419702894, 0.768991527383297
2725.4073608913213, 0.767858621964495
432.0422275762312, 0.7672509531833129
2736.739616028147, 0.7669551347420407
586.4442038154807, 0.7664743635728529
2755.1545306254884, 0.7648912051023551
2777.8190408991395, 0.7636570310612782
2767.903317654417, 0.7618963098311444
439.12488703674717, 0.7601743917163223
956.1590276544171, 0.7595683310588447
1320.207723924941, 0.7575035071605316
3031.3782495856135, 0.7572727182815633
1092.146089296325, 0.7563304880749808
1155.8900244409692, 0.7553110101121385
1161.556152009382, 0.7548206426227815
3007.297207419859, 0.7501521091807751
1236.6323422908522, 0.7458031752922343
1202.635576880375, 0.7326914643266751
940.5771768412819, 0.7326114752051741
872.5836460203282, 0.7296734432189896
2952.052463627834, 0.725559172816195
1447.6955942142295, 0.722698925141447
1541.1866990930412, 0.7215030770207762
405.12812162627006, 0.7165659052033884
381.04707946051576, 0.7161697725296525
457.5398016340887, 0.7038871626578961
1184.2206622830336, 0.7019944172469115
1497.2742104378417, 0.7019387465636929
2886.8919965910864, 0.6945863348338543
1409.4492331274432, 0.6879301643476985
1432.1137434010943, 0.6872707588503467
1585.0991877482406, 0.679385302679974
691.267563831118, 0.6766949279115773
1474.6097001641906, 0.6673082096300049
2848.6456355043, 0.6668047882774227
806.0066470914776, 0.6569518428639629
1389.617786637998, 0.6348582491230216
576.5284805707583, 0.6316215378388691
473.1216524472243, 0.6150059087984928
667.1865216653632, 0.613668440176802
2923.7218257857703, 0.5969719871165681
896.6646881860825, 0.5965058193449515
718.1816697810787, 0.5951299053114001
793.2578600625484, 0.5729105456581759
1034.0682817200936, 0.5723660570199465
838.586880609851, 0.5164025411046727
708.2659465363563, 0.48044067509731997
640.2724157154025, 0.4774579394307068
512.7845454261137, 0.45144727704534665
##END=

##END=

