##TITLE=X7996
##JCAMP-DX=4.24
##DATA TYPE=INFRARED SPECTRUM
##DATE=30/10/2018
##SAMPLING PROCEDURE=Diamant-ATR
##ORIGIN=ComPlat
##XUNITS=1/CM
##YUNITS=TRANSMITTANCE
##RESOLUTION=4
##FIRSTX=3997.453
##LASTX=373.96442
##DELTAX=-1.4165319
##MAXY=0.93167877
##MINY=0.44575951
##XFACTOR=1
##YFACTOR=8.6769347e-010
##NPOINTS=2559
##FIRSTY=0.92043614
##XYDATA=(X++(Y..Y))
3997+1060784911+1061087230+1061423414+1061265695+1060593257+1059786180
3989+1059291589+1059422450+1060149361+1061035641+1061650033+1062055323
3980+1062568186+1063094170+1063141294+1062520994+1061622556+1060903201
3972+1060430110+1060083210+1059919651+1060104436+1060550598+1060818983
3963+1060548538+1060022485+1060015547+1060854428+1061912304+1062235917
3955+1061506533+1060337306+1059677645+1059955372+1060782850+1061411668
3946+1061432619+1061097190+1061106601+1061897123+1062918659+1063282733
3938+1062931024+1062297741+1061434130+1060355716+1059780273+1060379003
3929+1061503236+1061954619+1061501518+1060915084+1060943455+1061356164
3921+1061248590+1060205552+1058832513+1058204245+1058778108+1060093926
3912+1061452128+1062391439+1062616546+1061865936+1060100314+1057842575
3904+1056100103+1055525759+1055990400+1057320850+1059322570+1061223311
3895+1062164064+1061916700+1061027535+1060519824+1060809503+1061231829
3887+1061085375+1060225267+1058954443+1057712676+1056975254+1057255935
3878+1058351729+1059283140+1059340774+1058396586+1056884030+1055817087
3870+1056365465+1058452433+1060339435+1060700418+1059679362+1058353034
3861+1057605309+1057514496+1057785834+1057998028+1057603729+1056304946
3853+1055223715+1056142693+1058381336+1060532257+1061923638+1062204319
3844+1061241858+1059307870+1057110924+1055475544+1055027940+1055886124
3836+1057396619+1058785320+1059777456+1060397206+1060718485+1060845086
3827+1060959460+1061219945+1061473354+1061287058+1060484447+1059601945
3819+1059221179+1059319135+1060011013+1061409057+1062805521+1063391474
3810+1063035300+1062129237+1061480223+1061712132+1062044538+1061000951
3802+1058455662+1056457789+1056882175+1059206341+1062084930+1064308941
3793+1065190618+1065023556+1064529377+1064130888+1063849383+1063585945
3785+1063320171+1063070746+1062723296+1062091662+1061353691+1061122401
3776+1061638836+1062477855+1063158467+1063469785+1063367294+1062888091
3768+1062229392+1061769147+1061827262+1062256938+1062489945+1062154516
3759+1061391403+1060647250+1060279466+1060269781+1060147094+1059162858
3751+1057199263+1055620487+1055303949+1055395998+1054901681+1053718716
3742+1052811759+1052609939+1052388266+1051355601+1049549519+1048096727
3734+1048036208+1049211411+1051095391+1053249747+1055097526+1056118101
3725+1056207814+1055817156+1055649613+1056164743+1057296945+1058601772
3717+1059630728+1060005724+1059322158+1057483653+1055549596+1055317138
3708+1056890350+1058754340+1059716045+1059476168+1058491863+1057734108
3700+1057942730+1058963717+1060111992+1060775088+1060831073+1060758258
3691+1061182645+1062198274+1063030973+1062911378+1062086098+1061151320
3683+1060365127+1059668646+1058943521+1058136376+1057250439+1056760313
3674+1057435774+1058612557+1058927584+1058368284+1058666825+1060835332
3666+1063535043+1065248320+1065529413+1064763759+1063498018+1062072222
3657+1060984533+1060889943+1061400333+1061063187+1059064146+1055957771
3649+1053477740+1053120467+1054723697+1057291312+1059686713+1061090802
3640+1061630593+1062000300+1062241482+1061660955+1059974125+1057755678
3632+1055562922+1053370373+1051590875+1051646448+1053415092+1055250437
3623+1056423373+1057154681+1057868060+1058758736+1059625507+1059959837
3615+1059492998+1058753378+1058686059+1059359458+1060068097+1060725079
3606+1061576394+1061975570+1061140810+1059321746+1057494850+1056399743
3598+1056079152+1056140975+1056198884+1056272798+1056605548+1057009120
3589+1056987757+1056596274+1056804414+1058192910+1059935107+1060875311
3581+1060624856+1059837769+1059480770+1059785150+1060410808+1061188621
3572+1061900420+1061905847+1060823516+1059354856+1058824819+1059353207
3564+1059802873+1059823549+1059939847+1060499216+1061332396+1062019190
3555+1062073527+1061174470+1059744484+1058908350+1059205929+1059958944
3547+1060185563+1059598304+1058859166+1059027670+1060556781+1062679195
3538+1063968154+1063776019+1062795492+1061918417+1061246941+1060546271
3530+1059841272+1059290696+1058944689+1058863837+1059299283+1060440895
3521+1061828567+1062428327+1061732465+1060498460+1059926315+1060214757
3513+1060460542+1059980582+1059208333+1059007406+1059408505+1059651061
3504+1059342285+1058893993+1058757500+1058777558+1058682968+1058662360
3496+1059069916+1059847043+1060519137+1060695747+1060436362+1060185837
3488+1060383262+1061030970+1061671534+1061839489+1061486612+1060927930
3479+1060393016+1059884961+1059583192+1059918346+1060873044+1061665214
3471+1061613420+1060846735+1059827534+1058800776+1057968902+1057553583
3462+1057482416+1057571718+1057978587+1058926828+1060090629+1060692999
3454+1060303990+1059418191+1059080632+1059794011+1060912886+1061341532
3445+1060741978+1059726349+1059068749+1059049652+1059264455+1059056315
3437+1058346646+1057810014+1057975015+1058479292+1058556984+1058061775
3428+1057647624+1057907559+1058583843+1058835810+1058242919+1057274276
3420+1056670600+1056678156+1057044978+1057340084+1057107214+1056206509
3411+1055179820+1054833538+1055370650+1056252533+1056858545+1056948189
3403+1056586588+1055979959+1055366391+1054826462+1054208430+1053397163
3394+1052636660+1052422681+1053018595+1054145781+1055199398+1055730465
3386+1055766117+1055767971+1056229658+1057180098+1058042816+1058142627
3377+1057454802+1056647244+1056266272+1056219080+1056112811+1055726412
3369+1055124316+1054631099+1054527441+1054595653+1054435323+1054321155
3360+1054962750+1056269981+1057195073+1057022859+1056114460+1055165807
3352+1054426393+1053916758+1053788920+1054065479+1054391222+1054398092
3343+1054100169+1053746330+1053487082+1053258540+1052869668+1052285638
3335+1051849368+1051989776+1052695256+1053501920+1053974941+1054035391
3326+1053890037+1053821824+1054008945+1054361272+1054521533+1054240097
3318+1053739186+1053451568+1053493059+1053663006+1053703397+1053320707
3309+1052400150+1051411586+1051078080+1051520327+1052146534+1052314352
3301+1051849711+1051061525+1050359206+1049819415+1049305521+1048966863
3292+1049155632+1049832535+1050516582+1050875161+1051002518+1051061044
3284+1050985413+1050766557+1050758245+1051232846+1051754640+1051607705
3275+1050827213+1050148386+1049925477+1049794960+1049437068+1048964322
3267+1048480035+1047950822+1047679209+1048178540+1049274815+1050016564
3258+1049805195+1049010415+1048225183+1047498340+1046569333+1045463235
3250+1044626415+1044546456+1045235449+1046118706+1046605878+1046761880
3241+1047087486+1047585237+1047514277+1046413674+1044952776+1044217278
3233+1044455643+1045024629+1045246371+1044899882+1044177711+1043510562
3224+1043206595+1043097304+1042816623+1042424591+1042339068+1042609788
3216+1042777125+1042568366+1042226686+1042004189+1041791171+1041410611
3207+1040922271+1040524400+1040342363+1040329517+1040331647+1040324022
3199+1040510593+1041067557+1041851827+1042436475+1042459144+1041994503
3190+1041483907+1041158576+1040809408+1040358987+1040192543+1040539856
3182+1040999207+1041061237+1040711520+1040215555+1039655637+1039007517
3173+1038385843+1037892282+1037450929+1037056080+1036893140+1036986013
3165+1037104097+1037161593+1037239766+1037203770+1036801503+1036023415
3156+1034974401+1033792054+1032927206+1032843401+1033288601+1033562344
3148+1033417401+1033023239+1032390438+1031486366+1030484476+1029497286
3139+1028581949+1028064827+1028187650+1028535718+1028476024+1027993592
3131+1027560756+1027430170+1027506832+1027638791+1027698142+1027528470
3122+1027070561+1026483166+1025964326+1025456958+1024698310+1023543371
3114+1022062758+1020355251+1018483292+1016617104+1015141780+1014504788
3105+1014796116+1015531408+1016117842+1016431976+1016629331+1016703314
3097+1016667937+1016791173+1017186983+1017494248+1017273399+1016494006
3088+1015546452+1014887959+1014596081+1014221223+1013193091+1011303753
3080+1008719927+1005712058+1002500239+999365836+996877837+995715136+995925612
3070+996590837+996625733+995784104+994751782+994457363+995301603+996902910
3060+998635559+1000245041+1001638826+1002478257+1002608156+1002539119
3051+1002870701+1003511540+1003905289+1003794762+1003428833+1003090244
3043+1002704257+1002065960+1001292406+1000693264+1000286669+999897796+999641777
3033+999792284+1000244354+1000552511+1000455654+1000072277+999666713+999404717
3023+999330116+999496353+999916756+1000272243+999992937+998943373+997724275
3013+997002515+996838064+996864030+996725407+996176067+995127328+993737321
3003+992212332+990541164+988533811+985859859+981896124+975810593+966993271
2993+955490044+942254444+928923085+916833562+906110347+896096114+886621673
2983+878243643+871215298+865011546+859418546+855829875+856785329+863853654
2973+876098973+890726435+904972238+917265230+927091381+934445744+939593269
2963+943061452+945558724+947799428+950297937+953111817+955804591+957949536
2953+959608133+961003842+961979217+962269239+962044819+961627027+960856014
2944+959223108+956506910+952985628+949185313+945686562+943052315+941608247
2934+941233594+941574381+942529148+944344435+947203514+950894126+954873317
2924+958589207+961809407+964638880+967155524+969151337+970360406+970805538
2914+970874093+971138288+971969819+973167073+974123969+974489279+974467298
2904+974417358+974423059+974313494+973908066+973188848+972371743+971814091
2894+971719844+971920016+972020858+971733033+971002000+969943781+968751954
2884+967586918+966501702+965472678+964389867+962999929+961137175+959116771
2874+957658758+957335075+958229942+960034512+962248837+964346728+965993922
2864+967213364+968320904+969640707+971249983+972977273+974578375+975888697
2854+976926446+977854010+978699349+979204587+979174912+978832888+978586898
2844+978569724+978572060+978359317+978014683+977926619+978334038+979007163
2834+979581438+979989407+980316249+980508865+980507834+980431722+980449995
2825+980618774+980879190+981077164+981020767+980662394+980223513+980051849
2815+980308281+980806993+981223274+981441100+981627602+981960902+982369008
2805+982613899+982603389+982481665+982375053+982248108+982123430+982231622
2795+982758224+983533770+984105641+984161832+983874008+983718692+983913712
2785+984191301+984188829+983846668+983336277+982803836+982287950+981783124
2775+981306256+980889837+980542731+980283551+980186007+980337063+980793323
2765+981552177+982426848+983036981+983122985+982808507+982393326+982013727
2755+981615718+981127516+980581199+980123771+979888771+979846731+979868026
2745+979894954+979891176+979698010+979194420+978599469+978357806+978625366
2735+979037594+979079565+978572610+977719509+976820315+976118476+975786482
2725+975797885+975851328+975685846+975453457+975532111+975989951+976479528
2715+976643636+976465720+976251672+976351140+976841816+977474892+977951211
2706+978127272+977900721+977135342+975857373+974337055+972849435+971515482
2696+970421817+969625457+968974452+968213743+967329112+966464539+965541784
2686+964391585+963204016+962346794+961783097+961155860+960370971+959624276
2676+958932673+958122780+957256559+956618468+956258721+955913950+955422450
2666+954906358+954517623+954260505+954071736+953890661+953689733+953519236
2656+953449238+953502819+953734727+954177111+954578898+954519478+953957705
2646+953343176+953055969+953037834+953019631+952846592+952535000+952183566
2636+951853357+951550627+951398265+951679770+952500928+953525281+954291554
2626+954701996+954923188+954945926+954634608+954137613+953783362+953592326
2616+953368455+953209636+953378484+953727858+953835294+953664797+953567184
2606+953680116+953813381+953840514+953801428+953707730+953557842+953471220
2597+953589441+953873006+954122157+954221624+954318825+954682899+955354719
2587+956001740+956234404+956053397+955855011+955929956+956126556+956187418
2577+956193119+956298220+956266003+955825679+955257655+954976769+954838558
2567+954576700+954498664+954923532+955362206+955065726+954023032+952728303
2557+951412004+950143858+949260258+949089280+949486121+949999122+950302059
2547+950330567+950262285+950446108+951071766+951881316+952420969+952515766
2537+952347056+952217225+952358253+952779823+953248036+953537234+953637595
2527+953660813+953713432+953833851+953840308+953436873+952771167+952559936
2517+953242815+954301652+954859990+954755439+954655765+955251679+956576908
2507+958011841+958864873+959026371+958917080+958730646+958160905+957104403
2497+956108901+955816337+956331193+957219190+957797106+957611084+957004661
2487+956941326+957993843+959835645+961756857+963161701+963597766+962968261
2478+961871780+961218096+961338309+961785227+962079440+962321103+962921550
2468+963952772+964962837+965469793+965583137+965894798+966666291+967529215
2458+968178023+968761091+969278419+969354256+969008936+968911666+969493566
2448+970456301+971354465+972040573+972454037+972558313+972555497+972722971
2438+972999118+973045692+972755051+972472928+972672482+973524277+974763777
2428+975858472+976410422+976551312+976786861+977319233+977843431+978134690
2418+978321742+978433781+978297631+978040169+978091620+978617466+979427565
2408+980376905+981435811+982475139+983228704+983425853+982976600+982126109
2398+981265246+980562033+980020181+979813758+980171375+980951799+981646012
2388+981710927+980710892+978409326+974978375+970837068+966133988+960759431
2378+954951627+949344063+944165626+938858527+932742565+925785866+918615120
2368+911802540+905217679+898587548+892791902+889498613+889126158+890424322
2359+892538287+896167280+902162136+910263194+919445003+928193907+934527008
2349+936724847+934250174+928467100+922517100+919035935+918099578+918407049
2339+919100369+920149108+921737639+923441505+924520469+925134449+926242402
2329+928037011+929700349+930873079+932199614+934410848+937719731+942143642
2319+947549179+953077402+957379863+959898637+961435579+963169189+965533334
2309+968334162+971448712+974856513+978208536+980939640+982923912+984667964
2299+986662265+988787358+990528936+991579805+992125504+992720112+993870105
2289+995579467+997406363+999002312+1000304666+1001239237+1001768519+1002184318
2279+1002755365+1003198711+1003055005+1002372400+1001553165+1000884094
2271+1000623197+1001176727+1002781194+1005155506+1007711374+1009998720
2262+1011700869+1012373650+1011761937+1010368633+1009097465+1008405999
2254+1008309142+1008730850+1009376222+1010104920+1011634030+1014548683
2245+1017589456+1018638264+1017612194+1016689301+1017371149+1018777437
2237+1019292224+1018745906+1018198216+1018376612+1019168782+1020039331
2228+1020382797+1020185922+1020445720+1021945911+1023894393+1024829102
2220+1024375658+1023285291+1022409521+1022246375+1023006740+1024674611
2211+1026843874+1028741661+1029980817+1031027839+1032244602+1033091108
2203+1032966155+1031926072+1030335755+1028852600+1028212586+1028092166
2194+1027387305+1026134754+1025436350+1025459156+1025354880+1024933309
2186+1024917304+1025945779+1028141763+1031035258+1033647729+1035322950
2177+1036331298+1036964169+1036575708+1034669403+1032428700+1031630141
2169+1032428768+1033671841+1034832069+1036184707+1038017029+1040646124
2160+1043444685+1043796051+1040410713+1036508870+1035905606+1038823556
2152+1042905100+1045931998+1047133236+1046863477+1045445100+1042861686
2143+1039801404+1037462469+1035854636+1034191367+1033177318+1034700315
2135+1038914849+1043608313+1046657467+1047520391+1046565761+1044413603
2126+1041849080+1039659072+1038544181+1038957989+1040438396+1041493867
2118+1041064054+1039826202+1039180005+1039353387+1039412738+1038767503
2109+1037760323+1036989448+1036761111+1037110897+1037950740+1039111312
2101+1040207930+1040583751+1039837330+1038505369+1037697537+1037873667
2092+1038499668+1039008890+1039443856+1039960429+1040380144+1040551534
2084+1040562868+1040416826+1040190688+1040480161+1041712449+1043197390
2075+1044005771+1044446370+1045300020+1046183483+1046225592+1045804640
2067+1046153739+1047578093+1049063515+1049415705+1048153124+1045660866
2058+1043274532+1042898712+1045356967+1048709401+1049428070+1046287554
2050+1042228678+1041354145+1044543502+1049272411+1053251533+1056437249
2041+1059451507+1061400677+1060433614+1056573537+1052646552+1051334169
2033+1052479216+1054524899+1056684407+1057930777+1056501477+1052892955
2024+1050845485+1052597986+1055193696+1054336474+1050416496+1047917643
2016+1049904732+1055426497+1061173852+1063827470+1062472153+1059757398
2007+1058751180+1058938644+1057716454+1054837591+1052819659+1053848958
1999+1057518618+1060939333+1061228119+1058451952+1055516554+1054862938
1990+1055968143+1056609051+1055529469+1053078083+1050267913+1047951853
1982+1046782832+1047576376+1051075882+1056585008+1061162311+1062027846
1973+1059685820+1056742865+1054318064+1051842223+1049814057+1049922661
1965+1052110677+1054263865+1055124179+1055545955+1056793698+1058646217
1956+1059454598+1057878089+1054689419+1052558419+1053526718+1056948121
1948+1060330780+1061926042+1061882628+1061137857+1060317248+1059859407
1939+1060063151+1060617437+1060802840+1060392192+1059834334+1059458995
1931+1059235123+1059290834+1059776357+1060239968+1060006617+1059158531
1922+1058410049+1058007645+1057651402+1057450474+1057877814+1058662566
1914+1058928683+1058598475+1058690592+1059869574+1061386457+1062255358
1905+1062581032+1062833892+1062826198+1062178559+1061093481+1060079844
1897+1059448141+1059376288+1059939298+1060826882+1061402806+1061309658
1888+1061092794+1061841138+1063892111+1066212498+1067247224+1066572176
1880+1065331096+1064857319+1065412772+1066372347+1067101938+1067406592
1871+1067367025+1066950744+1066019264+1064955687+1064599857+1065193778
1863+1066077447+1066381140+1065867178+1065122818+1064993881+1065863399
1854+1067367712+1068736081+1069417242+1069428096+1069201546+1069168848
1846+1069522274+1070303591+1071374380+1072330796+1072861107+1072978504
1837+1072797772+1072253928+1071214188+1069740169+1068150196+1067102556
1829+1067264466+1068452103+1069834210+1070828407+1071386127+1071713656
1820+1071976408+1072325438+1072867015+1073449121+1073741823+1073577578
1812+1072986473+1072076288+1071171598+1070763698+1070963526+1071306374
1803+1071307954+1070968266+1070606253+1070414256+1070331549+1070173898
1795+1069754457+1069044444+1068348994+1068097371+1068283049+1068496685
1786+1068308671+1067528866+1066320553+1064906160+1063227504+1061110860
1778+1058679464+1056347605+1054455519+1053178444+1052753301+1053359794
1769+1054744717+1056374945+1057608606+1057872182+1056960829+1055145611
1761+1053011244+1050805025+1048184379+1044887380+1041101011+1036873219
1752+1031618738+1024745365+1016960021+1009714742+1002952927+995547662+987027438
1742+977456688+966588874+954877576+944046718+934277858+922904736+907973375
1732+892856886+880500490+869073307+857142053+844861700+832089435+818638070
1723+805447188+793267471+781001475+766742140+751094652+737877599+728629639
1713+722203252+717646008+714259364+711345673+708656747+706491262+704923889
1703+703226137+700199720+695422657+690358800+685975075+682137186+679417347
1693+677908913+676794503+675740749+675068174+674983544+676009271+679756760
1683+686338668+693360487+699936831+706305996+712943271+720616233+728963007
1673+736456131+743449374+752280434+763302809+773431965+781216073+788138012
1663+795912297+804383886+811881200+817644354+821997717+825666415+830734599
1653+840107856+850030795+855816343+859979769+866192520+875374947+884283425
1643+890926744+896044251+900419390+904387453+908639218+914559336+921958075
1633+928210943+932471913+935702211+938815868+942129766+945422506+948538842
1623+951573089+954192567+955777594+956506910+957514570+959771967+962306677
1613+963419095+962579733+959798551+955079877+948410385+939937560+930169592
1604+919539593+907238014+890555801+866449639+834975237+801900490+777373100
1594+769374395+777604047+795004173+813588363+828226198+837700434+843949660
1584+850073934+858044956+867482716+876905019+886151330+896520432+907201607
1574+915040532+919879075+924140733+929813486+936270098+941631053+945546291
1564+948263931+949489418+948947704+947849711+949564225+953542523+956629046
1554+958649726+960182065+961541503+962894691+964065979+964579598+964216486
1544+963264673+962260240+962176229+964646505+968680994+971413266+972279213
1534+972250156+972490994+973059774+973143854+972413165+971110329+969539591
1524+967598389+965134845+962838294+961540130+960776879+960011362+959395322
1514+958599099+956694648+953126449+947776965+940567545+932601469+927079291
1504+923445695+918233117+909540267+896364018+878021902+854966058+830867383
1494+810068936+792318818+774498015+755572968+739743856+731735946+730738520
1485+734481270+742881762+756635721+774569044+793408773+809654991+819645181
1475+818137296+799998856+768698454+736853452+711490410+693752932+687508857
1465+697668169+719372131+741066338+757308227+767588578+770445459+765839855
1455+760859323+761253416+767279733+775766160+781823595+782801512+780992133
1445+779639014+777836917+771972097+761104626+749937584+747444296+760620133
1435+783566754+804519074+820146916+831459106+838333854+840080584+836559439
1425+827767053+814301811+796778243+772781028+738335508+697934287+664043670
1415+641283757+628088617+624557855+631423878+647058314+668222484+692401530
1405+717094745+737749418+749847596+751171383+740338190+717093577+683943748
1395+646915089+617261538+605755907+613702749+636050434+665043981+687525412
1385+690617224+673885689+648090567+627052037+620956683+631024359+651037162
1375+674060239+695820116+713897763+726278889+730076730+722717284+706704486
1366+689792288+677338416+666719271+651153047+629963804+610199876+599637541
1356+602170053+616478435+637656619+661048509+684271552+706334092+726607723
1346+744689767+760282712+773265247+784087037+793615265+802263327+809557034
1336+814852868+817969204+819047275+818360618+816503634+814544641+813637273
1326+814517027+817567623+823083550+831131646+841178439+851858446+861327324
1316+868348319+872942039+875497152+875003591+868303462+851855836+825367256
1306+794289901+767902849+753745386+753304513+762292606+774449174+785010823
1296+791448544+792455174+786816561+772581887+747036601+708613332+660193348
1286+610076297+567868239+538802084+522223460+514718074+513729236+518327525
1276+527835969+541015825+556556186+573603778+591635195+610112430+628370809
1266+645747373+661806676+676500977+690080387+702771731+714497386+724772859
1256+732622912+736538837+734852419+726693865+713172981+697940813+686115965
1247+681657638+685170540+694054220+704636752+714313975+722341669+729329417
1237+736132448+742897973+748781752+752263124+751646396+745515596+733144363
1227+714796683+691729367+665933558+640070154+617669575+602685046+597838260
1217+603074330+615836566+632743681+650935496+668503302+684479830+698566677
1207+710704422+720984841+729963592+738648955+747871636+757741407+767719576
1197+776917802+784148448+787922178+786884086+780805493+771487329+762476292
1187+757306029+757544189+762259496+768996651+775110346+778751635+779437056
1177+778109972+776742359+777632554+782324094+790535474+800167978+808536459
1167+813595714+814261419+810219443+801852885+790163912+776388040+761561779
1157+746565572+732661518+721833202+716322702+717651641+725988317+740316963
1147+759051936+780434001+802560150+823444052+841263138+854397553+860991277
1137+858500324+844341624+818368792+785520938+754840012+733647678+721780171
1128+712402450+699239801+682513693+667242919+656531382+648056564+637588681
1118+624752051+614100963+610931596+617139607+630873302+648661751+667102167
1108+683194717+693989923+696492348+688782772+672256905+652728389+638152171
1098+634147083+641201806+655719085+673244438+690806337+707080100+721319514
1088+732391416+738663106+739216292+735741653+732633491+733918535+739872931
1078+747272150+752820706+755721208+757309120+759325403+762881788+768356430
1068+775488365+783490299+791443460+798775292+805312893+811031190+815991733
1058+820412965+824511132+828341603+831986876+835723237+839778334+844102709
1048+848481214+852623963+856112342+858112344+856422148+847407676+829714505
1038+809052826+795788306+794566253+797609912+790772328+766553302+731327359
1028+700702623+687707724+694427499+713605542+736294083+757048361+774007064
1018+787234216+797663767+806367746+814005262+820730327+826471774+831279611
1009+835413156+839042424+841914762+843479387+843547393+842794172+842240024
999+842232056+842509301+843238205+845146640+848471803+852474762+856142361
989+858957889+860993337+862548208+863760780+864491127+864350374+862527875
979+857929346+850459235+842468910+838012232+839715137+846485333+854743767
969+861572146+866195199+869041639+870562575+871107038+871076263+870720982
959+870051017+869047272+867653281+865532584+862296516+858248632+854580346
949+852446735+851896915+851931193+851562928+850569006+849137096+847116348
939+844026459+839776480+835038641+830838463+827948540+826580996+826303201
929+826182163+825371034+823882177+822665415+822578586+823223066+822915252
919+819794726+813163977+804305713+796161791+791557560+791117236+792910747
909+794176488+793106179+789135850+782391688+773349602+762585652+750493656
899+737481583+724533807+713171676+704560021+698521133+693401635+687392147
890+680533611+675116946+673709560+677219851+684990770+695786182+708114688
880+720351833+731299126+740641127+748866657+756789182+764888935+772989169
870+780650041+787764527+794565223+801151047+807177364+811899610+814352987
860+813691403+809954012+804894483+801666383+802869682+808598146+816627969
850+824522467+831307501+837272818+842837586+847996240+852543936+856421530
840+859839841+863241803+867062176+871310026+875436221+878898702+881885963
830+885142845+889005808+892984930+896433329+899260329+901746199+903933391
820+905560526+906406140+906017542+902666482+892727262+871531768+835982211
810+788574214+739843873+704202336+690058336+694458067+708820717+727651791
800+749543079+772817504+794316210+811954702+825928411+837239434+846328644
790+853216923+858143462+861607661+863898854+864846133+863975172+860446952
781+852313058+835724611+805911829+761235899+707579500+657197431+621211260
771+603287417+600794746+609898038+627617313+650690192+675388765+698938582
761+720314533+739780126+758020301+775382371+791562918+806060962+818965736
751+831081775+843181121+855229153+866352163+875304880+880144728+876759458
741+859577021+827736828+791286634+767056823+765531491+783051555+807504618
731+829007652+844056684+853106396+857727456+859384817+858673911+855214590
721+848732219+840021852+830349024+820120881+808781969+796002354+782536562
711+769808605+758977541+750492969+743572128+734566518+716218082+682269695
701+636025155+592774403+570223076+575561225+602137561+636999637+670115806
691+697663842+719424063+735314450+745222345+751281017+757976681+768706697
681+783125538+798583432+813051869+825852848+836434761+842892747+841984348
671+831188936+811106959+790256785+784472337+794861291+809304724+822212452
662+833386638+842784624+849173160+849494851+838322657+811601550+774420048
652+742865413+732856469+746563374+772617332+798436497+818759794+834051382
642+845728608+852775775+850565640+835129316+811206083+793014474+792533690
632+808411163+829645537+847304293+859396426+867450773+872822651+875974157
622+876943075+876165193+875066171+875065758+875705910+874339122+867604303
612+852652265+827985772+795340014+761427003+736213987+727419677+735680996
602+755017309+777806348+799225988+817985072+834315919+848187550+859320246
592+867999426+875256176+882276965+889632152+896914594+903323670+908838635
582+914320559+920212443+925829212+930174881+932910245+934520413+935789589
572+936708979+935440353+928507148+912351605+884248735+842173735+787408422
562+729531375+685045587+666202904+671098050+685209627+691435154+680333302
552+654857878+627663612+612585454+615889872+634354124+660232159+686617356
543+709745603+728540269+742749321+751959568+756334913+757322859+757026517
533+757010923+757565758+757838058+757046987+756038983+757239466+762181598
523+769755024+777636264+784448638+790733585+798163373+807218855+816293845
513+823614892+829087268+833840150+838569815+843140455+847582913+852102513
503+855862161+857496235+857538138+858268828+860795432+863928529+865851321
493+866304833+866937566+869596268+874427873+879794461+883700700+885325295
483+885693559+886683840+889096208+891958929+893944574+895220070+897118475
473+900080870+902925661+904597585+905374574+905898703+906586185+907806519
463+909360360+910144218+909562318+908824347+909318938+910174099+910164826
453+910331956+911850832+913682673+914649187+916027997+919551683+924207503
443+927416849+928748192+929876959+931069473+930784396+928834333+927269296
433+926822516+925336063+921334341+916148691+910643205+901853772+885225415
424+859936767+828207788+789324344+744853325+711693742+703104412+710555427
414+723472016+738082030+753444647+768300239+781363763+792889040+804588386
404+817341897+829146756+835436649+831600065+818924039+807948995+806445781
394+813140965+824950219+838112936+846228970+843269117+829387182+813052076
384+805239323+808177949+815346978+821665379+825313194+822394351+806725500
374+783431703
##END=
