##TITLE=DMEG4NMe2qu_CuBr
##JCAMP-DX=5.0
##DATA TYPE=LINK
##BLOCKS=1


$$ === CHEMSPECTRA SPECTRUM ORIG ===
##TITLE=DMEG4NMe2qu_CuBr
##JCAMP-DX=5.00
##DATA TYPE=INFRARED SPECTRUM
##DATA CLASS=XYDATA
##$CSCATEGORY=SPECTRUM
##ORIGIN=
##OWNER=
##XUNITS=1/CM
##YUNITS=TRANSMITTANCE
##XFACTOR=0.12501352010900002
##YFACTOR=0.003817925155929477
##FIRSTX=4000.433
##LASTX=249.7859
##MAXX=4000.433
##MAXY=122.17360498974327
##MINX=249.7859
##MINY=51.1220178378957
##NPOINTS=3890
##XYDATA= (X++(Y..Y))
3890B5672B5699B5719B5706B5714B5731B5731B5739B5735B5694B5701B5736B5745B5728
3876B5732B5735B5741B5725B5717B5753B5747B5717B5726B5729B5716B5731B5757
3863B5736B5688B5679B5760B5768B5742B5742B5695B5708B5748B5730B5698B5684
3850B5714B5744B5712B5696B5718B5758B5782B5805B5774B5744B5770B5734B5763
3837B5794B5745B5798B5805B5759B5729B5724B5860B5884B5804B5746B5757B5790
3824B5779B5760B5758B5728B5735B5862B5825B5777B5814B5800B5749B5719B5782
3811B5864B5821B5789B5758B5816B5862B5799B5838B5945B5868B5805B5800B5769
3798B5744B5759B5818B5810B5767B5738B5788B5830B5998B5892B5939B5964B5790
3785B5942B5979B5852B5791B5774B5813B5811B5740B5916B6075B5892B5810B5745
3772B5739B6106B6013B5847B5828B5754B5834B6121B5913B5815B5821B5797B5782
3759B5944B5946B5834B5766B5834B6150B5960B5836B5753B5819B6045B5936B5859
3746B5962B5945B5870B5817B5821B5893B5787B5739B6423B6231B6243B6062B5911
3733B5926B5909B5879B5842B5780B5857B6009B5881B5850B5984B5887B5836B6269
3720B6024B5912B6102B5972B5833B5989B6022B5905B5871B5850B5949B5978B5892
3707B5877B5796B5755B6148B6285B6001B5868B5774B6052B6324B6007B5889B5889
3694B5899B5904B5902B5862B5941B6274B6037B5925B5884B5875B6002B6339B6045
3681B5938B5926B5997B6057B5991B5951B5945B5942B5955B5944B5949B5956B5939
3668B5920B5945B5996B5980B5944B5921B5855B5974B6062B5981B5915B5901B5946
3655B5972B5926B5868B5824B6122B6206B5975B5831B5932B6121B6001B5941B5934
3642B5853B5833B6133B6079B5941B6075B6104B5974B5798B5828B6375B6069B6133
3629B6385B6073B5890B5734B6180B6922B6294B6018B6112B6087B5998B6098B6165
3616B6171B6276B6527B6108B6088B6297B6103B5954B5886B5905B6134B6168B6135
3603B6041B6117B6299B6070B5969B6108B6105B6047B6043B6064B6012B5920B6197
3590B6203B6013B6124B6116B6057B6047B6043B6034B6000B5989B6105B6078B6036
3577B6020B6029B6052B6053B6023B6031B5999B6001B6239B6082B6012B6384B6154
3564B6017B6005B6047B6024B6005B5989B6015B6092B6053B5953B5956B6354B6579
3551B6209B5982B5904B6173B6143B6134B6104B6018B5982B5986B5985B5958B5951
3538B5969B5990B5967B5876B5827B6198B6232B6016B5962B5884B5883B6091B6315
3525B6137B6123B6302B6048B5888B5839B5927B5994B5927B5875B5893B5955B5932
3512B5850B5812B5947B6063B5937B5763B5675B6158B6546B6240B6054B6035B5977
3499B5968B5974B5980B5944B6091B6147B6165B6033B5883B6002B5981B6085B6219
3486B6001B5920B6187B6076B6072B6091B5980B5964B6015B6037B6026B6031B5966
3473B5952B5923B5919B6063B6073B6043B6068B5945B5855B5832B6108B6157B6156
3460B6152B5980B5918B5944B5950B5914B5974B5982B5917B5911B5876B5858B5919
3447B5916B5900B5856B5890B5796B5877B6017B6053B6124B5927B5874B5892B5898
3434B5892B5932B5888B5861B5867B5865B5841B5833B5841B5921B5928B5862B5813
3421B5796B5848B5849B5881B5916B5857B5794B5771B5816B5836B5810B5743B5795
3408B5875B5872B5827B5790B5780B5791B5739B5753B5772B5808B5808B5779B5744
3395B5778B5793B5769B5734B5716B5699B5713B5755B5789B5805B5793B5747B5735
3382B5678B5657B5701B5730B5712B5669B5646B5642B5726B5771B5720B5672B5686
3369B5690B5649B5688B5709B5671B5672B5685B5681B5675B5639B5648B5672B5662
3356B5665B5688B5647B5618B5621B5620B5626B5588B5562B5587B5600B5637B5656
3343B5642B5630B5605B5572B5548B5566B5573B5568B5575B5584B5583B5585B5570
3330B5563B5569B5532B5543B5587B5598B5581B5583B5620B5609B5578B5561B5527
3317B5468B5507B5568B5572B5552B5554B5555B5582B5610B5575B5567B5566B5531
3304B5522B5549B5560B5565B5561B5564B5550B5543B5531B5534B5544B5566B5539
3291B5533B5557B5518B5528B5535B5490B5472B5504B5545B5557B5525B5519B5560
3278B5555B5517B5534B5519B5522B5542B5505B5501B5526B5547B5512B5487B5492
3265B5471B5485B5512B5491B5458B5466B5506B5505B5492B5477B5462B5488B5493
3252B5458B5459B5444B5457B5488B5478B5455B5481B5507B5484B5447B5423B5439
3239B5455B5455B5490B5514B5471B5471B5481B5456B5459B5498B5489B5450B5443
3226B5491B5502B5476B5482B5502B5499B5497B5509B5508B5489B5446B5445B5462
3213B5467B5473B5506B5519B5480B5479B5513B5529B5524B5506B5492B5507B5526
3200B5517B5519B5546B5550B5510B5524B5523B5479B5465B5500B5496B5471B5478
3187B5502B5491B5493B5480B5470B5493B5470B5475B5473B5443B5460B5461B5461
3174B5455B5440B5462B5470B5501B5518B5492B5507B5498B5494B5528B5561B5560
3161B5571B5577B5553B5538B5569B5586B5595B5586B5601B5621B5624B5629B5642
3148B5664B5666B5676B5685B5656B5641B5659B5661B5659B5696B5692B5644B5675
3135B5715B5730B5763B5763B5742B5752B5768B5751B5738B5790B5815B5765B5774
3122B5803B5791B5791B5809B5805B5797B5798B5821B5831B5848B5870B5865B5866
3109B5858B5853B5851B5847B5849B5861B5868B5906B5938B5928B5913B5888B5920
3096B5929B5909B5920B5917B5912B5943B5958B5985B5972B5942B5960B5983B5986
3083B5992B5982B5952B5961B5963B5950B5962B5956B5921B5948B5979B5960B5951
3070B5993B6014B6009B5995B5989B5999B6018B5994B6007B6041B6035B6029B6015
3057B6002B5985B5990B5999B5983B5997B5995B5957B5964B5990B6006B5988B5977
3044B5981B5975B5966B5952B5976B5983B5971B6039B6054B6049B6032B6024B6058
3031B6057B6029B6009B6051B6112B6113B6082B6078B6092B6108B6076B6053B6083
3018B6101B6126B6134B6133B6108B6067B6037B6043B6081B6131B6171B6176B6157
3005B6150B6150B6156B6164B6154B6122B6103B6116B6132B6138B6127B6161B6214
2992B6217B6186B6184B6164B6128B6155B6207B6191B6160B6190B6207B6187B6154
2979B6124B6114B6099B6083B6092B6100B6091B6085B6127B6134B6131B6134B6104
2966B6075B6097B6135B6150B6132B6145B6145B6117B6118B6105B6099B6099B6107
2953B6070B6063B6060B6021B5990B5987B5960B5967B5986B5956B5941B5937B5920
2940B5916B5917B5926B5921B5904B5893B5921B5933B5923B5921B5928B5919B5930
2927B5946B5964B5946B5921B5879B5891B5941B5940B5952B5961B5950B5943B5941
2914B5935B5926B5889B5873B5899B5939B5962B5944B5917B5921B5949B5980B5971
2901B5949B5949B5936B5920B5916B5930B5920B5921B5945B5974B5971B5912B5895
2888B5917B5919B5948B5959B5941B5949B5963B5962B5934B5913B5910B5939B5960
2875B5980B5963B5913B5853B5818B5823B5847B5853B5854B5841B5815B5805B5835
2862B5874B5893B5890B5896B5876B5832B5835B5879B5893B5900B5870B5822B5810
2849B5830B5840B5823B5825B5843B5849B5840B5815B5807B5798B5787B5798B5784
2836B5771B5755B5717B5708B5712B5713B5711B5690B5655B5602B5590B5566B5531
2823B5529B5512B5487B5440B5401B5379B5355B5336B5293B5262B5220B5169B5148
2810B5131B5077B5014B5012B5055B5034B4992B4991B5004B5002B5001B4996B4983
2797B4963B4962B4960B4952B4966B4972B4945B4925B4918B4904B4875B4835B4827
2784B4808B4767B4756B4723B4668B4646B4640B4642B4635B4620B4610B4609B4617
2771B4617B4634B4639B4638B4654B4683B4698B4699B4730B4785B4810B4845B4905
2758B4903B4886B4916B4931B4916B4916B4924B4927B4910B4887B4865B4850B4823
2745B4797B4776B4760B4736B4723B4702B4694B4704B4684B4652B4640B4638B4609
2732B4595B4598B4606B4604B4588B4567B4552B4516B4503B4496B4483B4475B4475
2719B4477B4497B4500B4506B4545B4592B4642B4645B4635B4674B4713B4699B4699
2706B4712B4711B4738B4784B4778B4779B4800B4816B4860B4877B4882B4935B5014
2693B5062B5105B5149B5212B5275B5298B5319B5342B5369B5418B5486B5522B5536
2680B5568B5581B5615B5636B5637B5657B5666B5673B5659B5666B5672B5667B5654
2667B5629B5631B5644B5636B5638B5655B5664B5655B5656B5644B5627B5628B5617
2654B5591B5582B5580B5550B5542B5569B5553B5524B5539B5526B5498B5526B5545
2641B5536B5576B5606B5598B5585B5591B5622B5649B5684B5718B5736B5760B5778
2628B5805B5821B5830B5862B5896B5896B5899B5913B5894B5881B5920B5961B5959
2615B5957B5964B5972B5983B5991B5990B6000B5997B5982B5978B5992B5998B5995
2602B6014B6011B5991B5996B5998B5993B5990B5999B6001B6005B5997B5999B6018
2589B6045B6061B6076B6075B6040B6031B6047B6069B6064B6043B6043B6035B6035
2576B6057B6051B6046B6059B6047B6037B6048B6050B6052B6078B6075B6046B6051
2563B6071B6086B6100B6084B6076B6084B6084B6092B6101B6088B6086B6086B6077
2550B6067B6064B6071B6073B6073B6070B6071B6080B6069B6054B6055B6058B6060
2537B6072B6069B6065B6062B6057B6052B6052B6061B6050B6043B6053B6049B6041
2524B6030B6021B6010B6014B6002B6002B6002B5998B5996B5990B5968B5952B5960
2511B5970B5970B5968B5959B5946B5938B5933B5930B5948B5957B5967B5964B5946
2498B5950B5971B5976B5974B5974B5968B5974B5988B5994B5990B5978B5986B5994
2485B5993B6002B6020B6011B5985B5992B5993B5973B5995B6018B5997B6003B6017
2472B6039B6053B6059B6060B6062B6053B6048B6036B6034B6048B6050B6054B6048
2459B6085B6107B6081B6071B6075B6084B6096B6106B6086B6077B6103B6120B6143
2446B6128B6118B6115B6079B6098B6124B6116B6127B6130B6137B6139B6140B6139
2433B6121B6106B6114B6155B6152B6106B6123B6126B6081B6094B6125B6118B6112
2420B6086B6054B6064B6082B6086B6076B6090B6122B6136B6087B6053B6088B6117
2407B6117B6102B6096B6094B6118B6157B6130B6107B6119B6120B6141B6147B6121
2394B6087B6124B6125B6103B6105B6111B6100B6097B6098B6079B6064B6106B6150
2381B6129B6087B6061B6055B6069B6099B6138B6128B6131B6179B6163B6105B6103
2368B6113B6133B6168B6180B6153B6160B6178B6158B6146B6131B6110B6090B6061
2355B6056B6128B6148B6135B6105B6104B6080B6053B6096B6173B6175B6122B6174
2342B6226B6187B6139B6150B6166B6175B6177B6172B6170B6155B6129B6135B6156
2329B6136B6136B6138B6149B6123B6108B6143B6162B6140B6115B6123B6139B6133
2316B6137B6167B6152B6129B6140B6154B6147B6116B6105B6116B6150B6184B6164
2303B6130B6144B6139B6107B6112B6134B6162B6166B6159B6123B6115B6117B6117
2290B6102B6089B6102B6107B6102B6092B6126B6130B6123B6108B6108B6116B6089
2277B6108B6121B6118B6074B6100B6139B6133B6122B6110B6131B6135B6110B6110
2264B6100B6120B6118B6112B6107B6107B6087B6105B6140B6107B6099B6131B6132
2251B6098B6085B6127B6115B6091B6129B6156B6156B6176B6178B6192B6184B6154
2238B6132B6155B6166B6156B6146B6154B6153B6114B6102B6113B6108B6102B6108
2225B6108B6106B6110B6089B6075B6067B6055B6079B6100B6077B6058B6052B6029
2212B6020B6037B6045B6030B6054B6072B6058B6067B6077B6043B6029B6046B6044
2199B6036B6059B6057B6026B6064B6108B6039B6024B6049B6046B6058B6057B6054
2186B6056B6095B6087B6104B6064B6043B6079B6058B6004B5932B5914B5934B6000
2173B6013B5984B5941B5924B5957B5945B5944B5934B5947B5999B6013B6016B5981
2160B5985B6022B6044B6034B6027B5992B5957B5917B5932B5951B6006B5996B6007
2147B5957B6009B5984B6028B5968B6043B6013B6073B5987B6030B5977B6032B5997
2134B5995B5972B5936B5982B5985B5981B5929B5955B5958B5947B5947B5945B5943
2121B5958B5946B5933B5938B5939B5937B5967B5974B5949B5936B5908B5918B5926
2108B5917B5943B6005B6029B6006B5980B5961B5951B5942B5956B5971B5972B5963
2095B5933B5941B5962B5990B6022B6039B6048B6026B6010B6063B6094B6064B6019
2082B6005B6042B6072B6056B6064B6041B5988B5993B6053B6023B5967B6090B6283
2069B6280B6130B6007B5987B6014B6011B5946B5970B6064B6015B6038B6069B6063
2056B6064B6041B6034B6122B6126B6112B6049B6032B5967B5975B6106B6166B6045
2043B5974B5995B5949B5908B5933B6037B6005B5957B5958B5979B5989B6007B6049
2030B6057B6044B6018B6026B5938B5869B5921B6121B6271B6193B6110B5990B6015
2017B6018B6062B5967B5885B5996B6013B6020B5902B5911B6105B6035B6004B6117
2004B6185B6116B6208B6129B5924B5922B5932B5936B6033B6116B6106B6086B6132
1991B6148B6115B5960B5866B5943B6013B5937B5938B5857B5817B6051B6397B6686
1978B6563B6469B6328B6347B6355B6225B6114B6139B6148B6057B6164B6172B5915
1965B5895B6046B6219B6167B6078B6256B6279B6124B6037B6028B6029B6154B6154
1952B6128B6105B6183B6262B6160B6014B6016B6030B6027B6004B5983B5956B5972
1939B5976B5953B5922B5870B5906B6004B6053B6065B6024B6057B6100B6046B6023
1926B6028B6021B6049B6003B5964B6040B6047B6011B6049B6040B6049B6083B6046
1913B5999B5976B5960B6005B6036B6064B6010B6011B6012B5982B5916B5881B5969
1900B6022B5942B5914B5959B6002B5981B5963B5939B5945B6012B6043B5997B5915
1887B6015B6131B6056B5935B5942B5962B5918B6009B6083B6058B6042B6099B6095
1874B6009B5978B5957B5868B5919B5914B5805B5829B5960B6039B6078B6035B6001
1861B5905B5873B5979B6002B5857B5956B5960B5844B6121B6218B5984B5887B5808
1848B5838B5800B5856B5884B5856B5874B6005B6066B5918B5852B5788B5851B5997
1835B5934B5791B5815B5917B5906B5906B5970B6142B6134B5974B6055B6234B6217
1822B6152B6004B5914B5864B5922B6206B6171B6033B6065B5901B5965B6048B5972
1809B5868B5808B5901B5975B5938B5959B6087B6120B6005B5904B5933B5992B6078
1796B6184B6104B6071B6174B6228B6018B6025B6248B6222B6367B6552B6448B6257
1783B6139B6088B6037B5949B6041B6143B6148B6174B6097B5972B6003B6016B5961
1770B6059B6169B6164B6063B6073B6106B6026B5982B6076B6059B5943B5908B5902
1757B5929B5989B5940B5904B5931B5945B5913B5938B5953B5944B5870B5909B5955
1744B5943B5924B5941B5996B6004B6012B6030B5985B6018B6030B6028B6090B5996
1731B5975B6091B6071B6035B6042B6055B6034B6036B6012B6005B6013B6045B6032
1718B6037B6070B6063B6053B6062B6088B6082B6083B6073B6031B6017B6066B6107
1705B6095B6086B6070B6059B6141B6177B6159B6142B6103B6104B6098B6096B6101
1692B6124B6127B6110B6096B6101B6096B6094B6130B6191B6187B6169B6144B6187
1679B6192B6173B6168B6188B6180B6166B6148B6171B6158B6171B6202B6208B6200
1666B6193B6182B6168B6140B6126B6112B6125B6124B6135B6133B6077B6055B6222
1653B6225B6183B6176B6173B6170B6145B6168B6203B6193B6179B6192B6198B6162
1640B6135B6235B6248B6218B6171B6171B6253B6202B6181B6190B6176B6174B6176
1627B6178B6194B6191B6177B6157B6183B6207B6204B6240B6225B6197B6205B6198
1614B6203B6218B6194B6198B6230B6193B6245B6293B6202B6166B6220B6197B6058
1601B6169B6302B6294B6292B6214B6181B6175B6160B6169B6199B6166B6155B6142
1588B6179B6164B6148B6135B6115B6133B6112B6038B6094B6160B6160B6090B6059
1575B6149B6116B6065B6041B6020B5980B6010B6080B6004B5979B5954B5957B6005
1562B5964B5926B5899B5838B5919B5979B5881B5895B5911B5908B5887B5854B5860
1549B5921B5888B5815B5894B5942B5873B5864B5803B5731B5969B6102B5966B5891
1536B5904B5951B5903B5894B5894B5886B5865B5904B5932B5924B5905B5846B5827
1523B6035B6061B5962B6014B6064B6052B6031B6020B6058B6057B6007B5996B6074
1510B6066B6094B6084B6011B5914B6273B6380B6089B5995B5978B6312B6154B6066
1497B6047B6018B5998B6031B6047B6074B6025B5930B5930B6162B6203B6091B6030
1484B6084B6103B6080B6042B5970B6122B6168B6072B6025B6051B6011B6036B6162
1471B6093B6065B6051B6036B5987B6081B6112B6067B6044B6051B6049B6052B6032
1458B5985B5934B6132B6355B6126B6064B6019B6013B6055B6098B6155B6082B6059
1445B6061B6064B6046B6040B5994B5993B5942B5973B6194B6038B5977B5959B5952
1432B5906B5829B5792B5805B5744B5662B5575B5698B5683B5592B5536B5491B5388
1419B5306B5535B5429B5310B5254B5195B5123B4986B4892B4810B4671B4535B4343
1406B4107B3851B3559B3231B2953B2645B2528B2340B2179B2066B1977B1915B1866
1393B1772B1615B1415B1189B0937B0724B0604B0633B0817B1127B1467B1795B2052
1380B2241B2324B2324B2274B2385B2226B2006B1761B1490B1113B0779B0387B0066
1367A9729A9357A8957A8531A8175A7811A7530A7246A6764A6493A6399A6377A6361
1354A6312A6287A6269A6279A6310A6355A6393A6447A6524A6633A6797A6994A7147
1341A7439A7654A7802A8360A8850A9075A9338A9591A9760B0016B0105B0050A9922
1328A9697A9339A8863A8374A7785A7041A6603A6054A5486A4926A4556A4343A4154
1315A3739A3567A3458A3390A3433A3572A3783A4073A4444A4851A5253A5930A6685
1302A7177A7602A8008A8489A8904A9220A9660A9963B0210B0657B0836B1087B1297
1289B1374B1427B1592B1715B1723B1707B1664B1558B1521B1429B1358B1291B1238
1276B1163B1083B0979B0916B0915B0852B0759B0672B0473B0217A9905A9608A9362
1263A9197A9062A8926A8804A8761A8764A8888A9042A9259A9503A9822B0242B0418
1250B0595B0756B0920B1079B1188B1261B1321B1443B1559B1695B1876B2057B2216
1237B2289B2440B2672B3037B3232B3626B4175B4278B4421B4620B4759B4762B4790
1224B4798B4655B4352B4063B3691B3305B2710B2138B1476B0938B0227A9558A9233
1211A8910A8545A8204A7873A7612A7468A7613A7968A8417A8802A9109A9349A9716
1198B0144B0455B0497B0591B0480B0339A9798A9221A8588A7935A7220A6686A6335
1185A6048A5874A5843A5913A6068A6248A6448A6653A6887A7125A7406A7671A7951
1172A8234A8529A8811A9081A9350A9648A9951B0220B0472B0740B0997B1285B1565
1159B1833B2077B2315B2543B2823B3023B3235B3435B3627B3821B4001B4101B4215
1146B4331B4422B4487B4539B4528B4492B4446B4391B4285B4205B4160B4128B4140
1133B4196B4297B4465B4636B4767B4910B5069B5189B5321B5440B5565B5678B5785
1120B5878B5960B6019B6064B6101B6107B6101B6089B5842B5715B5565B5367B5103
1107B4800B4479B4136B3799B3450B3100B2712B2272B1942B1448B0935B0432A9956
1094A9544A9202A8936A8754A8671A8661A8710A8803A8914A9018A9090A9098A9051
1081A9020A9078A9238A9474A9781B0142B0524B0895B1258B1617B1952B2274B2569
1068B2842B3084B3304B3531B3752B3930B4092B4255B4397B4511B4623B4729B4822
1055B4896B4948B5006B5068B5113B5132B5153B5192B5230B5253B5267B5273B5266
1042B5257B5227B5176B5101B5000B4889B4753B4614B4465B4294B4143B4019B3904
1029B3813B3715B3629B3568B3524B3490B3429B3341B3261B3173B3081B3008B2960
1016B2935B2935B2957B3038B3170B3345B3571B3824B4057B4222B4337B4438B4503
1003B4534B4505B4390B4162B3824B3409B2890B2306B1772B1378B1205B1240B1433
990B1741B2113B2455B2761B3034B3253B3420B3543B3621B3674B3710B3768B3853
977B3958B4059B4185B4315B4423B4494B4522B4498B4443B4340B4216B4085B3942
964B3792B3669B3604B3587B3635B3758B3933B4150B4360B4563B4771B4948B5089
951B5225B5345B5453B5559B5661B5721B5746B5780B5805B5789B5744B5660B5492
938B5303B5098B4869B4679B4559B4522B4539B4599B4699B4809B4887B4924B4940
925B4927B4880B4791B4674B4546B4386B4200B3989B3756B3530B3290B3049B2842
912B2664B2565B2600B2726B2909B3157B3431B3729B4018B4293B4544B4744B4910
899B5058B5179B5294B5364B5424B5479B5512B5518B5515B5485B5469B5422B5344
886B5288B5244B5160B5068B4988B4899B4786B4708B4684B4672B4703B4740B4746
873B4759B4705B4573B4419B4240B4050B3869B3694B3567B3504B3471B3455B3489
860B3567B3692B3863B4069B4248B4427B4596B4719B4816B4872B4863B4785B4657
847B4511B4319B4117B3992B3949B3959B3985B4024B4092B4189B4315B4444B4572
834B4677B4751B4772B4752B4686B4543B4355B4133B3888B3659B3433B3238B3127
821B3119B3198B3388B3673B3979B4237B4508B4763B4969B5126B5282B5429B5531
808B5597B5671B5721B5762B5796B5843B5898B5932B5936B5978B6031B6062B6064
795B6069B6096B6132B6144B6182B6251B6276B6283B6307B6310B6310B6304B6288
782B6251B6168B6030B5851B5635B5330B4928B4420B3793B3096B2314B1511B0768
769B0127A9683A9509A9631B0010B0562B1178B1745B2203B2505B2673B2698B2580
756B2341B2017B1660B1266B0841B0429B0043A9724A9443A9181A8950A8761A8637
743A8680A8897A9266A9725B0237B0751B1234B1683B2084B2442B2778B3071B3294
730B3497B3711B3901B4051B4195B4355B4467B4558B4633B4741B4835B4896B4969
717B5024B5069B5112B5140B5178B5232B5307B5370B5433B5457B5438B5434B5475
704B5515B5529B5522B5505B5538B5550B5534B5492B5423B5363B5293B5270B5298
691B5350B5356B5379B5455B5494B5525B5593B5649B5664B5643B5659B5688B5714
678B5743B5757B5750B5753B5767B5810B5873B5911B5908B5916B5940B5965B6010
665B6061B6079B6108B6115B6141B6195B6227B6229B6254B6270B6277B6275B6296
652B6308B6306B6298B6287B6263B6243B6218B6217B6195B6114B6050B6003B5913
639B5812B5710B5566B5426B5294B5151B5005B4848B4737B4659B4617B4574B4530
626B4457B4368B4256B4115B3918B3709B3509B3305B3122B2999B2922B2939B3024
613B3172B3332B3482B3637B3795B3922B4028B4080B4117B4127B4088B4016B3914
600B3782B3594B3335B3083B2801B2472B2221B2065B1967B1930B1903B1896B1961
587B2093B2206B2201B2048B1687B1140B0458A9766A9287A9012A8953A9140A9566
574B0104B0611B1056B1383B1498B1456B1463B1556B1675B1840B2126B2528B2925
561B3300B3639B3958B4244B4503B4701B4874B5010B5095B5189B5280B5298B5283
548B5279B5210B5078B4969B4806B4631B4440B4167B3764B3228B2640B2140B1837
535B1741B1748B1726B1627B1454B1201B0888B0596B0456B0398B0418B0570B0656
522B0652B0722B0975B1425B2006B2608B3072B3431B3777B4077B4328B4509B4655
509B4793B4830B4800B4765B4611B4322B3971B3610B3280B3124B3318B3732B4149
496B4482B4788B5034B5184B5264B5360B5477B5555B5584B5567B5603B5685B5712
483B5736B5736B5784B5820B5794B5704B5605B5429B5173B4786B4248B3659B3266
470B3213B3431B3677B3886B4105B4355B4611B4811B4992B5179B5357B5456B5468
457B5532B5570B5582B5586B5606B5625B5619B5609B5597B5618B5645B5641B5625
444B5629B5629B5644B5709B5786B5817B5837B5880B5937B5968B6134B6077B6079
431B6104B6080B6071B6079B6095B6108B6122B6104B6118B6121B6104B6126B6158
418B6135B6133B6149B6141B6135B6126B6121B6128B6100B6075B6082B6059B6032
405B6028B5896B5723B5576B5413B5334B5325B5227B5191B5245B5327B5366B5460
392B5571B5684B5746B5807B5882B5918B5920B5909B5875B5757B5627B5456B5252
379B5147B5126B5146B5276B5400B5450B5571B5702B5714B5636B5539B5428B5251
366B5003B4652B4265B3903B3788B4086B4615B5083B5414B5597B5633B5708B5772
353B5810B5857B5894B5872B5794B5708B5559B5456B5319B5076B4892B4582B3993
340B3314B2685B2259B2234B2519B2944B3523B4032B4326B4580B4842B4968B5059
327B5149B5118B5089B5017B4777B4609B4620B4682B4799B4816B4749B4736B4775
314B4721B4732B4771B4795B4778B4739B4685B4704B4720B4846B4958B4974B4986
301B4967B4928B4966B5094B5089B5009B5045B4962B4768B4526B4199B3837B3568
288B3487B3384B3282B3241B3375B3662B3905B4076B4216B4329B4565B4773B4756
275B4621B4550B4647B4621B4592B4549B4480B4504B4586B4837B5021B5022B4993
262B5021B4958B4955B5175B5381B5401B5394B5399B5328B5359B5436B5455B5433
249B5495B5515B5494B5339B5258B5283B5156B5033B5087B4949B4784B4591B4324
236B4286B4515B4640B4624B4511B4524B4492B4227B3784B3791B3788B3752B3725
223B3768B3903B4168B4282B4398B4482B4614B4821B4900B4997B5067B4974B5159
210B5111B5169B5188B5201B5218B5511B5670B5664B5515B5615B5689B5472B5405
197B5603B5657B5515B5548B5674B5785B5848B5634B5625B5952B5913B5954B6154
184B5787B5712B5988B6063B5909B5906B5874B5741B5411B5345B5527B5687B5641
171B5547B5509B5378B5413B5704B5866B5888B5899B5954B6104B6235B6267B6188
158B6150B5927B5686B5352B5290B6128B6063B5937B5914B5774B5823B6013B5812
145B5563B5680B5728B5396B5372B5787B6040B6258B6285B6016B5810B5740B5888
132B5834B5148B4860B5356B5506B5347B4723B4651B4415B4166B4085B4010B4041
119B4228B4234B4207B4531B4670B4399B4409B4591B4869B4086B3311B3841B3570
106B3731B3351B3564B4184B4309B4155B4015B3689B3619B3658B3878B3856B3329
93B3352B3886B3921B3854B4893B4793B4440B4746B4894B4529B4927B4407B4406
80B4787B4630B2816B4999B4992B5399B4739B4372B4565B5670B5558B5137B5398
67B4899B4951B5053B4911B5082B5413B5548B5119B5789B6197B5093B8754B5854
54B4809B4692B4561B4731B5499B5899B5545B5611B5909B6470B6371B4393B1423
41B5033B5278B5109B4974B5326B5809B4876B2126B4464B5924B4980B4660B3978
28B4623B5093B5137B5774B6062B6277B6278B5570B4853B5548B5932B4400B4670
15B4705B5169B4654B3608B3562B3840B3684B3155B3285B8894C2000B4012B3149
2B4423B5434
$$ === CHEMSPECTRA INTEGRALS AND MULTIPLETS ===
##$OBSERVEDINTEGRALS= (X Y Z)
##$OBSERVEDMULTIPLETS=
##$OBSERVEDMULTIPLETSPEAKS=
$$ === CHEMSPECTRA SIMULATION ===
##$CSSIMULATIONPEAKS=
##END=


$$ === CHEMSPECTRA PEAK TABLE EDIT ===
##TITLE=DMEG4NMe2qu_CuBr
##JCAMP-DX=5.00
##DATA TYPE=INFRAREDPEAKTABLE
##DATA CLASS=PEAKTABLE
##$CSCATEGORY=EDIT_PEAK
##$CSTHRESHOLD=0.93
##MAXX=4000.433
##MAXY=122.17360498974327
##MINX=249.7859
##MINY=51.1220178378957
##$CSSOLVENTNAME=
##$CSSOLVENTVALUE=0
##$CSSOLVENTX=0
##NPOINTS=0
##PEAKTABLE= (XY..XY)
##END=


$$ === CHEMSPECTRA PEAK TABLE AUTO ===
##TITLE=DMEG4NMe2qu_CuBr
##JCAMP-DX=5.00
##DATA TYPE=INFRAREDPEAKTABLE
##DATA CLASS=PEAKTABLE
##$CSCATEGORY=AUTO_PEAK
##$CSTHRESHOLD=0.93
##MAXX=4000.433
##MAXY=122.17360498974327
##MINX=249.7859
##MINY=51.1220178378957
##NPOINTS=100
##PEAKTABLE= (XY..XY)
917.1676930573412, 96.47896869033788
485.1054917716633, 96.43315358846674
631.6980243507328, 96.17735260301946
315.36676983800453, 95.97118464459926
613.373957778349, 95.92918746788403
306.6869488300331, 95.90246199179253
451.3506322962198, 95.87191859054509
303.7936751607094, 95.80319593773837
482.21221810233965, 95.5741204283826
2955.961205374132, 95.49394400010807
534.2911441501669, 95.48249022464029
502.46513378760574, 95.42140342214542
322.1177417330932, 95.41758549698949
2952.103507148367, 95.41376757183356
453.2794814091026, 95.34886284418276
285.4696085883256, 95.34886284418276
499.5718601182821, 95.2763222662201
2943.423686140396, 95.2648684907523
538.148842375932, 95.17323828701001
2904.846703882746, 95.12742318513885
310.5446470557981, 95.1083335593592
313.4379207251218, 95.06251845748805
2907.73997755207, 95.01288543046097
374.1966677809205, 94.9136193764068
268.10996657238366, 94.88689390031529
2854.6966269478016, 94.60054951362058
553.5796352789916, 94.44019665707154
551.6507861661094, 94.3829277797326
2857.589900617125, 94.34474852817331
2860.483174286449, 94.29893342630216
2890.3803355361274, 94.28366172567843
545.864238827462, 94.24548247411914
1094.62181144253, 94.19584944709206
2927.992893237336, 94.07367584210232
2918.3486476729236, 94.06603999179046
2863.3764479557726, 94.05458621632266
2923.17077045513, 93.9553201622685
559.3661826176394, 93.9553201622685
2883.6293636410387, 93.9018692100855
298.9715523785035, 93.77205975478388
513.0738039084595, 93.73006257806865
329.8331381846233, 93.64988614979414
1148.6295866032397, 93.62316067370264
472.5679725379273, 93.58116349698741
508.2516811262535, 93.4628078171536
2873.020693520185, 93.44371819137395
332.72641185394696, 93.31009081091642
326.9398645152992, 93.18028135561481
265.21669290305954, 93.15737380467924
358.76587487786037, 93.15355587952331
319.22446806376956, 93.05047190031321
476.4256707636923, 92.72213033690328
361.65914854718403, 92.42051424958485
1343.443347004371, 92.11889816226642
365.51684677294907, 91.66838299386674
276.78978758035464, 91.546209388877
1061.8313765235275, 91.43548955935505
335.6196855232706, 91.07278666954174
597.9431648752893, 90.8208036092504
468.71027431216226, 90.80553190862668
464.8525760863972, 90.58027432442684
343.3350819748007, 90.17557425789832
1175.6334741835944, 90.05340065290858
352.0149029827717, 89.98849592525778
259.4301455644122, 89.95795252401034
1080.1554430959113, 89.54943453232589
350.0860538698894, 89.15237031610921
339.47738374903565, 89.06837596267877
353.9437520956544, 88.99965330987204
523.6824740293132, 88.73239854895698
702.1010169709434, 88.62549664459095
256.53687189508855, 88.40405698554704
251.71474911288215, 88.38114943461146
731.033753664181, 88.28570130571323
1040.6140362818205, 88.26661167993358
1228.676824787863, 87.56411345124256
842.9070022113651, 87.51448042421548
324.0465908459755, 87.10978035768694
1127.4122463615322, 86.15148114354865
1576.8340896631526, 85.04046492317318
573.8325509642582, 84.887747916936
281.61191036256105, 84.4754120000956
816.8675391874517, 83.59728921423184
764.7886131396244, 83.00551081506276
797.5790480586265, 81.91740214562286
289.32730681409066, 81.79141061547719
1206.4950599897143, 80.95910293148457
752.2510939058884, 78.84779032025556
1586.478335227565, 78.66452991277094
756.108792131653, 77.87803733064948
988.5351102339932, 74.48390186702817
1291.364420956544, 72.61693646577865
805.2944445101566, 72.36113548033138
1463.0319920030856, 71.62809385039291
1299.0798174080737, 71.24630133479997
966.3533454358444, 71.15467113105767
1411.9174905116997, 66.69151662377611
1552.7234757521214, 62.11382436181666
1389.735725713551, 60.487388245390704
1514.1464934944715, 51.1220178378957
##END=

##END=

