##TITLE=X8536
##JCAMP-DX=4.24
##DATA TYPE=INFRARED SPECTRUM
##DATE=31/10/2018
##SAMPLING PROCEDURE=Diamant-ATR
##ORIGIN=ComPlat
##XUNITS=1/CM
##YUNITS=TRANSMITTANCE
##RESOLUTION=4
##FIRSTX=3997.453
##LASTX=373.96442
##DELTAX=-1.4165319
##MAXY=0.9458766
##MINY=0.33295327
##XFACTOR=1
##YFACTOR=8.8091623e-010
##NPOINTS=2559
##FIRSTY=0.86249262
##XYDATA=(X++(Y..Y))
3997+979085856+978244072+977926872+978374254+979148850+979544673+979409213
3988+979287083+979600968+980053357+980095036+979688184+979248042+978961290
3978+978613372+978163013+978039259+978580217+979510910+980306413+980738706
3968+980828291+980609539+980143144+979552792+979024013+978845656+979198108
3958+979789813+980031231+979725872+979281873+979095600+979091269+979040590
3948+978984904+979026449+979074827+979126386+979431068+980118042+980940542
3938+981538675+981684284+981374053+980884180+980625372+980772605+981090617
3928+981208416+980944061+980386322+979801924+979442841+979435128+979728917
3918+980014789+980004708+979913228+980186719+980889322+981677991+982094993
3908+981855807+981020992+979893674+978804923+978095418+978111793+978824816
3898+979648534+980049365+980034073+979932850+980131371+980757178+981320668
3888+981265929+980700071+980230699+980240984+980430843+980423401+980213783
3878+979908018+979462125+978809051+978011991+977243011+976813289+977251334
3869+978722646+980497897+981774207+982301701+982286206+982040051+981653633
3859+981148941+980697297+980516504+980674359+980984455+981193463+981280071
3849+981343402+981435558+981520677+981486305+981219107+980695199+980003287
3839+979354610+979068061+979334447+980041448+980930393+981773936+982469232
3829+983012153+983321707+983204448+982634395+981933822+981528593+981413636
3819+981105096+980656835+980781468+981772718+982967834+983697029+983797913
3809+983352222+982650160+982155009+982139515+982671880+983720304+984585026
3799+984401662+983532271+982924260+982969864+983453039+984190488+985109340
3789+985785622+985579659+984453626+983252624+982754360+982733926+982589603
3779+982375520+982549479+982993681+983159588+982880144+982567816+982836570
3769+983822271+984919141+985602393+985919323+985972099+985676077+985091815
3759+984543684+984268029+984156860+984071268+984071403+984249287+984531505
3750+984655665+984501869+984289478+984368575+984781517+984931727+984457551
3740+983602572+982734806+982226596+982379174+983112766+983990411+984689293
3730+985119692+985231673+984981797+984520476+984171949+983982766+983690465
3720+983386730+983629840+984602956+985680069+986016079+985299132+984125330
3710+983510146+983576658+983736137+983752241+983840946+984190285+984635570
3700+984926787+985110693+985320919+985552323+985730748+985779803+985724456
3690+985884341+986572803+987335355+987463372+986844805+985757746+984589559
3680+983671520+983121765+983059651+983836074+985131600+985736026+985403128
3670+985015357+985385333+986194775+986740335+986904483+986893589+986810094
3660+986567187+986235169+986287743+986994203+987624205+987299697+986084350
3650+984739904+984229935+984898775+986108641+987261400+988157044+988728518
3640+988955118+988846182+988349001+987392936+986148156+985003245+984097994
3631+983299987+982895097+983473135+984540707+985276533+985703007+986146600
3621+986717397+987281834+987579818+987414858+986859014+986193557+985640961
3611+985264556+985219290+985714306+986544385+987186701+987398213+987327709
3601+987258897+987268302+987078239+986486060+985812755+985573569+985787043
3591+986108168+986399385+986711781+986947381+986909896+986611574+986305470
3581+986390116+987141233+988326943+989310818+989657789+989456765+989062633
3571+988690559+988278768+987685304+987116807+987112611+987718323+988409762
3561+988823042+989063107+989403786+989791422+989870451+989494791+988995106
3551+988790835+988877374+988984822+989016691+989035027+989023863+988971154
3541+989025419+989306758+989639656+989627680+989105396+988491362+988409559
3531+988932993+989479026+989531396+989235713+989026772+988957554+988803961
3521+988608756+988750034+989460689+990468652+991225588+991435137+991191215
3512+990715551+990235826+989981891+989990890+990039674+989928505+989665773
3502+989371984+989196334+989314742+989784520+990340161+990514256+990131153
3492+989578354+989421378+989801639+990344559+990658444+990708514+990656482
3482+990576573+990408635+990070866+989634310+989446819+989887502+990789370
3472+991371467+991130522+990539359+990423115+990895532+991429589+991706462
3462+991762960+991579528+991209552+991073686+991525669+992327465+992963083
3452+993216748+993156123+992863755+992467052+992193562+992152559+992176646
3442+991959180+991241691+989926002+988161171+986339369+984902700+984035610
3432+983530783+983074334+982685074+982691502+983212230+983933643+984534279
3422+985054804+985697053+986491812+987299359+987942487+988281407+988362195
3412+988496910+988966350+989658060+990186636+990312014+990071340+989625988
3403+989195725+989093961+989620304+990802091+992173940+992956790+992787094
3393+992247353+992292416+993138598+994115707+994582575+994583590+994599356
3383+994917097+995317453+995331595+994797267+994085530+993727326+993898782
3373+994317205+994575538+994603483+994830489+995748799+997234862+998497978
3363+998877630+998525923+998123130+998040988+998025494+997678793+997005826
3353+996390168+996183461+996450455+997046220+997791789+998515232+999031088
3343+999225684+999148143+998947525+998802796+998918025+999346935+999809676
3333+999995341+1000011376+1000166864+1000398945+1000359024+1000041080+999871654
3323+1000101841+1000465389+1000556327+1000367820+1000330809+1000828735
3315+1001748939+1002576920+1002891482+1002666640+1002139688+1001565778
3306+1001139710+1000998770+1001197155+1001677285+1002309520+1002962933
3298+1003496584+1003702412+1003420532+1002809746+1002336585+1002326774
3289+1002623675+1002846757+1002894662+1003022340+1003442319+1003992682
3281+1004258662+1003990517+1003368161+1002881265+1002903728+1003346983
3272+1003783065+1003894369+1003703427+1003433590+1003321001+1003471278
3264+1003759248+1004005876+1004251963+1004595349+1004846646+1004726478
3255+1004328422+1004054728+1004184234+1004695015+1005303365+1005564608
3247+1005217569+1004507117+1003939094+1003753564+1003894031+1004331128
3238+1005018575+1005615964+1005690933+1005263783+1004836496+1004814168
3230+1005120610+1005408444+1005440381+1005225621+1004956597+1004866335
3221+1005016884+1005207623+1005198218+1005017628+1004964445+1005318927
3213+1006106379+1007032267+1007579315+1007325176+1006346173+1005242266
3204+1004627623+1004586214+1004690279+1004540745+1004180648+1003905669
3196+1003814325+1003760534+1003678189+1003684211+1003848968+1004068735
3187+1004213531+1004276795+1004310288+1004286877+1004136735+1003930636
3179+1003921299+1004281532+1004828174+1005160057+1005103559+1004915323
3170+1004979602+1005345654+1005683288+1005691136+1005390108+1004989142
3162+1004660778+1004510297+1004535332+1004520920+1004229635+1003756745
3153+1003418163+1003303814+1003300093+1003453280+1003843217+1004214952
3145+1004272939+1004220839+1004467061+1004891844+1004922698+1004311033
3136+1003432305+1002775306+1002439228+1002232791+1002039548+1001867213
3128+1001663820+1001343711+1000953504+1000601322+1000304218+1000071663
3119+999993243+1000094195+1000269237+1000459706+1000705725+1000972652
3111+1001135312+1001125907+1000916222+1000455984+999850273+999454382+999488281
3101+999689576+999658654+999416221+999273115+999305052+999311818+999216144
3091+999181095+999356001+999699522+1000017940+1000102653+999886878+999481853
3081+999051793+998696228+998410559+998046469+997385952+996341790+994975083
3071+993308363+991312060+989015811+986406151+983409397+980254448+977608184
3061+976072389+975714186+976170770+977000104+977956711+979076451+980412439
3051+981708642+982549818+982778109+982528030+981937340+981040208+979921483
3041+978839498+978068421+977547085+976905107+976043836+975454228+975731169
3031+977002337+978850866+980503445+981245698+980990477+980201131+978956960
3021+976477482+971873820+965037647+956624203+947611408+939203106+932914590
3012+930171704+931374804+935426749+940446736+944930568+948263671+950484206
3002+951783859+952238887+951987928+951390878+950672712+949636399+948075570
2992+946153222+944039255+941514105+938120783+933453925+927375500+920350956
2982+913593744+908618076+906448017+907076463+909569135+912707438+915489366
2972+917135788+917013319+914768900+910529328+905136861+900186905+897311062
2962+897053337+898549617+900300306+901066580+900193603+897486848+893009309
2952+887064449+880251349+873283573+866693216+860794840+855788995+851682852
2942+848149740+844621838+840529837+835485627+829408623+822574616+815448105
2932+808360296+801409842+794706557+788467367+782643419+776651737+769928763
2922+763002396+757849860+756766928+760603031+768156151+777262929+786198386
2912+794073173+800523536+805495956+809198968+812000450+814366391+816913463
2902+820368628+825192801+831089621+837093347+842412468+847095159+851681025
2893+856427657+861165358+865719085+870108326+874306691+878099558+881313102
2883+883997393+886267998+888148599+889648667+890803862+891632182+892249193
2873+892954705+893962600+895115292+896025482+896404458+896203434+895605301
2863+894927935+894365731+893761102+892730811+891052453+888867441+886541218
2853+884483545+883142415+882973530+884186509+886476533+889039641+890826056
2843+890816583+888292719+883076241+875560132+866504236+856968886+848498335
2833+842961681+841704113+844745863+850898852+858585672+866513709+873824667
2823+880001202+884883158+888777653+892332958+896088273+900142045+904290205
2813+908389581+912504993+916756474+921118582+925438266+929610717+933611781
2803+937356404+940669479+943461015+945844615+948047558+950214910+952275018
2793+953997357+955256481+956246784+957355224+958788443+960385878+961833644
2783+962986877+963929477+964794876+965622654+966362539+966984015+967570984
2774+968259649+969072339+969894298+970604344+971143340+971502491+971736060
2764+971909952+971979914+971830043+971495724+971251058+971400997+971989184
2754+972731167+973248511+973397233+973375175+973471390+973705975+973806385
2744+973587160+973226927+973039909+973091467+973216304+973317053+973443107
2734+973592505+973628366+973442837+973052020+972484200+971774831+971180419
2724+971153084+971938979+973355620+975018890+976580870+977782346+978540838
2714+979011090+979415709+979856934+980346942+980900892+981518850+982152370
2704+982734670+983224070+983606700+983892301+984139200+984420810+984703705
2694+984848029+984833211+984860072+985113061+985558210+986067367+986564278
2684+986962875+987147999+987123437+987060173+987124791+987336167+987624205
2674+987927060+988175651+988275791+988214015+988134986+988225044+988534328
2664+988939218+989236796+989278137+989105260+988961343+989053025+989323471
2655+989591751+989836214+990134536+990419191+990574543+990687336+990896682
2645+991100683+991122200+991066717+991187426+991471539+991666339+991675676
2635+991642725+991626756+991468698+991091887+990742548+990746066+991071183
2625+991294129+991064620+990528194+990174119+990277303+990622448+990799587
2615+990647686+990375616+990348146+990759261+991426138+991913779+991955932
2605+991736098+991642386+991794288+992018520+992263930+992700825+993309783
2595+993769683+993964347+994239664+994917909+995884259+996834708+997592186
2585+998004654+997885027+997313621+996765964+996684093+997018343+997391500
2575+997629941+997877720+998220022+998564422+998968095+999662578+1000568709
2565+1001209063+1001334577+1001227264+1001144581+1000896194+1000269575
2557+999524345+999139280+999252749+999550665+999615350+999280017+998719504
2547+998248711+998038350+998032260+998092073+998160683+998340461+998849009
2537+999795467+1001002897+1002168918+1003123698+1003769871+1003947958
2529+1003672235+1003368567+1003515867+1004058585+1004447169+1004333767
2520+1004027934+1004133419+1004855239+1005838099+1006608770+1006965552
2512+1006971709+1006852015+1006937811+1007432353+1008111004+1008467854
2503+1008282121+1007845430+1007548799+1007502383+1007648060+1007914242
2495+1008099028+1007912551+1007306704+1006567225+1005983978+1005589643
2486+1005231440+1004779728+1004223072+1003600919+1002908938+1002167632
2478+1001557794+1001331532+1001557185+1002054298+1002574011+1002953392
2469+1003137907+1003170520+1003185676+1003360718+1003801266+1004405421
2461+1004877229+1004992796+1004850976+1004759971+1004866944+1005024056
2452+1005065397+1005112693+1005449583+1006095282+1006739222+1007214684
2444+1007730269+1008406417+1008956442+1009123432+1009077895+1009092037
2435+1009134867+1009006647+1008648647+1008205257+1007871615+1007710715
2427+1007646504+1007642985+1007700769+1007643865+1007219082+1006470401
2418+1005744725+1005315476+1005222103+1005389634+1005707037+1006041288
2410+1006287037+1006399829+1006430480+1006558632+1006982806+1007701783
2401+1008468260+1009028840+1009371008+1009659789+1009948233+1010060417
2393+1009796061+1009194274+1008555138+1008172035+1008022705+1007789271
2384+1007175237+1006030935+1004192827+1001538984+998279903+994811950+991194531
2374+987193671+982949701+979150068+976328625+974258909+972250360+970011218
2364+967973506+966710863+966401445+966883537+967740410+968517239+969421069
2354+971452759+975159018+979507053+982633719+983328608+981570815+978503421
2344+975913654+974786065+974792019+975489480+976718224+978093997+979073745
2334+979368142+979110823+978774002+978838822+979496633+980684982+982149190
2325+983480848+984550586+985893814+988117664+991013332+993827196+996144893
2315+998014194+999482529+1000523173+1001387015+1002552359+1004132743+1005680040
2305+1006806140+1007660239+1008574489+1009585429+1010555094+1011477938
2296+1012434206+1013369973+1014062089+1014335105+1014334158+1014498983
2288+1015172424+1016301434+1017544387+1018512631+1018917657+1018691124
2279+1018066332+1017513330+1017547431+1018413574+1019783867+1020848598
2271+1020901104+1019971562+1018955209+1018950405+1020211694+1021858590
2262+1022789215+1022607271+1021556479+1020124275+1018969689+1018668998
2254+1019156775+1019738263+1019815668+1019314766+1018402410+1017213857
2245+1016028756+1015333054+1015381838+1015892416+1016467950+1017124408
2237+1018128040+1019524721+1021088934+1022569854+1023801913+1024722253
2228+1025430405+1026191197+1027229878+1028403275+1029176246+1029063115
2220+1028045816+1026558197+1025133909+1023976076+1022928328+1022122134
2211+1022265578+1023629172+1025267001+1026162644+1026600824+1027445991
2203+1028695778+1029660775+1030115938+1030613795+1031776501+1033566705
2194+1035385259+1036835461+1038028547+1039041516+1039657850+1039881406
2186+1040179119+1040907773+1041788598+1042184286+1041730341+1040389075
2177+1038217392+1035733043+1034203947+1034568713+1036150991+1037354835
2169+1037524058+1037456870+1038220775+1039802986+1040926380+1040367220
2160+1038642445+1037805397+1038713694+1039641882+1038763019+1036456147
2152+1034250431+1032613481+1031063951+1030031969+1030754871+1033099566
2143+1035148510+1035316853+1033769218+1031746933+1030375016+1030079197
2135+1030648980+1031599768+1032374093+1032429914+1031604572+1030381782
2126+1029443106+1028979485+1028674870+1028336763+1028212467+1028501249
2118+1028890712+1028966562+1028787934+1028670472+1028743074+1028974343
2109+1029194515+1029021639+1028247110+1027196318+1026369081+1025968860
2101+1025899303+1025959455+1026093696+1026528764+1027451336+1028688673
2092+1029939272+1031006777+1031702817+1031941123+1032012506+1032424366
2084+1033314393+1034133713+1034251919+1034009215+1034497194+1035874321
2075+1036811712+1036233945+1034724133+1033635179+1033539234+1033937426
2067+1034093387+1033985533+1034363223+1035689400+1037428790+1038772763
2058+1039542013+1039892097+1039632613+1038554688+1037215790+1036649526
2050+1037191093+1038050402+1038297436+1037804721+1036769288+1035225441
2041+1033810559+1033894934+1035865322+1038290129+1039774094+1040536917
2033+1041151221+1041282756+1040864469+1040917584+1042207020+1044103724
2024+1045120144+1044315777+1042455272+1041522753+1042561231+1044494067
2016+1045646285+1045749876+1045603725+1045470972+1044818304+1043579952
2007+1042766721+1043003336+1043354570+1042771390+1041787583+1041887587
1999+1043848503+1047115973+1050355973+1052349367+1052506343+1051010942
1990+1048900764+1047609772+1047849160+1049142318+1050800175+1052869891
1982+1055395514+1057335590+1057225368+1054843256+1051500275+1048653595
1973+1046961907+1046464117+1046901552+1048019263+1049796949+1052192120
1965+1054823499+1057237953+1059104548+1060087949+1060194449+1060063455
1956+1060154122+1059998364+1058924905+1057198236+1055858458+1055520486
1948+1055741132+1055793774+1055779564+1056364571+1057465907+1058153895
1939+1058029532+1057517939+1057016563+1056720338+1056881171+1057458261
1931+1057832839+1057459547+1056468297+1055299096+1054213254+1053420322
1922+1053229853+1053780623+1054836896+1055833491+1056135399+1055549852
1914+1054416782+1053215915+1052343074+1052030069+1052264586+1052809198
1905+1053235131+1053049399+1052152537+1051127727+1050660317+1050782245
1897+1050999169+1050950858+1050703215+1050520595+1050572763+1050912426
1888+1051600076+1052716839+1054241537+1055979777+1057608133+1058814142
1880+1059439340+1059574597+1059570807+1059842741+1060493854+1061170340
1871+1061428876+1061166550+1060689533+1060426801+1060568485+1060970804
1863+1061362974+1061697157+1062232499+1063118602+1064126903+1064951095
1854+1065518103+1065934022+1066315366+1066750501+1067319066+1068032021
1846+1068759253+1069347237+1069826149+1070301273+1070765841+1071175941
1837+1071449837+1071430689+1071066599+1070537143+1070186247+1070433552
1829+1071368507+1072436486+1073053902+1073126639+1072892799+1072619715
1820+1072450289+1072314897+1072014545+1071530964+1071072959+1070820444
1812+1070825789+1071043797+1071415735+1071989172+1072765865+1073476249
1803+1073741823+1073319747+1072148313+1070450332+1068699440+1067218790
1795+1066021645+1065052453+1064345384+1063950102+1063876959+1064170004
1786+1064961380+1066307720+1067878969+1069140597+1069930146+1070440724
1778+1070724499+1070657311+1070170888+1069242022+1068037028+1066964516
1769+1066021374+1064834919+1063301493+1061340239+1058441121+1054244988
1761+1049419259+1044863299+1040553697+1036255326+1032116029+1028144602
1752+1024001584+1019586700+1015576231+1012501259+1009506602+1005343624
1744+999580640+991617081+979279911+961083068+938563429+910165644+865003152
1734+794212151+715216916+647928375+589031627+535323648+489860365+452782547
1724+422225530+398940463+384223177+377962470+380521755+392682090+411865650
1714+433268560+454678507+476093191+497562680+519308367+542776561+567868612
1704+590736035+610064662+630019976+652458624+672073123+687375517+701595925
1694+713753723+721798747+726668727+729679690+731339036+732602355+736031200
1684+745177830+759064394+772668402+784905837+796505422+807998981+820100957
1674+832260716+842727976+852023193+862543297+874078332+883570851+890497488
1664+896662724+903334884+910301374+916580620+921697634+925704178+929038093
1655+933308248+940732405+948335798+952439708+954901526+958324890+963263276
1645+967744199+970744675+972645913+973653401+973744542+972605857+969277355
1635+963727168+958166831+954264149+952948392+955213651+960515112+966072945
1625+969289805+969028494+965319122+958890139+949434969+935218011+916687391
1615+898444944+882033027+864926626+846705493+831464536+824316509+825327110
1605+828695735+826989432+814844085+791056390+759389443+727414363+704111467
1595+696645631+706558061+728786009+754627587+774463748+780443318+771636690
1585+756876405+749605232+757777258+778288957+802431810+824972696+845094390
1575+860824611+869813387+873621680+874576799+873978598+873410575+874740203
1565+878794583+884797633+891151307+898014951+909165666+925557554+938340144
1555+946171085+952863137+959510871+965891881+971862250+977145307+981625350
1545+985646306+989282738+992201884+995038347+999126965+1003300228+1005884176
1536+1007137888+1007759567+1008081842+1007888937+1006897958+1005061811
1527+1002418591+999159781+994863373+986941494+971671917+946863403+907762827
1517+846654543+767019902+685929510+616273404+563269991+531865506+528679873
1507+560759085+612845033+653624983+682155385+708158608+735535642+764101161
1497+792239327+816727054+834735119+847337051+857764052+868450469+879201165
1487+887990675+894099075+898021176+900147999+900764671+900143601+898278360
1477+894856416+889189039+879363351+862285030+838265525+812977558+789691307
1468+767621350+746610305+729481643+718974057+713431989+708661405+699345619
1458+679226428+651538554+629814756+617002937+609549889+605758105+605520137
1448+608736861+614872258+623754059+635698112+650033411+664944514+680281551
1438+699104607+722963009+745941735+762147824+771556307+774284173+769067898
1428+757544027+744664952+734795081+729518993+727378096+726048062+725395732
1418+727847807+734846639+745693483+759896097+776952428+795158067+812087869
1408+826348063+838529272+850055240+861218405+871460147+881173312+891338393
1398+901861542+911723699+920394192+927465896+931990867+933098361+929634331
1388+919510660+902263455+882308006+865017294+851215037+838309776+824731277
1378+812418331+804803502+803466567+807179593+813119649+819054562+824496828
1368+830304402+838079319+849796704+867196487+889673770+912568122+931078782
1358+944505582+954384993+961911929+967548250+971452759+973841299+975099137
1349+975607956+975462889+974477999+972462887+969120243+963427831+953485290
1339+937835993+917369154+895489463+876980901+866619059+866991809+876860733
1329+892035583+907823250+920633580+928385018+931152601+931936670+935398263
1319+944242580+956645314+968062617+975242175+977897642+977140977+972670474
1309+962456135+945991442+926395685+908219682+895101962+889987519+893719625
1299+901411724+903024315+890195039+863015104+830452920+803957320+788375482
1289+776728737+754840046+714748559+665381070+628354135+621101096+642589023
1279+674364432+694325971+690326329+665624316+635640261+618126331+622379842
1269+645576170+678312313+712193502+742785163+768337147+787559951+798529669
1259+799210485+788614803+767217204+736476010+698230751+654579695+608415872
1249+563946477+526100695+498908074+484172688+481368906+488501338+503112664
1239+522849328+545601150+569551031+593271402+615760120+636377710+654781937
1230+671020504+685773413+700322186+715905716+732943169+750860838+768463067
1220+784248162+796116568+800641742+794037312+776660872+757044410+748079520
1210+756452908+776929964+798102721+811798614+815635326+809144838+791763459
1200+765862880+739082016+720923470+716784376+725666989+742685564+762785336
1190+782613648+799757195+809996637+804989979+774936774+717956216+647862811
1180+588344112+556420286+553081263+568882394+593108201+617562368+638395123
1170+657394236+678923573+704655403+732320948+758533179+781183474+799693052
1160+814383712+826091759+836009535+845199131+853962659+861876216+868383145
1150+873286347+877071906+880810102+885141424+889261031+891352805+889960725
1140+884560545+875044885+861487023+845090940+829375334+819692548+820491841
1130+832199888+850591260+869619196+885226881+896677948+905000725+911041868
1120+914782635+915261751+910271670+896650274+872680636+841659997+812338287
1111+793675116+788174932+790565501+792398806+787114667+771750836+746124356
1101+711693276+671029367+627621625+585509408+548714588+520700751+503825924
1091+498771937+504310926+517542251+534321877+550003381+561008386+566835209
1081+570657103+577068020+588372801+602798226+615962768+623475156+622652723
1071+613955301+602403959+596492592+603283769+623585377+652196230+682515754
1061+710344771+734294787+754501939+771490675+785494903+796333560+803761574
1051+807596526+807404028+802397370+791869756+775598103+753795817+726953787
1041+696040055+662809775+629513322+597933524+568706066+541726479+517055117
1031+495027652+475613162+458727509+446059404+441875213+450514006+472670977
1021+504497335+540072581+574393404+604322721+627364509+640676216+642556951
1011+634392504+619030567+597127803+567660755+532973913+501022142+480962460
1001+477227783+488058354+508246188+532507822+557339374+581190942+603693125
992+624838006+644571996+662743331+679235224+694098558+707552559+719889728
982+731306761+741764007+751161731+759705155+767854784+775850144+783509088
972+790521859+796723429+801776706+804448141+802995842+797665083+792560925
962+793057632+800729973+812146735+822580367+828941552+828996764+820684948
952+804742810+787352228+777665722+781177114+795798218+814667825+831743642
942+844347874+852130775+855301692+853386449+844362083+825284415+795757485
932+762065818+736397184+729119380+740525046+760348621+775525907+779456805
922+775852580+774114679+779690239+789201027+796095999+799184300+802814101
912+810024243+818845554+825080143+826326953+823483521+820177280+820714449
902+827182134+838073568+849954289+860278849+868484164+875077701+880480520
892+884699996+887461219+888281825+886438710+880727013+869058751+848860260
882+819219049+783501104+749359551+725230772+716312704+723089334+742204352
873+768135920+795223225+819600325+839854502+856223656+869493142+880335452
863+889057368+895738189+900524403+903594842+904760186+902918694+895774253
853+881005646+859340579+836577964+820624932+815126439+816598293+818336667
843+816301256+811077336+805906665+804040883+807020384+814136745+823082555
833+831081636+835641792+834578211+825758456+807604714+779950332+743790148
823+701795664+661319856+633409103+623523805+626485646+636364110+656505020
813+692328518+738710078+781763947+808953287+812162771+788374806+746995099
803+712266713+707210256+732941342+767507745+782424262+757890795+692105301
793+607803801+544848003+533017047+569567540+627293261+681006144+721724522
783+751763045+775627536+796154324+814485138+830860111+845211446+857482510
773+867644410+875481103+880576668+882312539+879523575+871344851+859896152
764+850854871+849068456+853879097+859883161+861384245+855689193+844425415
754+833331469+829065238+834348295+846603594+861351023+875514798+887123856
744+892771070+886064673+860981588+820694556+781945553+764505510+774553129
734+801506802+830268812+851763844+862423738+860802215+849095521+835376691
724+829764661+837006942+853825914+873389802+891007119+905393842+916706472
714+925247188+931450382+935732311+937655133+935639072+928892687+920133490
704+914912411+917016297+925225672+935094190+942984673+947871569+950184733
694+950412416+948507999+942623628+928984302+906742753+883432685+871194167
684+876024429+893365211+914016159+931742547+945129630+955050247+962501875
674+968061399+971796753+973631140+974723004+978763582+987798502+996830784
664+1002066139+1004077192+1003664792+999654865+987290495+957127542+900191776
654+821543648+747844935+712076176+726234133+773430615+826752006+870238034
645+901727706+923852875+936604272+935526618+917430118+890143480+872128513
635+876911885+900438743+928180611+950466546+966364095+977503713+984144004
625+986108709+982710786+970543719+945572816+911486476+883976756+879773451
615+899435788+926580605+943284214+940261680+914173812+864005069+795376074
605+724624519+672161490+650430655+659084097+689157195+729597616+771673024
595+810536242+844680704+874026164+898092018+916378852+929725540+939271445
585+943580032+937256264+913644153+872207948+824935617+791633345+785639700
575+804244208+833728172+862512104+886625051+906086296+921367511+932830216
565+941015097+946663868+950549229+953234467+954638523+953433326+947054075
555+932804910+909503232+879397723+849615572+830258798+828130486+841165861
545+859087116+869295095+863608433+842884275+817738534+802963973+807173638
535+826794227+850585170+868876063+878157748+880048971+878957243+879811883
526+884823412+890970920+892251222+884154369+865648987+839895573+814094389
516+795560792+786188372+782780503+783042694+789134719+804198265+826774808
506+851201707+872907980+889945095+900591456+904020369+902901035+902134152
496+905049509+910947818+916027077+917158928+914978314+912887352+913530007
486+917165897+922738413+929207451+935676151+941616140+947592936+954517002
476+961865580+967917211+971805279+974202547+975688542+975573652+972719326
466+966586433+957620528+947566413+939502714+936681745+941075452+951798204
456+964074545+973494869+980393494+987305719+994574050+1000075250+1002493696
446+1002820098+1002830315+1003673858+1005824972+1008999001+1012494358
438+1016094861+1019704296+1022353065+1023260549+1023464144+1024139818
429+1023898602+1019795775+1010583986+997795984+984298951+970655361+950625890
419+913251712+863330071+825665217+812041115+819430967+840478008+864931227
409+883706378+892318411+890208910+881358368+874179013+876242301+889509554
399+911489859+937022965+958651698+972455782+980557778+986191798+990784904
390+994091619+995538167+995194241+993830240+992356086+991125854+990218573
380+989487551+987155983+979422340+965337729+952651761
##END=
