##TITLE=X8404
##JCAMP-DX=4.24
##DATA TYPE=INFRARED SPECTRUM
##DATE=31/10/2018
##SAMPLING PROCEDURE=Diamant-ATR
##ORIGIN=ComPlat
##XUNITS=1/CM
##YUNITS=TRANSMITTANCE
##RESOLUTION=4
##FIRSTX=3997.453
##LASTX=373.96442
##DELTAX=-1.4165319
##MAXY=1.023886
##MINY=0.36611804
##XFACTOR=1
##YFACTOR=9.5356811e-010
##NPOINTS=2559
##FIRSTY=0.9726885
##XYDATA=(X++(Y..Y))
3997+1020051406+1019497470+1019038544+1018835334+1018826020+1018822145
3989+1018725009+1018651626+1018784265+1019060921+1019139367+1018788953
3980+1018235954+1017953235+1018201700+1018870275+1019577479+1019861323
3972+1019580104+1019169121+1019208125+1019766750+1020409196+1020708230
3963+1020535835+1020070096+1019659238+1019500533+1019502658+1019561039
3955+1019725370+1019954333+1019960709+1019505908+1018779890+1018299399
3946+1018273709+1018355905+1018211764+1018020868+1018194762+1018783578
3938+1019476717+1019958646+1020096161+1019956208+1019737622+1019629860
3929+1019680428+1019762249+1019674802+1019314574+1018834646+1018569929
3921+1018705507+1019082861+1019351766+1019391771+1019469779+1019773251
3912+1020160419+1020448826+1020609219+1020688477+1020706167+1020562776
3904+1020041593+1019166870+1018446853+1018373845+1018928906+1019716369
3895+1020350815+1020665287+1020754485+1020838244+1020931067+1020905377
3887+1020828931+1020876936+1020963196+1020774925+1020288620+1019893826
3878+1019857697+1019904515+1019734309+1019475092+1019413023+1019569665
3870+1019943394+1020702291+1021634958+1022109948+1021757159+1020979385
3861+1020508270+1020511145+1020713605+1020813991+1020492331+1019529161
3853+1018543676+1018576055+1019200062+1019695992+1019951895+1020029717
3844+1019933456+1019717307+1019528223+1019348141+1018928969+1018335215
3836+1018185199+1018799080+1019807942+1020728419+1021376867+1021720905
3827+1021689589+1021348238+1020915190+1020423385+1019790627+1019280821
3819+1019231440+1019451902+1019674052+1019999713+1020605906+1021332674
3810+1021763285+1021556762+1020891813+1020519271+1020768424+1021057894
3802+1020725607+1019728120+1018640374+1017962924+1017942422+1018589431
3793+1019524723+1020292058+1020760173+1021069770+1021306296+1021370991
3785+1021231600+1021038454+1020783988+1020210549+1019276820+1018424788
3776+1018088188+1018317963+1018958972+1019762124+1020457952+1020951507
3768+1021333424+1021607830+1021666774+1021494880+1021197722+1020937880
3759+1020919566+1021164593+1021312047+1020982385+1020104162+1018914905
3751+1018137506+1018604058+1019907203+1020920503+1021059019+1020630658
3742+1020451826+1020563088+1020432824+1019787065+1018854398+1018289023
3734+1018446665+1018981725+1019666989+1020512895+1021186720+1021151466
3725+1020462327+1019915704+1019899640+1019938331+1019696117+1019437651
3717+1019447902+1019711119+1020125915+1020635159+1021149904+1021522133
3708+1021606017+1021331612+1020829743+1020399633+1020282120+1020486892
3700+1020883499+1021400182+1022000436+1022584564+1022985233+1022919913
3691+1022024001+1020381256+1019089987+1019006228+1019440838+1019529473
3683+1019189936+1018787516+1018615872+1018561678+1018185699+1017435240
3674+1017214153+1017960111+1018857961+1019238753+1019305636+1019581354
3666+1020082972+1020650661+1021272042+1021838981+1022010062+1021514507
3657+1020514833+1019638173+1019362892+1019448402+1019452277+1019284696
3649+1019120990+1019064672+1019168183+1019557977+1020255742+1021070270
3640+1021715092+1022004124+1021866109+1021266917+1020369442+1019654862
3632+1019522535+1019908391+1020470141+1020897251+1021068957+1021060144
3623+1021027328+1021045330+1021003700+1020763548+1020352628+1019839758
3615+1019298010+1018957785+1018979537+1019192186+1019464779+1019971460
3606+1020752047+1021511882+1022058505+1022464050+1022795900+1022897348
3598+1022538058+1021724718+1020731295+1019935769+1019696054+1020159606
3589+1020967071+1021281919+1020782738+1020379756+1020711042+1021370178
3581+1021876235+1022294656+1022927102+1023695625+1024125985+1023975218
3572+1023584550+1023372526+1023262702+1022938040+1022542934+1022607691
3564+1023079494+1023362963+1023088182+1022468113+1022095197+1022242838
3555+1022612192+1022930915+1023376589+1024109296+1024793497+1025017272
3547+1024809624+1024523842+1024430894+1024582286+1024966954+1025544831
3538+1026128458+1026388487+1026123020+1025568771+1025219670+1025275863
3530+1025517390+1025726914+1025884994+1025827612+1025255799+1024335446
3521+1023764883+1024090356+1025281864+1026820035+1027984540+1028406024
3513+1028373771+1028337642+1028310576+1028057173+1027576307+1027069626
3504+1026683645+1026471559+1026438305+1026597760+1026974052+1027449355
3496+1027727199+1027627438+1027352032+1027326529+1027805770+1028661365
3488+1029526774+1030128466+1030349366+1030083086+1029369507+1028583919
3479+1028088176+1027836711+1027607685+1027325279+1026966302+1026444806
3471+1025728601+1024881257+1023933089+1022832779+1021519757+1020015027
3462+1018464105+1017094515+1016158285+1015876817+1016218417+1016723286
3454+1016881116+1016718473+1016726599+1017282473+1018374095+1019717244
3445+1020993574+1022110261+1023188006+1024195555+1024813187+1024870881
3437+1024774807+1025266175+1026688021+1028544852+1029976199+1030709343
3428+1031248216+1032052180+1032993285+1033733118+1034159353+1034348499
3420+1034450072+1034616341+1034800799+1034767920+1034487014+1034304994
3411+1034548833+1035147775+1035743341+1035926612+1035383926+1034212483
3403+1033113549+1032856082+1033528845+1034615153+1035559508+1035947989
3394+1035560259+1034686661+1034027338+1033973019+1034323496+1034774109
3386+1035239160+1035704900+1036123259+1036443669+1036598312+1036530742
3377+1036292528+1036048250+1035964991+1036036124+1036010996+1035709213
3369+1035418993+1035635267+1036351972+1036996168+1037135809+1036874655
3360+1036562870+1036480986+1036733952+1037116932+1037192065+1036784207
3352+1036258336+1036092443+1036399039+1036996856+1037653554+1038122294
3343+1038243432+1038124607+1038000718+1037921146+1037786319+1037587547
3335+1037420716+1037377523+1037515164+1037815572+1038143859+1038345756
3326+1038358320+1038205428+1037969152+1037751378+1037587109+1037450469
3318+1037343145+1037268136+1037202441+1037213193+1037373273+1037457407
3309+1037090304+1036351972+1035833476+1035889420+1036221395+1036379037
3301+1036368474+1036525679+1036943600+1037290139+1037230257+1036854840
3292+1036565120+1036581185+1036714637+1036675570+1036449733+1036250710
3284+1036214456+1036288902+1036350409+1036301904+1036114758+1035876606
3275+1035721902+1035632142+1035418243+1035000446+1034627842+1034667347
3267+1035142962+1035603201+1035584324+1035147713+1034772296+1034731729
3258+1034806550+1034668534+1034334560+1034084594+1034076468+1034222297
3250+1034324246+1034144538+1033497529+1032527983+1031767399+1031625320
3241+1031964108+1032400219+1032781199+1033111361+1033271816+1033142427
3233+1032861521+1032700190+1032737882+1032798326+1032679188+1032388905
3224+1032154254+1032182570+1032411533+1032541110+1032318835+1031764836
3216+1031158456+1030847046+1030960434+1031177646+1030900302+1029850685
3207+1028460655+1027516488+1027456169+1028077175+1028823821+1029219115
3199+1029080474+1028497347+1027742513+1027171887+1027050123+1027372784
3190+1027925908+1028540414+1029158483+1029649163+1029791304+1029507272
3182+1028958086+1028365832+1027873778+1027548366+1027370909+1027217142
3173+1026952863+1026592510+1026298477+1026162274+1026071889+1025897057
3165+1025692097+1025592524+1025625090+1025727976+1025837676+1025866554
3156+1025714037+1025367999+1024958640+1024696861+1024756930+1025144911
3148+1025648217+1025982504+1026045574+1026025197+1026165587+1026407552
3139+1026402364+1025981879+1025466885+1025333932+1025669845+1026134021
3131+1026413677+1026480310+1026370235+1026004132+1025384000+1024739991
3122+1024297629+1024044289+1023853705+1023700563+1023631118+1023609803
3114+1023512979+1023315707+1023181505+1023215446+1023208071+1022853656
3105+1022197771+1021638583+1021481753+1021677588+1021986372+1022229274
3097+1022341099+1022349225+1022386667+1022562999+1022744331+1022659884
3088+1022279905+1021834480+1021461188+1021134527+1020910002+1020892500
3080+1020971384+1020881499+1020559463+1020239677+1020106725+1020017778
3071+1019767687+1019477280+1019394958+1019444776+1019379019+1019217501
3063+1019118553+1019020979+1018775952+1018459104+1018306462+1018480169
3054+1018924343+1019310261+1019205125+1018470480+1017434990+1016577082
3046+1016111655+1015909945+1015713923+1015383449+1014973841+1014564545
3037+1014057051+1013275339+1012234974+1011112661+1009932530+1008439301
3029+1006292999+1003330044+999682388+995649689+991398466+986927343+982423091
3019+978437710+975570766+974105102+973937709+974690042+975863173+976996799
3009+977725881+977695940+976439112+973395961+968181255+960860377+951929258
2999+942120290+932351328+923729680+917346469+913825265+912863470+913160315
2989+912969857+910977635+906876116+901305245+895349332+890022614+886104928
2979+884278537+885095378+888635647+894319280+901124350+907975613+914090794
2969+919179861+923336199+926679696+929072712+930082387+929177599+926060940
2959+920926180+914465773+907653390+901297307+895498536+889617319+883113657
2949+876513484+871324219+868869758+869315620+871843589+875476619+879554073
2939+883667469+887542963+891060542+894176389+896741925+898542063+899577803
2929+900141053+900469277+900517658+900347889+900658048+902618267+907039571
2919+913715565+921549812+929295800+936226322+942229240+947467323+952089463
2910+956173480+959750379+962826534+965413259+967549747+969310568+970763355
2900+971855477+972398787+972295463+971762842+971192591+970773106+970388313
2890+969905447+969343197+968576112+967104260+964455465+960785744+956915938
2880+953885101+952523199+953174146+955636421+959438407+964110489+969086794
2870+973595983+976961608+978970519+979844617+979951441+979586900+978923139
2860+978054042+977028178+975852422+974577592+973430277+972750577+972738075
2850+973342142+974466643+976191210+978620793+981474048+984028207+985694518
2840+986571116+987276257+988336125+989854294+991634054+993463133+995306401
2830+997261244+999318785+1001282691+1003009884+1004580871+1006080663+1007385246
2820+1008350416+1009080435+1009817392+1010660548+1011527770+1012294105
2812+1012873795+1013257275+1013532243+1013817775+1014169626+1014543856
2803+1014792508+1014727064+1014305642+1013733578+1013285528+1013077505
2795+1013068941+1013184892+1013357536+1013552745+1013807399+1014190504
2786+1014694310+1015175363+1015439018+1015430954+1015329631+1015345507
2778+1015471146+1015576096+1015672981+1015898194+1016279299+1016696845
2769+1017040321+1017272785+1017389298+1017439678+1017557941+1017817970
2761+1018048996+1017987427+1017671579+1017462931+1017592883+1017904792
2752+1018113816+1018134631+1018138568+1018381471+1018890777+1019322638
2744+1019320638+1018965598+1018642250+1018552802+1018600120+1018652563
2735+1018717758+1018855836+1019038419+1019160057+1019149994+1018997227
2727+1018714445+1018394972+1018203763+1018204638+1018306212+1018444540
2718+1018632373+1018827583+1018951034+1019020229+1019095675+1019161182
2710+1019190623+1019254318+1019438463+1019732683+1020071284+1020384694
2701+1020561213+1020524272+1020428136+1020551337+1020888562+1021109087
2693+1021041892+1020907127+1020961258+1021186220+1021433998+1021636583
2684+1021778036+1021817728+1021738907+1021636583+1021686776+1021988685
2676+1022443110+1022809464+1022903787+1022773335+1022665510+1022763396
2667+1022987358+1023153752+1023230636+1023256951+1023135250+1022776210
2659+1022360351+1022158579+1022143452+1022054755+1021797038+1021505256
2650+1021270417+1021064894+1020905314+1020844870+1020810804+1020623845
2642+1020224988+1019776126+1019493844+1019461466+1019622421+1019831632
2633+1019852884+1019501845+1018913467+1018462292+1018297649+1018173010
2625+1017865413+1017545877+1017550565+1017911481+1018336528+1018640999
2616+1018942408+1019326076+1019598231+1019574853+1019378457+1019246067
2608+1019219064+1019156369+1018957597+1018690942+1018514173+1018490233
2599+1018549114+1018594682+1018518111+1018207014+1017738024+1017427364
2591+1017506373+1017901855+1018411911+1018865087+1019090237+1019025105
2582+1018878213+1018937220+1019190311+1019355329+1019340015+1019445214
2574+1019905015+1020423823+1020559463+1020455576+1020683352+1021384430
2565+1022124575+1022573937+1022758583+1022677199+1022295281+1021909301
2557+1021961369+1022472489+1023042490+1023342523+1023321271+1023081431
2548+1022844968+1022915350+1023384653+1023913087+1024005597+1023549734
2540+1022966169+1022775585+1023097558+1023672560+1024298692+1025004271
2531+1025695910+1025992006+1025753979+1025498013+1025791546+1026435992
2523+1026743027+1026464121+1025998756+1025824112+1026069889+1026551943
2514+1027029121+1027444480+1027833398+1028008793+1027727199+1027258272
2506+1027260209+1027874403+1028441653+1028310639+1027503799+1026494124
2497+1025722538+1025366623+1025246360+1024969892+1024385452+1023793573
2489+1023546171+1023598614+1023651307+1023604615+1023643056+1023882333
2480+1024139362+1024142487+1023845954+1023448097+1023189193+1023189318
2472+1023393279+1023639806+1023853642+1024110233+1024386202+1024378826
2463+1023842079+1023025800+1022497366+1022579250+1023185818+1024082043
2455+1025003208+1025647405+1025826050+1025579710+1025066465+1024501840
2446+1024205744+1024479087+1025362435+1026580134+1027696383+1028374271
2438+1028588670+1028517787+1028198564+1027499236+1026470934+1025455008
2429+1024711488+1024146050+1023562360+1023034801+1022799713+1022826716
2421+1022824403+1022705014+1022702202+1022951229+1023323333+1023733942
2412+1024244248+1024755930+1024922199+1024532968+1023870707+1023524606
2404+1023802512+1024397578+1024724552+1024508153+1023926901+1023312270
2395+1022882847+1022670073+1022518994+1022240400+1021856295+1021570138
2387+1021455688+1021341175+1021004138+1020308060+1019200749+1017804719
2378+1016443005+1015322005+1014274326+1013075505+1011901436+1011137539
2370+1010787312+1010374329+1009496294+1008350041+1007621835+1007830733
2361+1008776401+1009659374+1009787826+1009210762+1008590380+1008536687
2353+1009238952+1010512907+1011929064+1013017686+1013452859+1013110071
2344+1012100146+1010852570+1010033916+1010139990+1011135476+1012573574
2336+1013928912+1014752316+1014893957+1014695998+1014622177+1014763568
2327+1015035223+1015502275+1016152285+1016756415+1017241031+1017835035
2319+1018686442+1019778626+1021178469+1022827028+1024181116+1024658607
2310+1024443958+1024331196+1024765494+1025493825+1026135021+1026644766
2302+1027125069+1027532240+1027724448+1027636876+1027357908+1027138008
2293+1027272211+1027827522+1028525538+1028995965+1029120416+1029077412
2285+1029102414+1029247368+1029386946+1029410261+1029299499+1029056034
2276+1028790255+1028882515+1029628598+1030595018+1030841796+1030076523
2268+1029118916+1028890078+1029389134+1030032143+1030507258+1030757474
2259+1030527261+1029634036+1028584857+1028333329+1029327627+1031065446
2251+1032536734+1032965470+1032348026+1031474491+1031226213+1031696453
2242+1032161818+1031950794+1031136078+1030337489+1030125716+1030725158
2234+1031993549+1033450024+1034474638+1034686849+1034144101+1033276567
2225+1032744320+1033053854+1034005148+1034735917+1034602402+1033850943
2217+1033160179+1032745695+1032345401+1031982360+1032076746+1032646934
2208+1033034790+1032665999+1031666325+1030733221+1030723407+1032068120
2200+1034299056+1036426605+1037698184+1037701122+1036449920+1034970943
2191+1034851805+1036501363+1038641602+1039873989+1039925120+1039122593
2183+1037578733+1035394365+1033062605+1031112576+1029834371+1029588844
2174+1030613583+1032244827+1033321134+1033685550+1034342498+1035951677
2166+1037941211+1039182349+1039027395+1037726562+1036283464+1035843790
2157+1036666632+1037707185+1037640490+1036181515+1034125099+1032364215
2149+1031423860+1031693578+1033108486+1034587213+1034749231+1033372327
2140+1031615069+1030769975+1031071384+1031714955+1031926291+1031764961
2132+1031652573+1031443363+1030554576+1028978838+1027586246+1027143571
2123+1027440354+1027743013+1027685194+1027370534+1027134383+1027454106
2115+1028383209+1028982214+1028259133+1026643891+1025450758+1025052838
2106+1024727302+1024125360+1023773133+1024052415+1024527280+1024573410
2098+1024245436+1024171428+1024735241+1025721100+1026683520+1027239394
2089+1027038435+1025974191+1024600601+1023937777+1024506153+1025681471
2081+1026391800+1026402239+1026389300+1026744714+1027059562+1026958676
2072+1026722712+1026735213+1026863915+1026833599+1026878729+1027454981
2064+1028319140+1028628362+1028293262+1028383022+1029556590+1030757286
2055+1030335989+1028158997+1025801172+1024748617+1025049901+1025628215
2047+1025562395+1024938326+1024347510+1024003909+1023886771+1024386952
2038+1026010383+1028474720+1030603332+1031068758+1029299686+1026225219
2030+1023888834+1023778947+1025892369+1029234304+1032111374+1032668061
2021+1030882113+1028986652+1028584357+1029051096+1029608533+1030584955
2013+1031786213+1032019927+1030793540+1028987339+1027829085+1027959287
2004+1029190237+1030776601+1032121188+1033309258+1034796486+1036564683
1996+1037783819+1037459220+1035318232+1032287644+1030188785+1030342553
1987+1032242952+1034039589+1034549834+1034253238+1034037714+1033984271
1979+1033833254+1033633169+1033377015+1032886023+1032471790+1032766760
1970+1033699239+1034563398+1035094019+1035498314+1035800035+1036252086
1962+1037423591+1038839561+1039004517+1037695871+1036334720+1035690023
1953+1035116147+1034115035+1033119612+1032699315+1032915089+1033429959
1945+1033858069+1034043402+1034099033+1034166291+1034139288+1033713803
1936+1032786887+1031742646+1031061695+1030716282+1030347303+1029951009
1928+1029970324+1030654025+1031619070+1032146128+1031904539+1031305160
1919+1031030942+1031368604+1031946419+1032193634+1032001862+1031592879
1911+1031069758+1030537949+1030359242+1030719407+1031193835+1031171020
1902+1030504696+1029654663+1029245993+1029442765+1029859124+1030148156
1894+1030334989+1030445439+1030300173+1029870250+1029523586+1029704419
1885+1030456440+1031396232+1032151254+1032705191+1033107485+1033174930
1877+1032815078+1032278706+1031913602+1031931854+1032348463+1032912526
1868+1033210059+1033044478+1032599554+1032196446+1032031928+1031989548
1860+1031775212+1031304847+1030739097+1030259731+1030021142+1030084774
1851+1030294672+1030430875+1030430375+1030341740+1030127029+1029578592
1843+1028651427+1027766641+1027317153+1027283087+1027467232+1027735387
1834+1027920533+1027790143+1027286587+1026671956+1026357984+1026479935
1826+1026779156+1026968802+1027074939+1027296401+1027661441+1028020294
1817+1028159747+1027944098+1027476108+1026930548+1026297102+1025613526
1809+1025199792+1025243610+1025540018+1025807485+1025922123+1025920873
1800+1025928186+1025928311+1025761042+1025365061+1024665670+1023519793
1792+1022269716+1021672399+1021718780+1021822479+1021702278+1021401057
1783+1021040579+1020685915+1020286683+1019822131+1019361080+1018810893
1775+1017967924+1016855738+1015675607+1014498038+1013330033+1012157215
1766+1010884948+1009416785+1007465192+1004599811+1000932590+996717120+991236198
1756+983788931+974677916+963527737+947849178+923901449+889405170+845731619
1747+795136422+738704200+678588693+618019886+559436799+507640625+469607765
1737+445270305+427079810+409908929+398155527+396383642+402925901+414826414
1727+429532896+445936754+463554591+480381965+494831011+508505565+524656051
1717+543619663+561110173+574845015+586429368+597452345+608284739+619293778
1707+631572208+644918819+656895465+666841323+677187287+688702132+697789832
1697+703345075+708175988+713432386+718517202+723984249+730894893+738814463
1687+746983497+757377780+772621790+788416736+799279696+806755404+813211935
1677+819797106+827411141+835657435+842864925+848986419+855613782+862931347
1667+869164291+873911195+878417196+883697097+889404357+894358472+898049883
1657+900666362+902766783+905691734+910702104+915191604+917089878+918083364
1647+919864937+922765260+925597638+927689246+929262859+930538313+931747510
1638+933419134+936137937+939335105+941671365+943081398+944185833+945427659
1628+946920325+948522378+950175438+951949198+953655763+954988411+956051154
1618+957244475+958690198+959941775+960719674+961142721+961293863+961167974
1608+960852314+960558219+960420016+960288126+959727126+958218146+955256066
1598+950064550+941312763+927591423+908673878+886351580+864225116+847017887
1588+839165325+842771039+856529447+876478856+897730097+916293289+930561003
1578+941297886+949889343+956365002+960277625+962541315+964499345+966973746
1568+969782058+972299651+974378133+976021566+977130064+977774511+978518656
1558+980115959+982018359+983642664+985180086+986668376+987927579+988840743
1548+989448624+989853106+990081131+990063692+989775472+989475001+989694651
1538+990358162+990853905+991013048+990986607+990983232+991061741+991120185
1528+991118372+991164377+991399591+991795947+992267062+992895007+993732601
1519+994614886+995439978+996205751+996851198+997335877+997717232+998067896
1509+998479567+999123826+999860345+1000241013+1000263953+1000080808+999760897
1499+999361977+998986373+998710342+998446000+997965134+997047720+995721197
1489+994474996+993758478+993373561+992841564+991806324+990166266+987972647
1479+985066448+981050313+975613770+968335897+958469799+946623354+935069943
1469+924181668+911965557+896342943+878172044+862168137+851265798+843869849
1459+836674798+826779321+815231973+806403739+801238789+798986788+799704868
1449+803434784+807628126+805695348+790764810+761072504+722705356+687561818
1439+665991666+663780607+680998337+705645894+723055208+728784658+725620368
1429+721437653+724632758+736791862+754355943+773977941+795672607+823390444
1419+859834627+896978201+922431723+935618254+941575730+942189236+936635430
1409+923547472+901556461+869658596+831150995+797548878+781193807+786081101
1400+808790755+840397900+870946364+896070100+915418754+929020269+937935699
1390+944115700+948895357+952428563+954238265+953983487+951198364+944525683
1380+931799641+911673587+885890841+860576647+844245016+839928723+840550855
1370+836471900+823875623+806633953+792471563+788228778+797508499+817499600
1360+840191940+859542094+873364134+880864656+881591300+875458179+862465108
1350+842610584+816445358+785560106+752678382+721291449+694369201+673181841
1340+657417273+645691217+636068021+627310733+619994793+616300694+618516441
1330+627431246+642274274+662014410+686093717+713806365+743529925+773103531
1320+800830181+825690575+846985134+864514836+878833430+890759758+900844194
1310+909429525+916810222+923147240+928489585+932952895+936745442+940025745
1300+942806867+945024364+946672672+947811924+948440619+948429931+947564022
1290+945435035+941104490+933122038+920658588+904986843+889262092+876357967
1281+866793340+858420657+848059191+834254778+818949762+805662782+795527591
1271+785698371+771771570+751080704+724055757+694064979+666515349+647138941
1261+639862381+645140281+659618893+677249232+691563451+699451954+704329372
1251+713882436+733108577+760472312+790828880+819740662+844487480+863509099
1241+876466167+884092453+887363505+886913018+883023084+875752275+864915943
1231+849978842+830113755+804471524+772463647+734150381+690768925+644909380
1221+600219529+561031727+531574009+514300711+508366581+509752110+513163896
1211+514679471+513784153+513525312+518467518+531705336+553017522+579363143
1201+606773133+631643653+651015185+663210106+669032754+671423520+672731104
1191+672540645+668982499+661900210+653732613+647110750+642518802+639062479
1181+636978935+638148815+643725623+651860279+658042280+657204124+645594394
1171+621837186+587427604+546530425+504846220+467943236+439798539+421874980
1162+412779061+408707795+405065358+399247398+392720921+389171151+389333200
1152+389308948+386246888+383945350+389542067+405563445+428173869+452315714
1142+475619684+497781308+518818401+538610855+557090851+574334834+590497633
1132+605715141+620112994+633810832+646845533+659215786+671007724+682337798
1122+693217072+703560849+713257367+722129230+729780644+735576477+739089493
1112+740735927+741770167+743518049+746597454+750566896+753901705+754309688
1102+749475650+738065192+720660629+700150532+681117600+668305423+664858414
1092+671189057+684935463+701870849+717292003+727525956+731185238+729605312
1082+726132613+724584878+727650094+736012401+748538358+763179301+777941132
1072+791499642+803316271+813375328+821819894+828609900+833124590+833791352
1062+828290177+815050952+795640291+775719760+762591986+760915736+770409044
1052+787056210+805955815+823508269+838141336+849866204+859307318+866951920
1043+873031659+877788939+881590425+884775092+887528211+889922040+891983957
1033+893742903+895265885+896667604+898046382+899319649+899979598+898917729
1023+894458233+884885479+869801362+851581583+834958857+824107648+819641026
1013+818463457+816549369+811975110+805589836+799117741+793065192+786688669
1003+779304597+770550372+759706414+746562888+733788028+727043839+731129357
993+746041455+767349328+789719506+808826884+819992065+817448907+798676941
983+770903911+750202168+750098719+770878908+801484004+830323278+852230093
973+867308459+877257067+883368060+885544115+881759631+869423257+849012109
963+826737566+812127189+811512558+823839806+842802418+862040560+878155855
953+890505043+899795202+906929309+912486865+916836037+920388183+923503842
943+926263025+928556968+930375233+931901152+933414383+935160515+937169114
933+939124394+940568180+941304762+941463092+941116554+939960737+937421205
924+933199672+928006031+923788749+922762760+925804661+931827957+938744727
914+944882411+949608374+953052883+955490217+956926314+957153902+955956144
904+952964248+947192918+936554983+917663629+887051783+844930655+799245880
894+764458006+753202127+767565914+798604933+833982061+865459066+890467788
884+909597356+924170229+935345911+944027940+950849200+956181481+960286438
874+963401223+965634972+966961557+967234400+965814679+960884380+948781407
864+924457449+885080689+835189883+786193676+747564937+719414802+695969566
854+674654255+658481079+649674848+644184925+635358504+623210901+617593026
844+629975905+662670921+707246760+751848852+787915243+811165770+819544015
834+812145379+790186746+758610355+726255127+703367390+697274149+709021770
824+733502371+762863828+790375955+812078809+826267889+832794616+833321737
815+831648551+832530211+839067939+850873567+864865437+877807629+888133278
805+895922146+901984696+907226655+912325910+917397975+921989299+925704837
795+928773867+931739197+934743469+937493088+939827223+941924081+943965058
785+945926089+947697099+949172263+950299639+951224054+952188537+953153144
775+953808155+954062495+954143004+954114189+953662638+952290048+949284213
765+943488505+933244677+916562757+892280178+862822272+835940216+821548051
755+825044940+843591756+868872509+892963691+911927491+925523255+935096571
745+942002590+947165977+951088414+953924042+955815441+957211471+958600751
735+960048975+961400250+962836035+964726308+966959557+968976719+970492263
725+971548818+971797033+970299929+966189221+959167314+949503238+938165913
715+927189628+919343254+916559819+918457405+922847644+927813197+933117413
705+939679269+948014072+957420869+966487129+973998966+979376377+982394150
696+982357521+977718755+967161204+950985215+930371107+905521777+877109988
686+850557094+835771135+839800334+860416067+888474441+915420630+937108732
676+952773664+963104877+969216058+972332467+974151608+977459976+983676293
666+989804851+993690033+996061047+998096087+1000193883+1002084718+1003630140
656+1005027233+1006322628+1007240480+1007490070+1006921819+1005454343
647+1003068703+999773336+995472044+989896486+982636240+973341892+962139145
637+950048798+939193840+932222751+930658202+933715980+939051949+944351101
628+948276039+950816759+953225840+957076206+962958236+970136160+977311022
618+983689107+989491128+995140070+1000040991+1003143586+1004777706+1006669729
608+1009844395+1013589812+1016627525+1018430976+1019370581+1020165044
599+1021177719+1022067819+1022306658+1021949118+1021577451+1021529884
591+1021558074+1021393368+1021170781+1020885499+1019892576+1017508248
582+1013901909+1009855709+1005645490+1000520919+993368560+983670918+971681457
572+957862169+942680415+926995169+912067006+898766338+886935770+875891103
562+865438814+855916441+847436309+840113931+835332711+835815827+843788590
552+859302943+880274653+903566935+926094006+945568549+960858377+972135320
543+980503377+986877837+991261325+993220669+992503214+988920627+982239383
533+972666005+961357870+950193127+940913156+934539446+931279771+930588881
523+931776264+934821853+940317090+948491875+958271777+967764521+976030317
513+983686294+991572610+999566563+1007001266+1013579498+1019323200+1024088356
503+1027673443+1030242479+1032394093+1034840053+1038031471+1041767137
494+1045020812+1046727502+1047028848+1047066540+1047401640+1047831438
486+1048682970+1050601746+1052839620+1053553950+1052064909+1049056824
477+1044630456+1037428279+1026394800+1014143811+1007676216+1011982508
469+1024406266+1038237494+1048970314+1056408018+1062030519+1066146227
460+1068291216+1068791772+1068493739+1067245975+1064035367+1058509127
452+1051206563+1042545911+1032240701+1020416947+1009014865+1001177180+999070383
442+1002075280+1007026581+1011163792+1013927349+1015780493+1017488434
433+1020856184+1027645127+1036417479+1042066608+1039651652+1027465670
425+1007399310+985166959+967506180+958141637+958976855+969987331+985761025
415+1000756633+1013373788+1024736366+1036828337+1049349232+1058781407
407+1062198663+1060782255+1058469997+1058780657+1063526060+1071164536
398+1073741823+1064593054+1051717495+1045167016+1043414633+1038737675
390+1026925985+1009908652+990936602+970220920+945900649+918722497+893607951
380+875868163+867768823+868536721+875047946+881530481
##END=
