##TITLE=CZ- 126.5-16
##JCAMP-DX=4.24
##DATA TYPE=INFRARED SPECTRUM
##DATE=12/12/2019
##SAMPLING PROCEDURE=Diamant-ATR
##ORIGIN=Fabienne
##XUNITS=1/CM
##YUNITS=TRANSMITTANCE
##RESOLUTION=4
##FIRSTX=3997.453
##LASTX=373.96442
##DELTAX=-1.4165319
##MAXY=1.0032519
##MINY=0.73739129
##XFACTOR=1
##YFACTOR=9.3435115e-010
##NPOINTS=2559
##FIRSTY=0.99690962
##XYDATA=(X++(Y..Y))
3997+1066953913+1066757432+1066751882+1066621936+1066373209+1066437384
3989+1067061020+1067917563+1068493482+1068610669+1068391478+1067928216
3980+1067234983+1066455501+1065869503+1065630791+1065643040+1065809793
3972+1066250345+1067036141+1067892365+1068431157+1068520466+1068248838
3963+1067799355+1067490536+1067628838+1068222109+1069039291+1069813797
3955+1070261429+1070165102+1069586249+1068827245+1068205842+1067932427
3946+1068019503+1068255089+1068408383+1068446084+1068468986+1068497182
3938+1068451570+1068310206+1068162973+1068055419+1067871505+1067524473
3929+1067155944+1066940644+1066905941+1067022617+1067185033+1067157475
3921+1066882848+1066675394+1066858989+1067361675+1067884263+1068233017
3912+1068305996+1068070346+1067656970+1067268091+1067010816+1066917934
3904+1066946130+1066905303+1066696446+1066612495+1066960930+1067493470
3895+1067680127+1067379345+1066961568+1066840872+1066959463+1067075756
3887+1067301008+1067876672+1068585981+1068911196+1068754457+1068538073
3878+1068597273+1068682691+1068417378+1067943590+1067839608+1068329535
3870+1068892568+1068928484+1068578645+1068390330+1068547004+1068636377
3861+1068207309+1067446391+1066856757+1066587552+1066407785+1066289130
3853+1066773826+1067963430+1069006438+1069322977+1068973968+1068449529
3844+1068265934+1068416102+1068436771+1068194997+1068090951+1068306251
3836+1068436834+1068153085+1067573976+1067019109+1066760302+1066864858
3827+1067205638+1067570659+1067717765+1067507185+1067185735+1067375262
3819+1068225362+1069150864+1069629627+1069548356+1069116863+1068610797
3810+1068235824+1068043043+1067814219+1067315553+1066755773+1066607136
3802+1067127556+1068135734+1069187481+1069994011+1070261429+1069682512
3793+1068481234+1067535254+1067555732+1068329790+1068891930+1068611371
3785+1067826084+1067192688+1066828369+1066528416+1066388137+1066657086
3776+1067233324+1067795145+1068114491+1067969171+1067153009+1065961109
3768+1065240062+1065432779+1066147511+1066789838+1067108482+1067143887
3759+1067145354+1067517711+1068326473+1069043820+1069104041+1068418526
3751+1067424829+1066641584+1066154337+1065996323+1066572433+1067952968
3742+1069140275+1069442907+1069178423+1068764218+1068401876+1068251708
3734+1068381207+1068631529+1068861820+1069049051+1069183718+1069343582
3725+1069656484+1069966388+1069893920+1069420771+1068946664+1068751906
3717+1068775062+1068803450+1068623236+1068140327+1067612060+1067610529
3708+1068354414+1069328271+1069688444+1069017028+1067899892+1067446008
3700+1067800057+1068095417+1068024862+1068039152+1068221279+1067956030
3691+1066860074+1065609995+1065391761+1066236374+1067156901+1067733330
3683+1068136371+1068437664+1068560719+1068639312+1068941880+1069346963
3674+1069366547+1069052751+1068870369+1069014667+1069428362+1069929708
3666+1070261429+1070227364+1069920458+1069684362+1069645831+1069557925
3657+1069246234+1068947558+1068979645+1069224162+1069234305+1068616729
3649+1067558283+1067022745+1067552606+1068695641+1069704903+1069967919
3640+1069409990+1068750758+1068747058+1069197752+1069299118+1068830052
3632+1068291196+1068044191+1068060586+1068250815+1068428860+1068359007
3623+1068046360+1067673429+1067355168+1067133680+1067169149+1067577868
3615+1068160932+1068540816+1068461841+1067986842+1067426169+1067108546
3606+1067165002+1067437971+1067677129+1067771350+1067773838+1067747747
3598+1067626797+1067305729+1066831941+1066423286+1066283772+1066464943
3589+1066867601+1067203278+1067107015+1066638076+1066247155+1066135454
3581+1066118996+1065991155+1065739813+1065441838+1065262453+1065491149
3572+1066223935+1067110906+1067702837+1067875651+1067736520+1067233707
3564+1066248367+1065062527+1064344734+1064572218+1065526363+1066539134
3555+1067089344+1067023319+1066560440+1066201416+1066295191+1066689046
3547+1066991933+1067011964+1066791624+1066382076+1065842519+1065342066
3538+1064990123+1064648960+1064181552+1063805559+1063854615+1064296698
3530+1064781840+1065031652+1064977875+1064648195+1064086437+1063368452
3521+1062677132+1062296865+1062405121+1062927901+1063665534+1064422050
3513+1064939216+1064956185+1064495667+1063934356+1063650734+1063663301
3504+1063643845+1063205526+1062270838+1061238100+1060719722+1061042448
3496+1061903839+1062597902+1062734992+1062591842+1062620485+1062824238
3488+1062814414+1062454369+1062181592+1062505275+1063311039+1063891360
3479+1063701577+1062908636+1062124434+1061761518+1061742125+1061813062
3471+1061884893+1061924827+1061841195+1061624491+1061336213+1060971128
3462+1060618674+1060532937+1060748046+1060927685+1060817133+1060549332
3454+1060394571+1060376454+1060238343+1059837981+1059469770+1059469579
3445+1059624212+1059519529+1059214026+1058980099+1058780045+1058534061
3437+1058496296+1058893724+1059456438+1059614452+1059099582+1058296625
3428+1057934475+1058337453+1059079551+1059444190+1059114063+1058407178
3420+1057956866+1058084962+1058466824+1058529851+1058119792+1057610664
3411+1057423242+1057638031+1058059445+1058450493+1058645953+1058607678
3403+1058491320+1058566085+1058923834+1059335742+1059489738+1059301741
3394+1058936529+1058600278+1058393335+1058310341+1058336432+1058499996
3386+1058789678+1059067367+1059184809+1059184554+1059248793+1059414590
3377+1059471748+1059236290+1058859786+1058716444+1058944375+1059236098
3369+1059239160+1059051610+1059076489+1059479594+1060062467+1060585885
3360+1060923092+1061010488+1060890750+1060682594+1060386980+1059945854
3352+1059541282+1059522080+1059927227+1060300987+1060125111+1059375294
3343+1058572401+1058302112+1058716125+1059438129+1059891758+1059798876
3335+1059417078+1059190678+1059217471+1059278967+1059320879+1059559590
3326+1060079053+1060601004+1060747599+1060421938+1059881488+1059468814
3318+1059309715+1059288217+1059275522+1059301231+1059455609+1059687877
3309+1059869048+1060056024+1060446498+1060987778+1061306294+1061140306
3301+1060622757+1060101827+1059848762+1059883848+1059987766+1059981897
3292+1059935647+1059970287+1060088431+1060353871+1060886794+1061512472
3284+1061812361+1061663214+1061361092+1061153065+1061011955+1060891324
3275+1060870719+1061000537+1061197528+1061294365+1061126654+1060704156
3267+1060334160+1060347173+1060670474+1060916968+1060864722+1060612614
3258+1060370139+1060316617+1060534022+1060903444+1061182345+1061215900
3250+1060969406+1060494981+1060014240+1059850293+1060129194+1060630348
3241+1060940253+1060739689+1060110567+1059574454+1059593656+1060094682
3233+1060721827+1061344697+1061983963+1062457239+1062474081+1062003802
3224+1061331939+1060848328+1060861852+1061420164+1062180125+1062619719
3216+1062519565+1062136108+1061822248+1061623726+1061371745+1061006214
3207+1060665498+1060570957+1060879969+1061491420+1061991362+1062007311
3199+1061628255+1061266041+1061110132+1060985035+1060782876+1060715894
3190+1060974063+1061384376+1061624874+1061618112+1061543475+1061593935
3182+1061800368+1061999655+1062021536+1061957233+1062054581+1062333737
3173+1062608619+1062844460+1063126360+1063320863+1063159340+1062635540
3165+1062067276+1061804705+1062009735+1062600773+1063296558+1063793502
3156+1063949602+1063768559+1063303384+1062723637+1062386047+1062540935
3148+1062954694+1063102565+1062805674+1062410352+1062313834+1062567409
3139+1062948123+1063172290+1063063524+1062701756+1062403462+1062453731
3131+1062856007+1063328008+1063522384+1063368452+1063215478+1063428290
3122+1063852064+1064005548+1063789993+1063621454+1063791078+1064082036
3114+1064175364+1064117185+1064118079+1064120439+1063906096+1063513580
3105+1063198573+1063050255+1062980530+1062992204+1063155385+1063435179
3097+1063757332+1064079931+1064282281+1064183785+1063760968+1063221474
3088+1062871508+1062922606+1063297834+1063615457+1063484491+1062863726
3080+1062117735+1061706593+1061740275+1061864798+1061718139+1061386226
3071+1061186428+1061184961+1061258769+1061435602+1061779188+1062077801
3063+1062046288+1061771342+1061620536+1061768535+1062066765+1062313323
3054+1062442440+1062499917+1062557330+1062574363+1062369461+1061890124
3046+1061388906+1061127484+1061082893+1061138009+1061301382+1061602738
3037+1062041822+1062687658+1063543627+1064359278+1064868215+1065102079
3029+1065213652+1065160513+1064799766+1064120439+1063205717+1062101660
3020+1060789447+1059193868+1057239200+1054948027+1052360728+1049377534
3012+1045938413+1042334517+1039058195+1036397727+1034428578+1033204208
3003+1032582613+1032017666+1030923433+1029223425+1027273031+1025340564
2995+1023412306+1021429187+1019436116+1017466202+1015404363+1012982989
2986+1009916226+1006142960+1001922892+997577726+993223055+988933070+985083636
2976+982234852+980581859+979668094+978716947+977183119+974994716+972383431
2966+969657448+967225421+965698929+965695293+967417755+970554563+974611004
2956+979168407+983812250+988105808+991723228+994419931+995911720+996029608
2946+994885935+992632719+989188814+984469377+978769959+972667372+966552792
2936+960464240+954420342+948717160+943724883+939535115+936063078+933429339
2927+932003894+932061626+933521328+935959862+938751998+941267912+943182008
2917+944709010+946408571+948597868+951033850+953302505+955376528+957547963
2907+959917282+962228486+964231445+966010428+967869407+969945535+972016050
2897+973733282+974995928+975960407+976723430+977211635+977418450+977544696
2887+977832336+978418335+979352768+980591874+981964307+983283474+984488706
2877+985632953+986822812+988205452+989919175+991990200+994298725+996627791
2867+998716551+1000271813+1000972574+1000597665+999248134+997374610+995520544
2857+994125464+993533852+993935618+995215360+997025155+999020522+1000938892
2847+1002590481+1003949454+1005129999+1006161843+1006948150+1007478202
2839+1007821980+1007893938+1007564322+1007122814+1007340602+1008895545
2830+1011824453+1015574051+1019500228+1023273685+1026797522+1029875002
2822+1032256888+1034019285+1035506353+1036813271+1037706622+1038150299
2813+1038543262+1039324465+1040568292+1042001583+1043299124+1044353679
2805+1045252005+1045993849+1046411626+1046480522+1046514843+1046878779
2796+1047585473+1048306265+1048737439+1048848502+1048798680+1048781137
2788+1048994268+1049549327+1050321281+1051050685+1051592857+1051906844
2779+1051936636+1051732755+1051530086+1051491172+1051518731+1051454938
2771+1051320017+1051262093+1051377430+1051662902+1052088143+1052619343
2762+1053156158+1053553330+1053755553+1053808883+1053732205+1053522518
2754+1053257397+1053027233+1052831071+1052671845+1052621449+1052674779
2745+1052684795+1052571116+1052460691+1052513767+1052724091+1052992657
2737+1053276471+1053545229+1053690293+1053638557+1053489027+1053400164
2728+1053382175+1053279469+1052943218+1052426945+1052022373+1052033345
2720+1052467071+1053022193+1053413688+1053619228+1053764547+1053901765
2711+1054022269+1054180156+1054405216+1054568461+1054545942+1054463905
2703+1054545879+1054782676+1054977626+1055065022+1055179275+1055419390
2694+1055684001+1055781221+1055651212+1055433042+1055307370+1055340989
2686+1055500662+1055724956+1055945934+1056105224+1056186049+1056232745
2677+1056347061+1056616330+1056976439+1057182935+1057031810+1056619519
2669+1056293603+1056269426+1056374045+1056293029+1055993523+1055727444
2660+1055688020+1055871105+1056176735+1056437136+1056474965+1056341958
2652+1056371685+1056788187+1057376864+1057714837+1057666164+1057476827
2643+1057386944+1057375780+1057404487+1057646962+1058204254+1058815578
2635+1059129373+1059069408+1058748213+1058314679+1058015300+1058096891
2626+1058566978+1059227423+1059839959+1060143739+1059994018+1059629890
2618+1059532606+1059889972+1060368033+1060486688+1060138508+1059680094
2609+1059478893+1059504920+1059527120+1059544280+1059728003+1060068783
2601+1060352085+1060448093+1060463595+1060568151+1060722975+1060713151
2592+1060483051+1060230879+1060107249+1060075863+1060059405+1059978133
2584+1059763280+1059561440+1059704527+1060284912+1060973871+1061353118
2575+1061266615+1060935660+1060799207+1061044107+1061325113+1061233762
2567+1060865870+1060565663+1060374987+1060165428+1060057874+1060291801
2558+1060801504+1061177688+1061049529+1060495937+1060091875+1060396485
2550+1061332449+1062213935+1062415073+1061879215+1061016740+1060285422
2541+1059879510+1059731703+1059731384+1059843978+1060032038+1060211742
2533+1060362037+1060617271+1061150066+1061906263+1062491687+1062473507
2524+1061886870+1061348270+1061493653+1062235688+1062744306+1062377499
2516+1061447148+1060725910+1060459639+1060351192+1060221757+1060150182
2507+1060217993+1060531087+1061196061+1062018857+1062542466+1062522754
2499+1062140765+1061752651+1061584621+1061564463+1061394328+1060947461
2490+1060537339+1060572489+1061040534+1061574032+1061926230+1062135023
2482+1062307072+1062494048+1062708901+1062836486+1062615126+1061932610
2473+1061075748+1060477310+1060258821+1060218759+1060245105+1060486560
2465+1061036452+1061653836+1061954044+1061774723+1061294812+1060898532
2456+1060858789+1060999324+1060836845+1060238088+1059676395+1059653302
2448+1060157837+1060849667+1061443129+1061742954+1061612754+1061150577
2439+1060744154+1060753021+1061166908+1061626341+1061711505+1061272101
2431+1060605278+1060205362+1060177357+1060134935+1059838747+1059527120
2422+1059429198+1059497967+1059787011+1060441012+1061169651+1061381569
2414+1060976742+1060516351+1060558390+1061116129+1061742763+1062008459
2405+1061905051+1061720563+1061572883+1061336596+1060979613+1060638897
2397+1060400312+1060258565+1060179080+1060096150+1060028785+1060165109
2388+1060562664+1060897129+1060789511+1060222459+1059450952+1058784447
2380+1058603021+1059182449+1060255440+1061110387+1061374871+1061315991
2371+1061174882+1060796656+1060179590+1059715308+1059522080+1059149277
2363+1058354039+1057751327+1058237298+1059840086+1061461693+1061959658
2354+1061311589+1060452367+1060126961+1060260989+1060379006+1060209062
2346+1059861584+1059567501+1059289493+1058975442+1058979142+1059563609
2337+1060320253+1060632007+1060433676+1060155668+1060114841+1060160963
2329+1059901965+1059219959+1058434800+1057986466+1058106779+1058693160
2320+1059310544+1059471493+1059128289+1058770094+1058882879+1059392199
2312+1059760282+1059617323+1059152084+1058870695+1059102389+1059733935
2303+1060316361+1060516542+1060553032+1060938466+1061679672+1062129027
2295+1061835071+1061109111+1060510355+1060174423+1059903751+1059569989
2286+1059174602+1058777813+1058574059+1058763523+1059219895+1059647624
2278+1060143420+1061018717+1061999847+1062370864+1062016050+1061630616
2269+1061869072+1062755278+1063780361+1064344415+1064317239+1064106915
2261+1063983221+1063713060+1063100843+1062418135+1062027916+1061897779
2252+1061755968+1061622897+1061855676+1062499534+1062902958+1062381581
2244+1061087103+1059937561+1059832367+1060930110+1062494941+1063561680
2235+1063796692+1063507839+1063047640+1062581316+1062152247+1061657983
2227+1060936680+1059983492+1058990688+1058312191+1058328203+1059056522
2218+1059936349+1060253781+1059817631+1059251600+1059401193+1060176273
2210+1060375816+1059250324+1057708012+1057247940+1058136761+1059286367
2201+1059591040+1058813345+1057349051+1055711815+1054418995+1053961028
2193+1054572097+1056078112+1057878848+1059033174+1058905589+1058134529
2184+1058273724+1059929779+1061914173+1062770652+1062493920+1062213552
2176+1062671072+1063508860+1063853531+1063099375+1061213859+1058959685
2167+1057531753+1057110275+1056409323+1054967292+1054914217+1058602702
2159+1064794535+1069376626+1070261429+1068905773+1067303623+1066022605
2150+1064835681+1064035021+1064272201+1065451789+1066691279+1067408945
2142+1067711704+1067756232+1067379409+1066442679+1065157451+1063921598
2133+1062937342+1062130239+1061423417+1060951352+1060892281+1061177816
2125+1061527527+1061777530+1062047819+1062496536+1062928985+1062863662
2116+1062110591+1061074026+1060276236+1059843531+1059637864+1059513660
2108+1059260595+1058764990+1058403095+1058807412+1060068655+1061499777
2099+1062297822+1062283213+1061926932+1061702956+1061576201+1061235038
2091+1060540401+1059552127+1058453428+1057685748+1057769125+1058702920
2082+1059823373+1060492429+1060669134+1060619440+1060413326+1060069484
2074+1059901136+1060214230+1060742177+1060847498+1060358528+1059901263
2065+1060168618+1060991350+1061580219+1061722732+1061905115+1061987854
2057+1060936106+1058572911+1056408940+1055846481+1056548135+1057220509
2048+1057180575+1056729561+1056664429+1057788900+1060101699+1062208321
2040+1062608428+1061782442+1061694663+1063177266+1065162363+1066480317
2031+1066954742+1066865879+1066586850+1066384628+1065907842+1064747073
2023+1063627833+1063697941+1064679325+1065270491+1065410579+1066475596
2014+1068719818+1070261429+1069656867+1067954499+1067084687+1067157602
2006+1066938985+1065877286+1064373504+1063101927+1062652508+1062860600
1997+1062787812+1062250360+1062118118+1062331504+1061558020+1059687175
1989+1058235959+1057830812+1057946532+1058774176+1060698925+1062573980
1980+1063043046+1062937278+1064092370+1066389221+1068156083+1068561740
1972+1067755275+1066048505+1064315963+1063936525+1065153751+1066433493
1963+1066392411+1065331668+1064258614+1063499163+1062928603+1062649064
1955+1062780668+1063282332+1064212173+1065526682+1066722984+1067317977
1946+1067352297+1066894586+1065657457+1063742723+1062117672+1061670869
1938+1062315620+1063276400+1063913687+1064200945+1064364701+1064301291
1929+1063838667+1063391290+1063684544+1064833767+1066119379+1066722346
1921+1066516423+1065955176+1065355080+1064659231+1063913751+1063539608
1912+1063955918+1065152666+1066584618+1067444414+1067189371+1065908353
1904+1064268310+1063230597+1063529465+1065021891+1066718965+1067665838
1895+1067571233+1066708248+1065680422+1065131296+1065180799+1065316039
1887+1065251481+1065341173+1065781087+1066105982+1065820766+1065130913
1878+1064705544+1064941321+1065704791+1066643689+1067448624+1067821683
1870+1067523580+1066704548+1065964809+1065748361+1065971635+1066269738
1861+1066315732+1066053481+1065734837+1065644443+1065768328+1065864017
1853+1065841753+1065867844+1066066303+1066387435+1066775102+1067179993
1844+1067410348+1067329523+1067125132+1066991486+1066852546+1066587743
1836+1066307694+1066222212+1066339909+1066547299+1066872513+1067384193
1827+1067876991+1068023331+1067768990+1067436503+1067409392+1067750809
1819+1068164313+1068307718+1068121891+1067766694+1067394655+1067119518
1810+1066978409+1066873470+1066730830+1066596611+1066505132+1066469025
1802+1066557187+1066789838+1067046667+1067203724+1067214378+1067113011
1793+1067102804+1067448050+1068039598+1068439003+1068420248+1068128716
1785+1067898361+1067928790+1068165907+1068541199+1069013455+1069414072
1776+1069618272+1069731759+1069911846+1070145773+1070261429+1070155278
1768+1069823493+1069591416+1069708348+1070076494+1070449489+1070672891
1759+1070730432+1070707084+1070644822+1070409938+1069922053+1069444119
1751+1069378604+1069645384+1069562837+1068689134+1067277405+1065817959
1742+1064410376+1062799614+1060955754+1059075788+1056919791+1053493493
1734+1047501012+1038832561+1028127979+1015030092+999211326+981043398+960546532
1724+937956377+915347914+894993050+876989516+860787292+848425444+842839002
1714+843322167+847843018+855664878+866369268+879460329+894882753+911475834
1704+926320998+938660392+951023325+964286307+975258945+983138792+990059391
1694+996128678+1000454770+1003577352+1006379503+1009016305+1011463132
1686+1014209082+1017598444+1020597460+1022271695+1023131938+1023878693
1677+1024895228+1026391099+1028230366+1029952893+1031474154+1033141946
1669+1034914741+1036310841+1037397101+1038695407+1040380232+1041950805
1660+1042856340+1043153103+1043223594+1043386584+1043892522+1044865741
1652+1045837430+1046424512+1046866786+1047367622+1047769451+1047900672
1643+1047936524+1048001975+1048036295+1048067936+1048322341+1048973918
1635+1049743575+1050172197+1050261826+1050267057+1050347882+1050451928
1626+1050472086+1050455819+1050484653+1050529627+1050594057+1050783840
1618+1051160663+1051589923+1051828188+1051846114+1051787616+1051776261
1609+1051852493+1051957368+1051963556+1051773199+1051425147+1051072757
1601+1050837171+1050732168+1050716539+1050717751+1050626783+1050380033
1592+1050056414+1049818978+1049738025+1049721949+1049668619+1049619818
1584+1049673659+1049827335+1049988666+1050084483+1050080081+1049949561
1575+1049709191+1049463207+1049330518+1049386911+1049624921+1049960342
1567+1050366765+1050810250+1051108034+1051103951+1050913275+1051003861
1558+1051750361+1052585980+1053078650+1053404438+1053726017+1054056717
1550+1054388821+1054737703+1055058962+1055250467+1055332887+1055645917
1541+1056652947+1058067100+1058838607+1058905206+1058908651+1059143535
1533+1059397047+1059371658+1059185511+1059183087+1059599269+1060371989
1524+1061204226+1061875770+1062336225+1062623610+1062795659+1062873677
1516+1062865257+1062855433+1062986144+1063281950+1063602762+1063893210
1507+1064395576+1065123577+1065550668+1065548116+1065326692+1065064250
1499+1064925501+1065004859+1065059338+1064695784+1063837838+1062638602
1490+1061267189+1059826945+1058216183+1056176608+1053519648+1050204923
1482+1046379730+1042381149+1038506007+1034836340+1031334384+1027848887
1473+1024099288+1020134134+1016405460+1012942672+1009313833+1005247441
1465+1001008298+997116442+993675280+990417905+987148919+984124387+982120982
1455+981351261+981335632+981810759+982681208+983746926+984666177+985116297
1445+985076874+984879818+984946099+985565588+987063118+990046122+994701192
1435+999833686+1004451310+1009138148+1014827296+1021389699+1027718941
1426+1033150622+1037791466+1041699653+1044736051+1047092867+1049213778
1418+1051123344+1052505665+1053421790+1054179263+1054945858+1055709136
1409+1056333346+1056651224+1056628386+1056396054+1056005069+1055160009
1401+1053304794+1049879964+1044286250+1035413854+1022165991+1006106407
1392+992098392+984199981+983253236+987616200+993687146+998131190+1000922369
1383+1004146764+1008870156+1014252589+1018926414+1022301295+1024001813
1374+1022335233+1014331436+998125449+975123066+950787994+933115735+928415117
1364+938633854+960321153+984740113+1003972291+1016444947+1024339977+1029539772
1354+1032790832+1034405166+1034688150+1033939098+1032323934+1029798260
1346+1026276719+1021931681+1017263852+1013016480+1010135992+1009479120
1337+1011166688+1014412708+1018060813+1021090831+1022786948+1022716393
1329+1020726066+1016990948+1011934686+1006018629+999562312+992683370+985459374
1319+978269953+971834369+966777852+963330184+961415833+960740270+960861667
1309+961559175+963282531+967025942+973431033+981955057+991080263+999359133
1299+1006205477+1011804677+1016526985+1020540812+1023879204+1026662792
1290+1029127353+1031504455+1033945988+1036454183+1038831349+1040804389
1282+1042260326+1043317113+1044165746+1044901720+1045521656+1046026511
1273+1046405630+1046488433+1045954298+1044531915+1042075072+1038448657
1265+1033523936+1027302504+1019941736+1011651320+1002621675+993092790+983480082
1255+974247577+965570833+957365134+949779625+943418742+938989434+936907117
1245+937098048+938885707+941294769+943936419+947554094+953390539+961989456
1235+972678217+984051472+994797710+1004186379+1012031906+1018417732+1023541103
1225+1027654766+1030906719+1033248225+1034639923+1035315039+1035786849
1217+1036626678+1038172882+1040346677+1042758418+1045055907+1047160104
1208+1049119748+1050848398+1052171265+1053017473+1053427149+1053495343
1200+1053380771+1053140592+1052521358+1051216290+1049376896+1047589556
1191+1046357084+1045864860+1046161177+1047201251+1048698526+1050189421
1183+1051302665+1051885091+1051924770+1051458000+1050458243+1048690105
1174+1045680500+1040931910+1034153250+1025200156+1013854140+999870749+983404616
1164+965506403+948344548+934847383+927485276+926461597+928682216+928975789
1154+923069237+909731426+890324584+867056250+842270930+818918518+800551302
1145+790219333+789201459+796449122+808813841+821881682+831350347+834647337
1135+832025718+826416950+822075547+822696249+829811415+842295107+857288079
1125+871692310+883112963+890308316+893654810+895173711+897537544+902668889
1115+910955542+921389196+932357369+942532600+951276836+958513081+964484957
1105+969581726+974110934+978122146+981519928+984360930+986933109+989461144
1095+991785617+993456025+994162017+993946526+992921635+990853736+987257750
1085+982124235+976549404+972388280+971085062+972811033+976562545+980854126
1075+984430783+986787471+988313835+989841157+991881242+994303382+996721885
1065+999004893+1001324454+1003862887+1006596462+1009321999+1011826239
1057+1013989955+1015730024+1016961348+1017664087+1017772088+1016905274
1048+1014560260+1010843961+1006777696+1003568357+1001629574+1000449284
1040+999324876+998065037+996997596+996546711+996986688+998458510+1000920328
1030+1003988495+1006958612+1009133747+1010193660+1010232063+1009478354
1021+1008149747+1006628613+1005542736+1005464144+1006592507+1008775296
1013+1011652468+1014713362+1017371279+1019129402+1019721205+1019223113
1004+1018138257+1017256261+1017228192+1018242303+1020121440+1022600099
996+1025384517+1028083643+1030328758+1032033423+1033440113+1034854649
987+1036373549+1037899148+1039330972+1040611544+1041600647+1042104864
979+1042138036+1041985572+1041888160+1041812694+1041652383+1041446269
970+1041222676+1040797308+1039933812+1038608330+1037003692+1035370411
962+1033969399+1032974491+1032310219+1031722052+1031111684+1030677767
953+1030624501+1030866274+1031144665+1031310717+1031376551+1031397284
945+1031434347+1031580305+1031912409+1032409416+1032962880+1033537843
936+1034291616+1035379534+1036684283+1037956051+1039145336+1040298450
928+1041221464+1041589165+1041289212+1040358989+1038599782+1035437457
919+1030398165+1024058461+1018490519+1016163941+1018082821+1023167279
911+1029360962+1034994865+1039276557+1042119855+1043816482+1044804756
902+1045593551+1046612700+1047902395+1049071265+1049746956+1049956515
894+1049986178+1050038680+1050144384+1050285365+1050464750+1050624742
885+1050583149+1050187061+1049574015+1049112603+1048984125+1048982530
877+1048889074+1048879505+1049334537+1050356813+1051709215+1053105698
868+1054285796+1054891507+1054572735+1053168789+1050441338+1045548067
860+1037068505+1023926665+1006682582+988245450+973174395+965526242+966626536
850+974596076+985962059+997715454+1008157721+1016595434+1022923209+1027421859
840+1030437971+1032085860+1032465873+1032159668+1032140722+1032975511
832+1034321917+1035446835+1036108810+1036670376+1037428487+1038177730
823+1038572734+1038651900+1038723412+1038916512+1039256207+1039964304
815+1041036849+1041611428+1040549856+1037747641+1034172834+1030550629
806+1026626302+1021768946+1015863989+1009522626+1003665322+999056692+996227238
796+995549059+997053861+1000281701+1004534686+1009145612+1013466282+1017039111
786+1019975610+1022852845+1026146838+1029950213+1034079059+1038156168
778+1041674902+1044213590+1045682860+1046421004+1047005918+1047746294
769+1048309838+1048032468+1046566323+1044030378+1040705064+1037010327
761+1033777958+1032098619+1032568643+1034694274+1037173444+1038842257
752+1039332567+1038808383+1037252228+1034240964+1029485995+1023591499
744+1018211044+1015193465+1015317223+1017873135+1021473523+1025060642
735+1028179970+1030771861+1032989035+1035002201+1036828518+1038444192
727+1040007173+1041719812+1043463262+1044851324+1045727132+1046326974
718+1046819835+1047071815+1047099501+1047300703+1047885234+1048468171
710+1048633712+1048584146+1048825728+1049433799+1049999766+1050175515
701+1050005635+1049785487+1049782297+1050046717+1050415502+1050778928
693+1051271215+1051950479+1052408637+1052155891+1051393059+1050908300
684+1051168828+1051909141+1052600397+1052993487+1053159156+1053195837
676+1053051155+1052684476+1052246986+1051946651+1051988116+1052678033
667+1053804226+1054396859+1054244331+1053892196+1053681234+1053438185
659+1053050581+1052915405+1053366865+1054090910+1054357563+1053615337
650+1052044636+1050646304+1050359110+1051074160+1051946460+1052434473
642+1052602694+1052658767+1052600461+1052259107+1051536082+1050598906
633+1049818085+1049502248+1049764244+1050567265+1051710044+1052757454
625+1053235962+1053099000+1052850017+1053030550+1053617824+1054004280
616+1053621652+1052589680+1051648102+1051422276+1051818938+1052122144
608+1051690460+1050648281+1049751932+1049311891+1048682258+1047364815
599+1045967311+1045378187+1045746334+1046747558+1047973651+1048975896
591+1049729349+1050553932+1051041754+1050323960+1048980999+1049053978
582+1051182289+1053148375+1052632612+1050517506+1049745106+1051333605
574+1053378347+1054082872+1053643979+1052832793+1051730841+1050310819
565+1049006069+1048486479+1049220604+1050850121+1052201949+1052561165
557+1052433324+1052561037+1052909536+1052986980+1052586363+1052026519
548+1051894277+1052489398+1053564047+1054657579+1055360956+1055304946
540+1054398964+1053009180+1051524280+1050041423+1048673965+1047546560
531+1046404673+1044953711+1043650047+1043421606+1044390296+1045579006
523+1046222992+1046440205+1046547186+1046614487+1046604790+1046241428
514+1044906377+1042220137+1038647052+1035551518+1034761001+1037363291
506+1042178799+1046189501+1047243226+1045938349+1044416004+1043744843
497+1043275266+1041972303+1039811075+1037965620+1037572594+1038553787
489+1040033838+1041335015+1042076859+1042108691+1041757768+1041561287
480+1041815883+1042710510+1044235024+1045658874+1046056812+1045697915
472+1045980580+1047463629+1048933282+1048849714+1047040238+1044801949
463+1043479083+1043396918+1043998545+1044186797+1042898571+1040567080
455+1039127920+1039740584+1041739141+1043625231+1044262328+1043093584
446+1040316503+1037268878+1035483133+1034787794+1033659623+1032114440
438+1032063150+1034226228+1036872917+1038703764+1040248500+1041400913
429+1040872774+1038385375+1034830471+1031009616+1028170975+1028258881
421+1031860481+1036247623+1037471547+1036666293+1038334724+1043910895
412+1050607900+1054129760+1052116849+1045207414+1036621320+1030336605
404+1027597161+1026446025+1026231363+1030873547+1043970796+1058869993
395+1064522332+1061305401+1057160799+1055233881+1051301389+1042281378
387+1033063354+1032670455+1044291991+1060435398+1070261429+1073741823
378+1068796943+1063231745+1064092753+1070261429
##END=
