##TITLE=X9687
##JCAMP-DX=4.24
##DATA TYPE=INFRARED SPECTRUM
##DATE=19/11/2018
##SAMPLING PROCEDURE=Instrument type and / or accessory
##ORIGIN=Default
##XUNITS=1/CM
##YUNITS=TRANSMITTANCE
##RESOLUTION=4
##FIRSTX=3996.5625
##LASTX=399.65625
##DELTAX=-2.0390625
##MAXY=0.95381403
##MINY=0.26368269
##XFACTOR=1
##YFACTOR=8.8830854e-010
##NPOINTS=1765
##FIRSTY=0.93088484
##XYDATA=(X++(Y..Y))
3997+1047929630+1048421197+1049102924+1049409365+1049463111+1049511557
3984+1049590935+1049628376+1049503102+1049236719+1049255238+1049386820
3972+1049057497+1048308605+1047474564+1047058819+1047415517+1047848507
3960+1047922853+1048551302+1049798741+1050922515+1051658390+1052059307
3948+1052053201+1051874583+1051714150+1050232670+1047994448+1047372775
3935+1048119721+1049076554+1050067808+1050581451+1050844882+1051188965
3923+1050653918+1050267360+1051046380+1051229225+1049763044+1048038330
3911+1047089818+1047529183+1051109118+1057073148+1060987572+1060469567
3899+1056180463+1051027659+1049795855+1052923341+1054630676+1053641569
3886+1054508959+1055889186+1056932240+1057334566+1054270421+1052360179
3874+1054164875+1057819491+1061196115+1060469902+1059080751+1059377463
3862+1056807033+1053487443+1055390170+1063692266+1073513485+1070114516
3850+1058421973+1052494109+1052996949+1056693971+1061011928+1064473433
3838+1063979719+1059880639+1057342417+1056507168+1055727880+1055300257
3825+1055376885+1058559459+1064165180+1064790007+1062472876+1058795111
3813+1053542129+1051845731+1054715087+1058134051+1058885627+1060667778
3801+1061039976+1057159303+1054053692+1050833341+1047778322+1046875772
3789+1047175705+1048107576+1049013749+1049746202+1051488026+1051227749
3776+1047858773+1046550409+1049589056+1054055302+1055346220+1054014707
3764+1051813725+1051553112+1054970331+1057111663+1057132598+1061088824
3752+1069847127+1073741823+1070829926+1070637486+1068534200+1061475784
3740+1058807323+1062485356+1067842543+1067407808+1060541095+1053759596
3727+1050837501+1050739536+1051821374+1052465256+1050618691+1047744437
3715+1047785099+1052309184+1056816360+1055108623+1051054633+1049946224
3703+1051136897+1050388273+1047586418+1046219946+1047420348+1051952284
3691+1058467600+1059545613+1052567918+1046520013+1045194002+1047908829
3678+1054112403+1062145701+1063784393+1059513607+1056999473+1051826205
3666+1044994584+1041630373+1041363922+1042983223+1046293890+1048812586
3654+1049950653+1055404999+1063946169+1063715550+1054272904+1046887246
3642+1044426591+1044124712+1043460432+1042916594+1043867857+1047992770
3630+1054320142+1053567291+1046614958+1043942337+1047030972+1051696100
3617+1052608177+1051845060+1052122984+1052065077+1050516566+1046718694
3605+1042331490+1040417423+1040901476+1041685595+1042113821+1041995660
3593+1040864840+1040920263+1044040838+1045897200+1043058240+1040120376
3581+1038572133+1037155806+1036187031+1035771822+1035951915+1038186045
3568+1042762937+1045220506+1042637730+1039413689+1037340731+1035799601
3556+1035997878+1037884904+1038753971+1038209932+1038209798+1037925902
3544+1036154152+1034401525+1033774619+1033642367+1033192266+1032875827
3532+1033776095+1035425121+1035667348+1034266455+1033162944+1032772629
3519+1032454445+1032186251+1031648318+1030802266+1030661895+1030997994
3507+1031363616+1032653193+1033869698+1033076453+1031319734+1030470595
3495+1029878983+1028852033+1028502849+1028753129+1028668718+1028298734
3483+1027953711+1027418663+1026756597+1026691511+1026728281+1026076816
3470+1025153534+1024433897+1024443626+1025188761+1025462189+1025049664
3458+1025028595+1025161384+1024578294+1023700571+1023395606+1023808131
3446+1024627544+1025397506+1025306922+1024339824+1023721909+1023756465
3434+1023752103+1023679167+1023891669+1024168453+1024057001+1023827590
3422+1024041501+1024459528+1024385921+1023923139+1023751499+1023936022
3409+1023982052+1023643202+1022930274+1021886549+1021047073+1020887780
3397+1021127726+1021724773+1022378385+1022229291+1021563601+1021165368
3385+1021545082+1022454609+1022506141+1021646871+1020997554+1020701647
3373+1020474852+1020437478+1020474181+1020171363+1020102788+1020784917
3360+1021437321+1021594869+1021435308+1021165704+1021090620+1021070960
3348+1021076664+1021381562+1021728396+1022070333+1022398246+1022485542
3336+1022390396+1022194869+1022042487+1022024974+1022265390+1022584043
3324+1022480308+1021905471+1021217840+1020878721+1020905897+1021277894
3311+1021905471+1021928284+1021450070+1021385453+1021342443+1021158122
3299+1021473756+1021602720+1020849600+1020149690+1020102587+1020361187
3287+1020622604+1020477067+1020010326+1019755953+1019996034+1020897710
3275+1021504152+1020978833+1020192902+1019629203+1019308671+1019380467
3263+1019163066+1018796236+1019148908+1019400060+1018795766+1018231061
3250+1018488788+1018954657+1018921577+1019278611+1020141437+1019946380
3238+1019013704+1018958481+1019618534+1019829695+1019328465+1018794491
3226+1018208717+1017523501+1017804109+1018763357+1019111467+1018843876
3214+1018383510+1017924955+1017885769+1018258840+1018343519+1018020303
3201+1017852488+1017941193+1017928645+1017894223+1017979976+1018058415
3189+1018206502+1018407397+1018213414+1017499211+1017302745+1018044391
3177+1018711020+1018662977+1018101559+1017224307+1016000957+1015247032
3165+1015478390+1015793084+1016069398+1016712475+1016977248+1016629474
3152+1016477092+1016533187+1016764343+1016729787+1015430884+1013969735
3140+1013432675+1013425294+1014111448+1015095724+1015128535+1014495993
3128+1014699035+1015420416+1015356001+1014724599+1014118762+1013870160
3116+1014133658+1014094875+1013228358+1012414245+1012137529+1012144038
3103+1012444775+1012463161+1011854237+1011199015+1010754081+1010625117
3091+1010402683+1009464035+1008165199+1006629101+1004935320+1003819933
3079+1003111233+1002296047+1001359411+1000200342+998646530+996408710+994098960
3065+992592453+991752171+991404397+991079638+990319137+989686394+989725848
3050+989937948+989862596+989993774+990412338+990499432+990272571+990257473
3036+990291895+990057921+989768389+989434370+989141415+988964274+988507262
3022+987785478+987212519+986489326+985412789+984723950+984448039+983708943
3008+982459157+981071280+979503243+977917693+976154598+974075803+972349614
2993+971160149+970085424+969055185+968454179+968220071+968107948+968229532
2979+967969321+966845413+964824658+960802474+955599078+953023012+953419164
2965+953463718+952340279+951197314+950294899+950127688+951016012+952261035
2951+953986889+956283220+958274115+959655885+960542666+960759329+960341369
2936+959185655+956487872+952082082+946401142+939929776+933862883+929470311
2922+927696213+929164675+933364739+938872362+944517068+950124266+955860026
2908+960879503+964390527+966793277+968905756+970893497+972364040+973636103
2893+975222995+977123441+979037576+980665130+982185795+983569176+984452199
2879+984925784+985176332+985272082+985640724+986435043+986804356+986431755
2865+986106660+985948508+985607712+984990401+984016055+982849203+981777095
2851+980833548+980114112+980077275+980571795+981076849+981852380+983205499
2836+984860161+986610238+988558190+990531976+992025734+992893727+993449307
2822+994120096+994963263+995636467+996349730+997133715+997376882+997242751
2808+997323941+997522487+997445390+997252413+997104594+996820967+996522577
2794+996291287+996049865+996061741+996241298+996259549+996599271+997203767
2779+997258117+996829958+996465879+996523382+996936780+997392583+997762500
2765+997862277+997860331+998068002+998196497+998362768+998924656+999368650
2751+999368516+999181578+999100052+999186342+999027049+998805152+998955119
2736+999016581+998707590+998467912+998293723+997649573+996851027+996450647
2722+996343557+996535662+997116873+997651586+997952726+998512399+999011951
2708+999049326+998919690+998764088+998871513+999186208+999300410+999189361
2694+998898487+998383904+998107322+998323314+998200120+997547314+996948723
2679+996331077+995816293+995831793+996054763+996116628+996182452+996379522
2665+996587127+996641343+996645167+996833984+997094529+997089296+997029980
2651+997358027+997850668+998025730+997899718+997856707+997782966+997558855
2637+997642192+998074913+998380214+998362097+998361225+998656595+999015977
2622+998966928+998561516+998399069+998612444+998728726+998464625+998257758
2608+998324052+998527698+998878827+998687393+997788199+997083257+997028303
2594+997657222+998137248+997872878+997826848+998158385+998469858+998805421
2579+998415911+997620049+997479544+997388356+997043333+996819558+996760510
2565+997029108+997266437+997004080+996434610+996489497+997824768+999207344
2551+999145076+998032306+997276301+997632261+998347738+998124298+997186187
2537+996609068+996480171+996454472+995953510+994846913+994656016+995736445
2522+996382810+996149775+995890437+995968541+996494396+997272409+997556372
2508+997377956+997022062+996247673+995569905+995198445+994716607+994720431
2494+995471068+996103879+996082005+995538302+995382833+995959549+995888894
2480+994563889+993357717+993139578+993466350+993697842+993397306+993057181
2465+993332555+993924771+994038504+993433875+992835016+992371026+991900393
2451+991786056+991905090+992186101+992584065+992536760+992030364+991526786
2437+991213366+991270333+991409027+991044612+990715961+990754677+990562304
2422+990316118+990128308+990019339+990320412+990300148+989528174+988902744
2408+988588184+988145397+987834058+987939202+988510684+989153426+989603459
2394+989992499+989905472+989195900+988315493+986948485+984670674+982280203
2380+980178326+978034512+975868287+973894367+972910763+972997522+972791192
2365+971680972+969444360+966226491+964807816+965870531+966694708+967107770
2351+968853485+971162967+971462833+969097055+966610298+965787798+966597549
2337+968142101+968570126+967971938+967697637+968482965+969772675+969641497
2322+967962880+967342617+968849124+970448094+970923491+971430894+973204120
2308+976091660+979186535+981420128+981905053+981489978+982212366+984273917
2294+985556783+985547121+986300174+987845464+988567786+989315873+990872839
2280+990966375+989146582+987587871+986620639+986195700+986937212+988098025
2265+988474920+988490085+988873891+988584225+987089191+986006213+986039695
2251+986254278+985638175+984758238+985549872+987407710+987983219+986955329
2237+986357342+987890421+990171251+989852866+987046047+985778143+986430480
2223+986443900+985097893+982782238+981034577+980734644+980580048+980266360
2208+982028985+985164053+985902343+984286330+982707758+982415140+983345334
2194+983908764+983503553+983404850+982606036+979627376+977534557+978741803
2180+981966046+984417039+983478928+980544150+980146790+983424510+986274206
2165+987369263+986908896+982958440+979742518+980295280+981303711+980661976
2151+978227891+977218319+978291703+979762446+980747326+979458421+978108724
2137+978644040+978423754+977273877+976684077+977006421+978151399+979466607
2123+980865756+981399462+980385595+980207246+981902033+983462019+983012053
2108+980595883+978532789+978577813+979736144+980120957+979741646+979483851
2094+979670118+979977700+979340796+978340953+978760188+980979690+983819187
2080+985501494+984671412+982301004+980652716+979460836+978452472+978108791
2066+977939768+978352427+979262961+979784790+980025475+980522947+981418048
2051+981429119+979466473+979113599+983413842+986894067+984020887+978689801
2037+977104184+978194006+978681347+979141244+981604181+985003753+984907936
2023+981110198+977734177+977143236+978372758+978724827+977977880+978479647
2008+981129388+983651305+983333390+980651509+977897429+976247933+976642006
1994+979266383+981158375+981070945+980146924+976798883+973566656+976410044
1980+983240995+986178255+983980694+982058777+980185774+977520466+976750572
1966+976131516+974122840+972997052+973396291+974526507+976161778+978240573
1951+978009753+974170346+971552477+972818032+974666141+973843104+972015930
1937+971408751+970429776+969132886+969389003+969830380+969797971+971368559
1923+973532167+973971330+973855517+973564307+972609824+972280434+972284662
1909+971041249+969265742+969033713+970212241+970518212+969502400+968521412
1894+968046552+968949236+971038700+971095331+969089070+967987371+967662410
1880+967129376+966856216+967113339+968102245+971058695+975511253+976785933
1866+973436685+970623692+970075627+969853261+969942369+970529619+970451650
1851+969756437+969756504+971424586+974139078+974373522+971824362+970625168
1837+970796472+970288197+970193923+972245476+973564844+972492937+971154043
1823+969342168+967480438+966642639+966109135+965542417+966463619+967738702
1809+966626737+964735551+964637251+966121347+967121794+965976212+964711127
1794+966608285+968769142+965163777+959888786+957740141+957583867+957949691
1780+957460204+955476756+954982974+957164029+956658437+949466562+940652500
1766+934053913+930547452+927086417+921550680+915900404+909759098+905054315
1752+903880015+902705245+897995631+892543633+889225519+887755513+886030665
1737+886476136+894034641+902532196+902037811+898472571+895850676+895230681
1723+896741013+901568252+911498104+920748376+920829700+918773316+921280472
1709+928683575+938188288+945407137+951828045+961158971+966717656+965681983
1694+960495160+955863515+956353405+960800461+969545813+978563320+974320916
1680+965826715+963550112+966653040+969636665+971923199+974801815+972330557
1666+968206248+968685604+968989831+966396654+967107501+975784480+988846783
1652+986802074+980916483+981997046+977766586+968974398+965976547+969583858
1637+978074973+982327106+974959430+969203608+969918683+972784482+975419596
1623+976302619+973467618+972550776+972950888+966363977+957916343+953743588
1609+952594920+952660945+953670853+954601852+953712253+951142830+948193425
1595+944685823+940946796+937188780+932370332+925068279+913315414+894061547
1580+865450788+821286942+733578976+618080067+528980568+453267025+386484095
1566+341194260+311040591+296836833+310052491+357218079+401128459+442964673
1552+488988571+534497451+575963614+613359382+650970336+687313655+714383956
1537+723174801+728513267+737384766+744901737+752634297+764404809+777520657
1523+790105282+800195836+804530904+806587623+807136091+807482456+811814101
1509+823059497+835877761+833561972+827227286+827734219+832080559+833533455
1495+830672218+829963853+832706795+832674587+827805747+823410827+821709934
1480+821430936+822240352+824713018+826750011+821695508+809363712+799121715
1466+790852833+777868432+762754710+752751452+742785769+722957065+705116371
1452+695941786+692375070+692495647+694644493+698350105+703354887+709061258
1438+715315357+719308152+721195648+725160933+730894679+736713776+743259287
1423+749220499+753116403+753222822+744061053+727393183+704768530+673535070
1409+636395285+604203651+589079529+595685496+615796150+638023577+652838507
1395+658234075+658122288+658901777+665379585+677171972+689545571+700318455
1380+710046942+719420208+729236863+737744685+741605832+742711356+744869529
1366+750597103+762199734+775898337+784915373+790516801+795216149+799285235
1352+803616143+808810346+814389161+819870280+825253367+830922162+836371878
1338+840259059+843057894+845776009+848506872+851207407+853879828+856418989
1323+858859247+861335537+863468212+864939627+866292277+867697934+868842711
1309+869805582+870768990+871839555+872943535+873983034+874761047+875256573
1295+875898107+876810990+877635637+878293409+878683522+878187057+875774511
1281+867439536+842944899+794941647+745048214+734482263+767484923+807677446
1266+832026008+842918328+846722575+847288153+847362029+847801527+848406559
1252+849371041+850849904+852445854+853097855+852130690+849701369+845619668
1238+839572502+832068951+824122010+816655028+810976169+809069549+811949977
1223+817555766+820020716+814937024+807380063+803873400+799795926+786171333
1209+762316419+742723233+745248370+766488972+788802823+804656111+816252300
1195+825754999+833484942+839266061+843458744+846542146+848794593+850274261
1181+851039525+851473187+851679986+851652878+851380791+850281508+848322686
1166+846655342+846157668+846597905+847555073+849032660+850855875+852474774
1152+853432143+853897206+854047776+853735363+853303648+852887030+852196783
1138+851207072+849904612+848368648+846723313+845311751+844902782+845612489
1124+846586968+846496653+844247963+838965524+828068440+806518176+774608157
1109+751660824+759003740+786653440+810140047+822468421+828212300+830849426
1095+832285346+834050989+836833184+839800639+841507504+841805424+841816226
1081+842217680+842557805+842524457+842635506+842814861+842442931+840977891
1066+837809139+833692681+831180090+831456807+833284115+835129271+835939827
1052+835443965+833919140+831599728+828336366+823488528+816784261+808052261
1038+796828673+783705511+770213170+758371935+751036870+750124122+755047379
1024+763622233+773735131+783517835+791895015+799224846+805657161+810967714
1009+815016403+817696674+819393206+820372180+820918903+821890162+823683249
995+825966898+828814916+832303328+835603862+837943740+839342755+840180017
981+840638638+839751925+836259353+831761168+829670228+831066156+834666086
967+838715178+841824413+843881333+845618930+846973727+847726712+848335032
952+848898530+848918324+847475896+843476928+837434861+833724284+836153269
938+841967334+846657288+849440690+851182111+852476921+853466900+853877009
924+854220020+855035340+855669225+855800269+855961374+856484478+856841176
909+856643704+856308410+856285999+856610892+856708186+856721405+857034757
895+856654037+855563611+855214025+855623329+855765243+855357214+854274102
881+852691235+850965515+848552366+845784195+844233536+843924277+842907794
867+840294286+837133586+833438442+828009527+819986898+808683327+791792555
852+764314494+722839507+669751960+613218272+566520834+545772404+562518746
838+612697383+675638960+730882534+771268772+797860253+814192225+825407292
824+834602611+841883258+846322598+845718639+835538038+805777604+741001002
810+635177236+511356303+418192448+396515635+447878134+535131872+615326457
795+669635274+701049633+719597148+733805435+746201177+756879988+766855870
781+775920480+783495021+789737311+794688079+798419390+801073961+803203685
767+805371118+807571094+809754698+811192227+811682453+811626224+810735350
752+810609137+813104416+816675695+819198551+820414788+820946011+821744892
738+823306421+824645181+824883584+825554977+827771594+829847839+830584251
724+829472554+823971977+810637318+791553414+779442374+785475315+802233634
710+815032439+821058671+824008210+826137799+827583179+827373092+826467725
695+825816395+824493537+823051646+822937041+824078798+825527668+826299038
681+826587564+827059002+827661283+828384476+828237395+825753993+823678217
667+827222388+830419254+830153878+828486668+826364057+824223732+822769763
653+821778375+821170659+822173119+824731873+827314850+828838267+829331914
638+830854459+834239269+836167293+835422963+835217104+836005517+836357787
624+836390599+835899434+834478410+832568436+831960452+833427505+835457452
610+836395497+836124417+836017729+836470581+837174584+837467941+836575389
595+835512474+835204221+835238777+835022986+834141707+832919767+832606414
581+833280693+833617396+831703731+824517290+807709184+773071186+719268430
567+673667054+673301029+715493706+763313510+792964641+806758122+814407076
553+820004813+821879225+819526196+817717340+817406873+812405244+799662600
538+778642687+747473911+705088257+671299129+680761972+727937692+773036831
524+795950883+805318646+811117613+815444360+818702488+821011232+823316754
510+824776091+823181013+822078844+825939320+832767452+837664138+839650605
495+842083012+845931544+847457846+845271961+842957514+841602248+839568140
481+839659731+843146935+844805488+844774422+848986832+853553793+852173768
467+850894457+852689088+849473300+836187892+809675387+778345975+774571185
453+802385815+832858438+844298824+841470465+839971875+844813004+852070838
438+859311897+865030949+866889257+867233475+869122044+869581941+868184000
424+866384202+866352330+871622288+873746241+869043538+870962101+878640914
410+879660350+872485853+869374135+876433960+883118500+883151110
##END=
