##TITLE=X8738
##JCAMP-DX=5.0
##DATA TYPE=LINK
##BLOCKS=1


$$ === CHEMSPECTRA SPECTRUM ORIG ===
##TITLE=X8738
##JCAMP-DX=5.00
##DATA TYPE=INFRARED SPECTRUM
##DATA CLASS=XYDATA
##ORIGIN=ComPlat
##OWNER=
##XUNITS=1/CM
##YUNITS=TRANSMITTANCE
##XFACTOR=1
##YFACTOR=1.0380397e-009
##FIRSTX=3997.453
##LASTX=373.96442
##MAXX=3997.453
##MAXY=1.1145866398243731
##MINX=373.96442
##MINY=0.6469704783989438
##NPOINTS=2559
##XYDATA= (X++(Y..Y))
2559I68740136I68611285I68496788I68496674I68605887I68784465I69022298I69267485
2551I69410347I69454905I69566646I69772095I69790700I69432167I68958449I68746337
2543I68788025I68820640I68788139I68840047I69013572I69209491I69393925I69596849
2535I69797590I69987537I70202289I70374436I70371450I70252475I70177023I70042431
2527I69597193I68929278I68517805I68728308I69428032I70153597I70493640I70357784
2519I70021989I69787829I69664145I69525418I69442503I69649216I70073897I70175301
2511I69722485I69274950I69403801I69962042I70361458I70314144I69939419I69437335
2503I69126116I69393925I70154975I70815538I70993198I70802218I70528667I70320231
2495I70184948I70033128I69702158I69171249I68579703I67897664I67089530I66467666
2487I66360061I66750864I67400977I68061313I68611630I69065939I69381293I69414941
2479I69272079I69255886I69257952I69051239I68998758I69455594I69952970I69748439
2471I68893793I68223927I68246894I68716594I69136797I69179977I68768387I68294095
2463I68329581I68889085I69628429I70418535I71237694I71500909I70321839I68740365
2455I68306613I68864164I69866036I70941634I71618965I71421095I70517182I69737183
2447I69663801I70076194I70423472I70532112I70516953I70492377I70518904I70531079
2439I70320690I69808271I69237396I68806859I68343706I67737806I67337471I67303708
2431I67446800I67718512I68166966I68653776I69053307I69387608I69696645I69999594
2423I70341362I70602279I70474002I70071371I70076308I70564956I70883869I70629038
2415I70153597I69971459I70200796I70673137I71150645I71398240I71268012I70828400
2407I70272227I69745797I69439976I69631416I70358128I71311077I72118523I72516446
2399I72397356I71933284I71500105I71218171I70863657I70352616I69959631I69965028
2391I70359620I70943587I71609663I72262992I72547912I72094176I71239761I70926246
2383I71067843I70830124I70026009I69367740I69446637I69784268I69898421I69817342
2375I69749128I69761645I69719154I69636468I69697679I69876716I69954347I69832042
2367I69738561I69997758I70603313I71296722I71858294I72139424I72087516I71820740
2359I71501024I71157191I70783613I70570469I70679797I71010539I71335998I71370105
2351I70927509I70332634I70256493I70753410I71232641I71297869I71060609I70808764
2343I70693233I70641670I70310355I69537706I68797787I68592222I68954200I69608333
2335I70295081I70794179I70735495I70013491I69642440I70402457I71410989I71495510
2327I70761105I70492836I71016624I71648824I71948099I72049503I72208443I72377946
2319I72388169I72305713I72398734I72735905I73122346I73225703I72708115I71762171
2311I70997217I70631564I70570469I70707359I70962880I71139620I70953807I70442536
2303I70153022I70589303I71548798I72288028I72201438I71537657I71033852I70811864
2295I70764435I70915220I71132270I71042120I70630990I70409692I70587810I70937615
2287I71233330I71298330I70888004I70048403I69310321I68966832I68787336I68646197
2279I68716135I69041593I69490621I70098703I70816227I71216677I71127906I70958516
2271I70938993I70669921I69777149I68695234I68017673I67811419I67816013I67729996
2263I67507780I67438072I67735279I68206357I68490932I68439024I68107364I67635713
2255I67345969I67618946I68353927I69030338I69263580I69080065I68756214I68427195
2247I68014802I67497674I67051632I66907048I67104342I67440023I67591040I67338160
2239I66762693I66116599I65547103I65147917I65126327I65601192I66210078I66346510
2231I65958462I65638746I65835583I66343869I66668408I66611792I66349150I66173904
2223I66238215I66381422I66310335I65996130I65694674I65532173I65355088I65075221
2215I64831186I64707847I64600471I64441072I64219773I63828396I63270901I62870452
2207I62844211I62937978I62814696I62544935I62384503I62333169I62253125I62152295
2199I62124618I62220338I62437846I62652426I62638703I62345916I61988819I61754716
2191I61693736I61821209I62032803I62084366I61924623I61816615I61982503I62366358
2183I62771976I62990518I62866088I62500894I62258408I62370205I62709330I63039325
2175I63263954I63317297I63083883I62618376I62210634I62050316I62048364I62116694
2167I62263805I62343160I62128925I61685524I61314129I61170004I61180684I61235061
2159I61247522I61144739I60946294I60782991I60705531I60493592I59827860I58751170
2151I57772095I57340007I57437334I57820156I58349113I58940772I59426147I59664327
2143I59756084I59953668I60259546I60273844I59692463I58821568I58271308I58268150
2135I58592230I59016567I59419084I59606045I59447622I59102066I58784244I58472911
2127I58108119I57826242I57754869I57819754I57929599I58107660I58331083I58488587
2119I58559271I58659642I58858259I59057738I59101722I58956907I58752089I58662743
2111I58758175I58886912I58800207I58564267I58662628I59362123I60185015I60407691
2103I59869030I58957539I58124427I57691592I57814931I58351007I58875141I58969310
2095I58540839I57901463I57496535I57483098I57617921I57589670I57394613I57315316
2087I57538853I57889749I58055809I57986216I57868906I57838817I57950672I58287673
2079I58818065I59275533I59394508I59167181I58765123I58350261I58014294I57765606
2071I57544423I57341787I57220515I57161199I57047909I56861810I56704822I56635056
2063I56677720I56902119I57264154I57514450I57493147I57376583I57437736I57669657
2055I57822682I57788977I57759463I57922422I58187761I58369152I58441043I58465791
2047I58483189I58568631I58763056I58954553I59061642I59202724I59456005I59636363
2039I59513196I59098334I58613017I58292037I58251326I58472050I58850163I59188541
2031I59195087I58715282I58002466I57496994I57277303I57029190I56600719I56252579
2023I56275031I56636951I57062781I57260479I57090974I56698047I56424783I56478471
2015I56758855I57073920I57349538I57527771I57429640I56905334I56118617I55519091
2007I55413954I55661551I55914832I56061082I56211983I56362826I56365927I56192288
1999I55922929I55539820I55035496I54655661I54688275I55059383I55434683I55664824
1991I55832090I55917244I55721383I55191393I54631544I54440277I54694477I55122201
1983I55423888I55451909I55208447I54890108I54780320I54905554I55035669I55101243
1975I55232276I55315880I55012988I54331350I53721488I53505932I53591661I53758984
1967I53890074I53936815I53930900I54009050I54263824I54602604I54796111I54672944
1959I54327331I54080825I54080079I54042526I53617615I52893601I52356376I52413165
1951I52987656I53517072I53467058I52910942I52406676I52345868I52705032I53267695
1943I53763175I53949562I53827486I53644775I53530278I53272690I52610461I51666125
1935I50950208I50892787I51436501I52086041I52295281I51879557I51193039I50845530
1927I51099156I51606064I51830405I51599403I51115808I50611485I50207877I50003173
1919I50039463I50168487I50154935I49956203I49729737I49572405I49437984I49279447
1911I49084160I48798493I48370080I47830271I47225462I46522406I45657253I44599799
1903I43287456I41611929I39573276I37372811I35342713I33915013I33564117I34481752
1895I36311683I38390875I40207025I41550489I42443664I43040721I43455468I43676767
1887I43723966I43730282I43777884I43806135I43727411I43487222I43038137I42395660
1879I41696969I41095835I40617982I40190717I39784870I39446664I39181841I38869015
1871I38324038I37463306I36405335I35336857I34284456I33149025I31938373I30730191
1863I29427666I27842864I25937885I23651347I20585098I16284770I10944674I05657863
1855I01823674I00163593I00210046I00774029I00840809H99940170H97907546H94648479
1847H90121800H84439937H78096075H72016231H66963524H62758112H58389568H53024149
1839H46707447H40071487H33607271H27301536H20782771H13663044H05799034G97412384
1831G89086312G81571131G75357096G70256787G65438298G60073338G54084678G48155046
1823G42882074G38063125G32975908G27196373G20946853G14843582G09537306G05390348
1815G02179055F99158225F95565029F90997122F85374230F78913977F72328489F66810102
1807F63625338F63713937F67511205F74792685F84539854F95216143G05530281G14992186
1799G23701711G31766749G39035425G45200193G49994049G53389145G55740223G57646178
1791G59582681G61722968G64093282G66652222G69070310G70663783G70893063G70054553
1783G69464099G70873999G75440126G82914826G91716913G99907128H06260407H10614481
1775H13489807H15431592H16479400H16149290H13946241H09765003H03765089G96224471
1767G87772189G79501585G72558656G67647030G64906987G64022713G64348458G65182949
1759G66293115G68284684G72207013G78491561G86170849G93141053G97294270G97699199
1751G95046606G91119798G87791712G86263640G86871895G89400229G93575496G99251215
1743H06089926H13273849H19812940H25167105H29443661H33022502H36131127H38871917
1735H41557584H44746885H48802545H53545297H58484025H63293327H67956265H72533244
1727H76976147H81196087H85212069H89174306H93250522H97476146I01702058I05729696
1719I09472817I12917122I16009784I18720716I21105959I23176308I24846840I26168887
1711I27443447I28920185I30493446I31849601I32860602I33692738I34541010I35413570
1703I36230031I36987463I37707917I38322774I38739302I39012221I39348073I39876570
1695I40477589I40940800I41263502I41649942I42222940I42891141I43503185I44017614
1687I44481399I44887361I45112678I45064216I44879666I44857617I45126804I45457890
1679I45481490I45088275I44560926I44260962I44225131I44181205I43931598I43528450
1671I43087806I42678513I42410590I42371716I42456181I42481791I42458076I42519975
1663I42670245I42809087I42951662I43208044I43568759I43880781I44061828I44219964
1655I44485074I44803068I45012882I45074666I45098553I45198063I45426481I45790698
1647I46210671I46532857I46674685I46730039I46880939I47212370I47621950I47949074
1639I48207695I48586153I49162309I49761606I50192316I50455072I50613609I50647775
1631I50601953I50688428I51051555I51547552I51914756I52064106I52085753I52079839
1623I52085007I52096204I52072432I51974932I51847631I51810652I51929972I52137145
1615I52341274I52581579I52960036I53439784I53840808I54057972I54165578I54259977
1607I54291041I54144160I53865211I53682844I53739231I53927627I54094549I54252569
1599I54481964I54799728I55199719I55636286I55952213I56038803I56041846I56215715
1591I56575224I56823625I56654752I56108741I55579555I55438588I55725747I56209227
1583I56568678I56549615I56189646I55855000I55840186I56054594I56267508I56429893
1575I56604796I56808179I57075815I57519101I58177253I58843387I59142949I58898741
1567I58382589I58060058I58142514I58522981I59004911I59402604I59563496I59469384
1559I59239932I59041947I59087539I59554941I60319895I60955080I61195441
1552I61212323I61306320I61559544I61907856I62345916I62959626I63807952
1545I64735294I65341882I65321325I64796963I64181532I63864226I64138121
1538I65069020I66200777I66768550I66518656I66012668I65926537I66348461
1531I66903256I67279016I67430148I67402355I67185766I66866509I66787268
1524I67235378I67975182I68454183I68472442I68274112I68075323I67960253
1517I68092320I68566957I69171593I69614649I69824003I69874533I69877060
1510I69970311I70154400I70241909I70197580I70277738I70590107I70806466
1503I70572995I70032095I69739939I70052422I70703455I71150300I71270768
1496I71364477I71511933I71486324I71306369I71299134I71583480I71975776
1489I72364627I72814458I73361445I73892583I74156258I73927837I73289210
1482I72645985I72381738I72596146I73126940I73663476I73882018I73632124
1475I73053556I72523336I72431464I72879228I73607663I74273968I74693598
1468I74811884I74666725I74404773I74125136I73765797I73365579I73245341
1461I73607893I74152468I74430383I74380886I74199553I73962177I73721011
1454I73679438I73950922I74381345I74767785I75014692I75074410I75007572
1447I75045010I75354966I75798366I76034707I75843384I75351750I74948659
1440I74880558I74999534I75017678I74889631I74808438I74933845I75228871
1433I75495072I75556396I75442588I75364840I75493807I75776087I75979470
1426I75944442I75805486I75861758I76191811I76532082I76595017I76384169
1419I76146448I76132208I76445034I77011200I77619626I78110569I78566259
1412I79152750I79770020I80156689I80303225I80365354I80334003I80258093
1405I80453897I81013401I81508365I81528692I81079205I80375575I79648403
1398I79079827I78697751I78449350I78383202I78642513I79269314I79996256
1391I80393261I80369259I80216636I80142563I80098350I80016813I79851327
1384I79430665I78689253I77977929I77716436I77846436I78010774I78061878
1377I78155818I78466921I78892406I79089587I78915374I78680870I78710499
1370I78830507I78652045I78221851I77977700I78170977I78638838I79021488
1363I79050541I78795825I78619084I78667089I78575560I78026851I77358248
1356I77155324I77495138I78074051I78791117I79655523I80353410I80465151
1349I80014516I79435603I79094756I79082009I79346717I79807802I80373738
1342I80980212I81577383I81965776I81770776I80873754I79827555I79455356
1335I79935505I80574594I80623402I80180576I80078482I80806801I81862878
1328I82493009I82651145I82664697I82453849I81784212I80852279I80079516
1321I79660576I79606830I79952961I80796351I82191093I83876497I85207731
1314I85645734I85245054I84447485I83624766I83041719I82981772I83547707
1307I84360665I84799816I84658562I84302899I84150507I84378351I85006071
1300I85740936I85959938I85432360I84759162I84640646I85135037I85984744
1293I87214344I88947866I90843427I92166164I92622541I92748866I93041365
1286I93212707I92919749I92561216I92537213I92441322I91787188I90781642
1279I89861654I89373121I89933429I91987930I94820134I96959043I97577576
1272I96945148I95806846I94902704I94868252I96045140I98196109A000575266
1265A002435800A003428255A003356595A001913276I99339004I96914141I95725195
1258I95627121I95870698I95801793I95031326I93775083I92819608I92555589
1251I92442241I91948770I91442667I91619176I92494149I93335817I93357178
1244I92394696I91055079I90076062I89482335I88631250I87136023I85517342
1237I84748596I85178676I86086148I86507039I86347410I86215114I86270582
1230I85981528I85133772I84323916I84099288I84215966I84165666I83997768
1223I84121336I84531892I84795338I84797290I84930850I85372987I85714638
1216I85594630I85274567I85302245I85927438I86950555I87861011I88139731
1209I87712294I87078257I86822163I87061490I87465960I87617320I87249485
1202I86414247I85580160I85323146I85743234I86311809I86337075I85535831
1195I84377432I83881204I84645241I86105440I87279343I88059686I89019297
1188I90130841I90690575I90458939I89918500I89488192I89303413I89545152
1181I90214329I90922668I91558197I92593946I94111796I95205081I94998482
1174I93811258I92874731I93078918I94158766I95120099I95477598I95766767
1167I96385989I96528850I95302925I93392892I92304662I92269061I92002630
1160I90560575I88652954I87668424I87992161I88991619I90338357I92168575
1153I93872812I94326778I93568944I92795262I92775623I93323300I93981337
1146I94465047I94682439I94755135I94788668I94657289I94424049I94679799
1139I95903887I97686331I98954518I98918687I97668530I96049160I95022369
1132I94919471I95314409I95632748I95592209I95123429I94179897I92788484
1125I91339425I90556096I90667262I90905557I90502351I89872449I89920912
1118I90610416I91156598I91116749I90645786I90170576I90171494I90881670
1111I92010095I92977973I93315376I92765977I91380538I89642308I88277081
1104I87787169I88018115I88332549I88347478I88234245I88226206I88244351
1097I88174528I88169360I88368837I88504925I88205764I87595156I87145325
1090I87034044I87039327I87019688I87026005I87059883I87043231I87027038
1083I87299326I88106082I89176398I89742564I89312945I88277539I87522231
1076I87589644I88236542I88738052I88722893I88485287I88433838I88608052
1069I88868280I89164570I89381964I89269074I88744368I88122735I87827134
1062I87836896I87700005I87251781I86940793I87232258I88010076I88693608
1055I88942698I88937185I88852548I88629068I88214148I87721825I87328381
1048I87169786I87317700I87704714I88095976I88257327I88161435I88009845
1041I88020871I88125835I87950359I87310121I86515653I85912393I85626670
1034I85637006I85822817I86092350I86390935I86579389I86596156I86676429
1027I86916332I86948602I86501872I85867721I85525266I85611281I85889425
1020I85980495I85732783I85344391I85043623I84846442I84615842I84221707
1013I83712848I83322734I83198936I83195031I83017602I82559273I82024573
1006I81665352I81492746I81309460I80871343I80072166I79159411I78462328
999I77919245I77239733I76395079I75697536I75250461I74753199I73950693
992I72876013I71691545I70581723I69710082I69136567I68777575I68432593
985I67910986I67217463I66448143I65516900I64279720I62870452I61461815
978I59928288I58193388I56397910I54488740I52032065I48532867I44036563
971I39102543I33798220I27726530I20843031I13133482I03840565H92706234
964H81120866H69052535H52511385H28028593H01488313G79861381G61853198
957G45397719G29497266G11528013F89085884F64190756F42088614F27121069
950F23261787F34070774F55959141F80616319G04293331G26578932G47037646
943G65033024G80682895G94187597H05193996H14809270H26062921H39773992
936H52070167H61748259H71020849H79465436H85888539H91115345H96123609
929I00763521I04716284I08486564I12684339I16613502I19573925I22203607
922I25167246I28733741I32925257I37213585I40706123I43240716I45450827
915I47805006I50051751I51962185I53691630I55412634I57091376I58541758
908I59663695I60523336I61254412I62035272I63174895I64583819I65748190
901I66633267I67404423I68121949I68809500I69596504I70514081I71399390
894I72088320I72595227I73061595I73594916I74179225I74768588I75325681
887I75779073I76085468I76335821I76664954I77109044I77610209I78058203
880I78317627I78345649I78401003I78809836I79466955I80125451I80637183
873I80909700I80979408I81033957I81230105I81563603I81914901I82184432
866I82425828I82783786I83270252I83690340I83853528I83809315I83792548
859I83961479I84238590I84462414I84640073I84915117I85324524I85733930
852I85998065I86073860I86041590I86064788I86162058I86203286I86143454
845I86100962I86221316I86441236I86622799I86755785I86886014I86904504
838I86461792I85624144I85298684I85557995I86044346I86533107I86832269
831I86896580I86917939I87091694I87379485I87537506I87314944I86790581
824I86600635I87070334I87712064I88252044I88691197I88992883I89091302
817I89021592I88865984I88753325I88817750I88950506I88801558I88247337
810I87694149I87477444I87547726I87792338I88018000I87959546I87545198
803I86937233I86213850I85266759I84531434I84502263I84746416I84790055
796I84503527I84046576I83605702I83138989I82515174I81619531I80288525
789I78468873I76367402I74082185I71429363I68184307I63914871I58030142
782I50265068I40630672I29022566I15585677I01068194H86960578H76264249
775H71136551H70046252H70096323H68683839H64052597H56875622H49222402
768H41547822H32264897H19743691H07650268H01949456H02285423H06450583
761H13258977H21804280H30614750H37630718H42022574H45350718H50095192
754H57595444H67777688H79955060H91715101H99133414I01494827I01339850
747I02054045I06749482I15699542I26292513I35891250I43005005I47497922
740I50305836I52366195I53986713I55181804I56095190I56847627I57435899
733I57796843I57887969I57691017I57150060I56247469I55142758I53920163
726I52294247I49886093I46581262I42292935I36656090I29606588I21641232
719I12710523I01645039H87391862H71491753H58149895H50200042H47654768
712H49367963H53644002H58362925H61881187H63973070H66049678H70141915
705H77253832H87105621H98388327I08977508I17355661I23424537I27591018
698I30218460I31907940I33184568I33947340I33597306I31610905I27961379
691I23139042I18049930I13779576I11059227I10053222I10744621I13138305
684I16965661I21427053I25489948I28539775I30359083I30544608I28450946
677I23650945I16363895I07664993H99440842H93978957H93095602H97004955
670I03782915I10259591I14065415I15443676I16907724I20763446I27103174
663I34069876I39779243I43608379I45799369I46667910I46357438I44862440
656I42064402I37798411I32005555I25250448I19371174I16949698I19290498
649I25061937I31378582I36054784I38645822I39793540I40159308I39923483
642I38850181I36555317I32742718I27356283I20736171I13748397I07688191
635I03880874I03111441I05212568I09213506I13919567I18307116I21533683
628I22966954I22395161I20040294I16261917I11432747I06164713I01470137
621H98616113H98761961I02386796I08740534I15937434I21818259I24872679
614I24628987I21555733I16718811I11272200I05919126I00722408H95486989
607H90347921H85951472H83107727H82321871H83581043H86385455H89772339
600H92343624H92664260H90091884H85182325H78898812H71493591H62759892
593H53448945H45657113H41244643H40166632H40661022H40686746H38986414
586H35472917H31337787H28564612H28611008H31303163H35081827H38224445
579H39666615H38750358H34635843H26703445H16072232H06361237H01983621
572H05227931H15059278H28487784H42673090H55946158H67641486H77544437
565H85527652H91496100H95462183H97572555H98159047H97848632H97451972
558H97518178H97960774H98123561H97231995H94980541H91858939H88798260
551H86457403H85044114H84815868H86369894H90108076H95467409I00919188
544I04905771I06766651I06759359I05416870I03143998I00455059H98420482
537H98574598I02046695I08687421I17123625I25599966I32704189I37572003
530I39778381I39110065I35325545I28069387I17298412I04380202H92783637
523H86573909H87241076H92189221H96643608H96631090H90122719H76342628
516H54845639H25350850G88694648G48437899G11180390F83839039F69470217
509F65821955F68183311F73177794F79687716F87170857F94389462G00157110
502G04835781G10443400G18934038G30395665G43035387G54747711G64368556
495G71528879G76048667G78095762G78752307G79824173G82891226G88718822
488G97488753H09115062H23009706H37681305H50877832H60427533H65365399
481H66714549H67224327H69810255H75618155H83291185H89983244H93211936
474H92354420H89048096H86228869H86342102H89929442H95398102H99943845
467I01135433H98231741H92298320H85191053H78265637H71358710H62461650
460H48962690H30514609H11296865G98784731G99157390H13189211H36169426
453H61304457H83204595H99172230I08594285I11854959I09750846I03333773
446H93626511H81475954H68315028H57139296H51824982H54608895H64185985
439H76631625H88379550H98380288I07614463I16988227I26022982I33373079
432I38005929I39540202I37881786I33294873I26872689I20204114I14145114
425I08187576I01447628H94369760H89237526H88579833H92972263I00701220
418I09372159I17175073I22867042I25790314I26310888I25429370I23663922
411I20990773I18023517I16234125I16177337I15884263I12001381I03064931
404H91683462H83328738H82610179H90211031I02994131I16623149I27954259
397I35527607I38628423I36278838I27570232I13622990H98890870H89187800
390H87763946H93526714I02735108I11600415I17497833I19211545I17439092
383I15101336I15965455I21852022I31153322I40421317I47078580I50202078
376I49413810I44301443I35379577I24994295I16314686I10842867I07124036
369I02605682H96707861H91024334H86339117H81036573H73619007H65866852
362H62178108H65844343H76467001H90635253I04474084I15707695I24032963
355I30102873I34315692I36383630I35590195I31067593I22047768I08634192
348H92863911H78779492H70787550H71255756H79152610H90816357I02262710
341I11232292I17598319I22343368I26326621I29717467I32217436I33670459
334I34461425I35369988I37087949I39817427I43139829I46126148I47686146
327I47144154I44673987I41146537I37618973I35077661I34393382I36027394
320I39503452I43111463I44306152I40977204I32994794I22774595I14300551
313I11217076I14938262I23887747I34719817I44616337I52517038I58622434
306I63412328I67164291I69988341I72141376I74187953I76667481I79656787
299I82794810I85652738I88022938I89957890I91605281I93064678I94409923
292I95694417I96877048I97898671I98830948I99793314A000784160A001736536
285A002668469A003707202A005000999A006540784A008037734A009155480A009914348
278A010594091A011167376A011233983A010761988A010477642A011083772A012359653
271A013462239A013920224A013949509A013981434A014234887A014637403A014917961
264A014782908A014107298A013010454A011800493A010816767A010233720A009983482
257A009889426A009856583A009932837A010182616A010489815A010579735A010342473
250A010002201A009792502A009596583A009079799A008008565A006246906A003686532
243A000528983I97596296I96113356I96974088A000046194A004180692A008036127
236A010971687A013067417A014488570A015237678A015438305A015425786A015466670
229A015479762A015013279A013507257A010551598A005842667I99225886I91282464
222I83741443I78801338I77960588I81382729I87779935I94884675A000634982
215A004172538A005774338A006200856A006268267A006371510A005655937A001741014
208I93908069I85531008I78640790I73469624I71287535I73566895I79630144
201I86692622I91685211I92679272I89689393I84968976I82004132I83261984
194I88594501I95644462A001481130A004253846A004211354A003197196A002834643
187A003337761A003955373A003940215A002952470A000955159I97995023I94199305
180I90115681I86865343I85330380I84909604I83296320I77125235I62586278
173I37536747I06185097H80684931H73719837H88344064I16162522I45146384
166I68060624I83844225I94195745A000918525A005134904A007267268A007475244
159A006208551A004371328A003000244A002512744A002325898A001862860A001657755
152A002517108A004166107A005537765A005734257A004151063A000617757I96123118
145I92507584I90948737I91406492I93672645I97996056A004020604A009880125
138A013440304A014358227A014013475A013659421A013504615A013281709A012904687
131A012513999A012340704A012665817A013647591A015027749A016257923A017085925
124A017656454A017861215A017233496A015828418A014449524A013686294A013429969
117A013543202A014349729A016045927A017882461A018320923A016219911A011740776
110A005909735I99953288I95466343I93789897I94490541I95958551I97616508
103A000335019A004489384A009023183A013030438A016474743A019254464A021100184
96A022204609A022855411A022746312A021448956A019239649A016889662A014545303
89A011358241A006851429A002301093A000009445A001074593A004408880A007951489
82A010400124A011728832A012673512A014085825A016519301A019987952A023811002
75A027008513A029275930A031008648A031900157A030560539A026486562A021217782
68A016456024A012981171A011483418A012702108A016688920A022342992A027945268
61A032365262A035210787A036014328A034860751A033451082A033652742A034689525
54A033572468A029218854A024288510A022051756A022785013A024631194A026770908
47A029759754A033286285A035300478A033609332A027786560A019187856A010168720
40A003221312I99411814I97706657I96478550I95729214I97111208A001016714
33A004225710A003938950A003972945A007473981A012156155A014798871A015697615
26A017897850A022777435A028579076A032514096A033200499A032046005A032797177
19A038695401A048002558A054177891A055386131A055097192A055169884A055442633
12A055653710A055971819A056287630A055402094A052256949A048292186A045882711
5A046265476A050581997A059551291A069244197A073741823
##END=


$$ === CHEMSPECTRA PEAK TABLE EDIT ===
##TITLE=X8738
##JCAMP-DX=5.00
##DATA TYPE=INFRAREDPEAKTABLE
##DATA CLASS=PEAKTABLE
##$CSTHRESHOLD=0.93
##MAXX=3997.453
##MAXY=1.1145866398243731
##MINX=373.96442
##MINY=0.6469704783989438
##$CSSOLVENTNAME=- - -
##$CSSOLVENTVALUE=0
##$CSSOLVENTX=0
##NPOINTS=39
##PEAKTABLE= (XY..XY)
423.5430362236416, 1.0336064545817958
466.0389929867374, 1.0499599437756946
492.9530989366981, 1.039155170195342
522.7002686708652, 1.0323206628324777
576.5284805707865, 1.0286441296708588
613.3583097654414, 0.9069558774835289
650.1881389601526, 1.0193592745800404
661.5203940969782, 1.0082350214451394
684.1849043706293, 1.0151619153793436
715.3486059968996, 1.0355445598209512
815.9223703362, 0.9458795002059172
862.6679227756058, 0.9039120471657349
885.3324330492569, 0.8949751045748876
924.9953260281468, 0.9215342201766562
941.9937087333851, 0.9161844054261062
968.9078146833463, 0.9223811432733701
998.6549844175133, 0.8842281487677853
1019.9029627990617, 0.8291702625318207
1041.1509411806096, 0.9199407493080993
1093.5626211884282, 0.6911496224216135
1113.394067677873, 0.9202989145261873
1134.6420460594213, 0.9325961276091354
1150.2238968725565, 0.9184739981739596
1184.2206622830336, 0.8324908373477536
1199.8025130961687, 0.8600829612710964
1208.3017044487879, 0.8721263186312904
1228.1331509382326, 0.9158851302762787
1252.2141931039873, 0.932799200353686
1270.6291077013288, 0.9374655292822077
1294.7101498670836, 0.9518301894270106
1324.4573196012507, 0.9270686907713994
1345.705297982799, 0.9446713735489134
1382.535127177482, 0.8798993010782896
1454.7782536747459, 0.8324553727214031
1718.2531856059418, 0.6469704783989438
2848.6456355043, 0.816172872986508
2868.477081993745, 0.7930859077957061
2932.2210171383895, 0.6888694467699186
3063.958483103995, 0.9730301915185967
##END=


$$ === CHEMSPECTRA PEAK TABLE AUTO ===
##TITLE=X8738
##JCAMP-DX=5.00
##DATA TYPE=INFRAREDPEAKTABLE
##DATA CLASS=PEAKTABLE
##$CSTHRESHOLD=0.93
##MAXX=3997.453
##MAXY=1.1145866398243731
##MINX=373.96442
##MINY=0.6469704783989438
##NPOINTS=205
##PEAKTABLE= (XY..XY)
3993.2034043236904, 1.0053379969299578
3976.205021618452, 1.0055971570355788
3971.9554259421425, 1.0056405491711182
3949.290915668491, 1.0053599317468584
3935.125596747459, 1.006319804981369
3928.042937286943, 1.006145878315515
3918.1272140422207, 1.0059913827148053
3895.462703768569, 1.0031201078124217
3882.7139167396404, 1.0061260891266741
3878.4643210633308, 1.0058591800546925
3871.381661602815, 1.0050548747159018
3862.8824702501956, 1.0051277118855715
3850.1336832212664, 1.005140706066536
3838.801428084441, 1.0065495210908997
3831.718768623925, 1.007409615873367
3817.553449702893, 1.0040996508612077
3800.555066997654, 1.0069725949314288
3792.055875645035, 1.0068688823089222
3779.3070886161063, 1.0063171818550471
3762.308705910868, 1.0068566043753506
3749.5599188819388, 1.0078599891199662
3743.893791313526, 1.006242198019278
3736.81113185301, 1.0066380939043815
3732.5615361767004, 1.0065211483517795
3725.4788767161845, 1.0066271249388716
3709.8970259030493, 1.0074906784696194
3699.981302658327, 1.007164758916772
3684.3994518451914, 1.0054371795472135
3674.483728600469, 1.006527347524868
3667.401069139953, 1.0074100923335891
3656.0688140031275, 1.0092919306308061
3643.3200269741983, 1.0074906784696194
3634.820835621579, 1.0070573519109733
3623.4885804847536, 1.0076920228780695
3616.4059210242376, 1.0073237855607724
3602.2406021032057, 1.005493207740021
3582.4091556137605, 1.0046266750353343
3576.7430280453477, 1.0042391260274584
3566.8273048006254, 1.0041435194569692
3551.2454539874902, 1.0036879020338056
3538.4966669585615, 1.0018394429411819
3531.414007498045, 1.0023713542062163
3522.914816145426, 1.0029268694559887
3498.8337739796716, 0.9994705159331767
3487.501518842846, 0.9987235498313346
3476.1692637060205, 0.9982762772093192
3469.086604245504, 0.9984038304896155
3459.1708810007817, 0.9988624291627975
3445.00556207975, 0.9986443951520507
3435.0898388350274, 0.9977326226011588
3418.0914561297886, 0.9937569336642779
3398.260009640344, 0.994720382945555
3382.678158827209, 0.9941875768902992
3364.2632442298673, 0.9951299861448971
3358.597116661454, 0.9950277641473999
3347.2648615246285, 0.9941218928522024
3335.932606387803, 0.9939054678029906
3330.26647881939, 0.9937313034260452
3321.767287466771, 0.9942747182470348
3296.269713408913, 0.9930251665397232
3287.770522056294, 0.9937949010043451
3280.687862595778, 0.9941923456446811
3255.1902885379204, 0.9947029189656422
3239.608437724785, 0.9926281402293863
3229.6927144800625, 0.9928068948178851
3215.5273955590305, 0.9917576141859737
3199.945544745895, 0.9909704759477417
3185.780225824863, 0.9907468988049969
3175.8645025801407, 0.9910998769387039
3163.115715551212, 0.9897770116015003
3156.033056090696, 0.99021814525673
3139.034673385457, 0.9885837268361272
3129.118950140735, 0.9885728191149595
3112.1205674354965, 0.9870644633496439
3103.6213760828773, 0.987015408707541
3092.2891209460513, 0.9861410086999681
3059.708887427678, 0.9690766159414449
2998.79801606724, 0.9344055460286421
2932.2210171383895, 0.6888694467699186
2898.2242517279124, 0.7987342824867303
2868.477081993745, 0.7930859077957061
2848.6456355043, 0.816172872986508
2755.1545306254884, 0.9807997172933949
2735.3230841360437, 0.9782192533651252
2731.073488459734, 0.9783088984736171
2682.911404128225, 0.9867625661115341
2672.9956808835027, 0.9882966704516083
2664.496489530883, 0.9880172436588843
2644.6650430414384, 0.9899606532809068
2619.167468983581, 0.9917831852559436
2609.2517457388585, 0.9922000599233842
2590.836831141517, 0.9945043751883026
2579.504576004691, 0.9955236149512958
2554.007001946833, 1.0005293319977722
2544.0912787021107, 1.002670092689519
2532.759023565285, 1.0035635656385395
2522.843300320563, 1.004781170636044
2507.2614495074276, 1.007103604883926
2498.7622581548085, 1.0066285553575782
2486.0134711258797, 1.0082470616676198
2470.431620312744, 1.0093708475989986
2459.0993651759186, 1.0094224651611208
2443.517514362783, 1.0102673017980377
2432.1852592259575, 1.0107179117176885
2423.6860678733383, 1.0120965675366085
2412.3538127365127, 1.0119647219621526
2406.6876851681, 1.0118898585389886
2398.188493815481, 1.012467425904148
2391.105834354965, 1.0129248339457941
2381.1901111102425, 1.0132639843526576
2364.1917284050037, 1.0175468167802921
2348.6098775918686, 1.0156006054891193
2328.7784311024234, 1.0149084759105091
2316.0296440734946, 1.015909596690539
2308.9469846129787, 1.01517967831469
2300.4477932603595, 1.0158454603696347
2293.3651337998435, 1.0143260193783628
2279.1998148788116, 1.0163259948977572
2265.0344959577797, 1.0167135439056332
2257.9518364972632, 1.0173603734317354
2242.369985684128, 1.016870779931151
2226.7881348709925, 1.0203741037123484
2218.2889435183733, 1.021587297041128
2208.373220273651, 1.0220960807816462
2182.8756462157935, 1.0270085777109037
2170.1268591868647, 1.0327127418456044
2154.5450083737296, 1.0335004779947037
2141.7962213448004, 1.0291568486198799
2124.797838639562, 1.022208137167261
2117.7151791790457, 1.0237304410720258
2110.6325197185297, 1.0215341296857336
2106.38292404222, 1.0214287478953896
2093.6341370132914, 1.0227541159463098
2082.301881876466, 1.024360582033871
2072.3861586317435, 1.0228045428768962
2063.8869672791243, 1.0213077498357988
2048.305116465989, 1.026936218039496
2034.1397975449568, 1.0306433879048207
2012.8918191634086, 1.0252390345484328
2000.1430321344799, 1.030540509866233
1988.8107769976543, 1.0322516414967453
1976.0619899687254, 1.0327659092009986
1964.7297348318998, 1.0282365527250112
1959.063607263487, 1.0275268999982252
1950.5644159108676, 1.0278363676598672
1936.3990969898355, 1.0253622965726092
1929.3164375293195, 1.0258180344083783
1925.06684185301, 1.025759026003592
1916.5676505003908, 1.0245805229235467
1913.7345867161844, 1.0245656208256135
1908.0684591477716, 1.0245732504174085
1898.1527359030492, 1.0250872804105706
1889.6535445504296, 1.0260335646673686
1878.321289413604, 1.0254037818292199
1872.6551618451913, 1.0244837246834821
1857.0733110320562, 1.0247214285085042
1848.574119679437, 1.0255934431008464
1838.6583964347146, 1.023119612838799
1821.6600137294758, 1.0230143514610601
1718.2531856059418, 0.6469704783989438
1590.7653153166534, 1.0212157213881556
1576.5999963956215, 1.023550316271123
1569.5173369351055, 1.0236119467641913
1556.7685499061763, 1.0227791503497548
1539.770167200938, 1.0241306271752095
1527.0213801720092, 1.0263652048570024
1518.52218881939, 1.0250407897265268
1504.3568698983577, 1.021952433733841
1468.9435725957778, 0.9031425504122044
1454.7782536747459, 0.8324553727214031
1432.1137434010943, 0.935626547492045
1382.535127177482, 0.8798993010782896
1345.705297982799, 0.9446713735489134
1324.4573196012507, 0.9270686907713994
1294.7101498670836, 0.9518301894270106
1270.6291077013288, 0.9374655292822077
1252.2141931039873, 0.932799200353686
1228.1331509382326, 0.9158851302762787
1208.3017044487879, 0.8721263186312904
1199.8025130961687, 0.8600829612710964
1184.2206622830336, 0.8324908373477536
1164.3892157935884, 0.9315907757792884
1150.2238968725565, 0.9184739981739596
1134.6420460594213, 0.9325961276091354
1113.394067677873, 0.9202989145261873
1093.5626211884282, 0.6911496224216135
1041.1509411806096, 0.9199407493080993
1019.9029627990617, 0.8291702625318207
998.6549844175133, 0.8842281487677853
968.9078146833463, 0.9223811432733701
941.9937087333851, 0.9161844054261062
924.9953260281468, 0.9215342201766562
915.0796027834244, 0.9499115162910392
885.3324330492569, 0.8949751045748876
862.6679227756058, 0.9039120471657349
828.6711573651287, 0.9699374259332654
815.9223703362, 0.9458795002059172
713.9320741047691, 1.0340052092282332
684.1849043706015, 1.0151619153793436
661.5203940969504, 1.0082350214451394
650.1881389601249, 1.0193592745800404
613.3583097654414, 0.9069558774835289
576.5284805707583, 1.0286441296708588
524.1168005629397, 1.0315933665449109
423.54303622361203, 1.0336064545817958
##END=

##END=

