##TITLE=X7653
##JCAMP-DX=4.24
##DATA TYPE=INFRARED SPECTRUM
##DATE=29/10/2018
##SAMPLING PROCEDURE=Diamant-ATR
##ORIGIN=ComPlat
##XUNITS=1/CM
##YUNITS=TRANSMITTANCE
##RESOLUTION=4
##FIRSTX=3997.453
##LASTX=373.96442
##DELTAX=-1.4165319
##MAXY=0.98398644
##MINY=0.84869003
##XFACTOR=1
##YFACTOR=9.1640878e-010
##NPOINTS=2559
##FIRSTY=0.964818
##XYDATA=(X++(Y..Y))
3997+1052824917+1053236630+1053388112+1053097116+1052725468+1052558832
3989+1052573206+1052803843+1053383233+1054135439+1054654210+1054873465
3980+1055077501+1055288430+1055142867+1054479964+1053636765+1053055359
3972+1052872137+1053004497+1053339330+1053690945+1053771597+1053396502
3963+1052754087+1052360780+1052562539+1053106417+1053417836+1053159686
3955+1052408586+1051570721+1051203301+1051586786+1052371382+1052891649
3946+1052854055+1052556881+1052623483+1053445413+1054528420+1054958345
3938+1054608811+1054051470+1053536927+1052871812+1052210014+1052103086
3929+1052570409+1052991553+1052966903+1052680980+1052550311+1052641435
3921+1052603645+1052162013+1051449939+1050951720+1051126227+1052003507
3912+1053257638+1054527184+1055435554+1055493506+1054402565+1052563840
3904+1051035689+1050498186+1050594577+1050905801+1051578461+1052682281
3895+1053791239+1054323084+1054083536+1053615627+1053582065+1053753320
3887+1053436437+1052356097+1050922842+1049717817+1049130882+1049655898
3878+1051252017+1052885601+1053513772+1052785176+1051235627+1049926210
3870+1049805038+1051011168+1052501465+1053164694+1052786022+1051977556
3861+1051366295+1051024827+1050913801+1051120633+1051508216+1051408507
3853+1050486933+1050147742+1051107690+1052508685+1053555463+1053876248
3844+1053343688+1052067248+1050593992+1049693036+1049758013+1050562577
3836+1051636738+1052702834+1053491463+1053672733+1053281183+1052805730
3827+1052709338+1053095295+1053683400+1053946949+1053348826+1051980482
3819+1050845507+1050654155+1051453906+1052909341+1054296352+1054998540
3810+1054774082+1053752084+1052638313+1052324942+1052529693+1052032516
3802+1050479714+1049237095+1049793525+1051887083+1054393264+1056121873
3793+1056415340+1055635687+1054641202+1054074235+1054003665+1054032218
3785+1053829549+1053520991+1053353444+1053214906+1052889568+1052550246
3776+1052576978+1053128141+1054098040+1055115095+1055603622+1055228982
3768+1054342791+1053642749+1053602944+1054196578+1054823448+1054724520
3759+1053634424+1052229917+1051503988+1051532801+1051509256+1050558479
3751+1048802487+1047795449+1048212235+1048947400+1048747137+1047213327
3742+1045521011+1044666300+1044288734+1043822126+1043311030+1043432917
3734+1044616544+1046522586+1048747527+1050970777+1052671809+1053316826
3725+1052819583+1051720967+1050665472+1049974536+1049827347+1050287061
3717+1051065998+1051592380+1051438166+1050773832+1050502218+1051329612
3708+1052736135+1053866817+1054342401+1054113065+1053377120+1052590962
3700+1052120127+1051945360+1051971312+1052281820+1053024790+1054192415
3691+1055455197+1056165125+1055854162+1054885563+1053888151+1053072010
3683+1052390895+1051745032+1051152243+1050764726+1050607260+1050658513
3674+1051050258+1051398296+1050907817+1049657914+1049386756+1051159918
3666+1053485023+1054642568+1054261945+1053170873+1052365073+1052097492
3657+1052166957+1052547905+1053084823+1053100693+1052021979+1050061757
3649+1048413734+1048225179+1049466497+1051576249+1053771922+1055180787
3640+1055560564+1055455002+1055172071+1054285425+1052556751+1050592301
3632+1049024864+1047733269+1046679987+1046826915+1048319619+1049917885
3623+1050887199+1051316929+1051520444+1051608770+1051602331+1051548672
3615+1051370263+1051138194+1051285123+1051992190+1052923975+1053885419
3606+1054810180+1055171161+1054490436+1053086124+1051794464+1051112698
3598+1050882776+1050745474+1050538772+1050400103+1050456429+1050400688
3589+1049815900+1049067011+1049445098+1051348799+1053470129+1054494859
3581+1054177651+1053329444+1052904202+1052964821+1053036692+1053078904
3572+1053280663+1053368014+1052933796+1052168648+1051769097+1051979767
3564+1052410407+1052909796+1053616407+1054489720+1055172526+1055256105
3555+1054617007+1053559691+1052695289+1052487872+1052788949+1053057375
3547+1052911162+1052366049+1051835895+1051950693+1053085083+1054852522
3538+1056201484+1056324998+1055478742+1054561331+1054018559+1053625123
3530+1053104661+1052536588+1052188876+1052244876+1052851584+1054102788
3521+1055627557+1056576513+1056492935+1055965708+1055922325+1056326429
3513+1056185288+1054997435+1053646652+1053417445+1054357946+1055321537
3504+1055475750+1055101566+1054894409+1054921206+1054780911+1054376353
3496+1053967437+1053744995+1053729124+1053900964+1054208090+1054612584
3488+1055203876+1056009676+1056700808+1056787833+1056161288+1055276268
3479+1054667544+1054467086+1054568681+1054919320+1055380074+1055649086
3471+1055631329+1055517832+1055343846+1054942605+1054405882+1054044186
3462+1053876964+1053662262+1053404697+1053456535+1054092056+1055108330
3454+1055937935+1056256119+1056318038+1056507179+1056747898+1056585229
3445+1055734485+1054454143+1053453088+1053300371+1053714295+1053796247
3437+1053177962+1052456717+1052305560+1052667386+1053070904+1053315135
3428+1053536211+1053834622+1054073780+1054021486+1053637871+1053182060
3420+1052945699+1052975423+1053160921+1053389868+1053475592+1053195003
3411+1052604101+1052139964+1052263218+1053040074+1054095048+1054916978
3403+1055198413+1054946637+1054395800+1053809060+1053257573+1052636557
3394+1051989783+1051607079+1051659242+1052012938+1052500490+1052985504
3386+1053164824+1052821470+1052371252+1052616914+1053683790+1054662145
3377+1054706048+1054137585+1053918525+1054352808+1054882051+1054950930
3369+1054607185+1054347214+1054496420+1054736228+1054568616+1054283083
3360+1054716520+1055908146+1056879412+1056978535+1056583017+1056246948
3352+1056012668+1055809413+1055785543+1055976050+1056136962+1056045449
3343+1055652143+1055026768+1054423248+1054132512+1054042560+1053713710
3335+1053069083+1052621207+1052883584+1053817256+1054889140+1055550873
3326+1055665216+1055511133+1055428790+1055523946+1055601085+1055345537
3318+1054716260+1054131797+1054122691+1054853563+1055954326+1056714011
3309+1056626660+1055902813+1055266056+1055215779+1055640826+1055971822
3301+1055648956+1054703902+1053795337+1053443787+1053568407+1053934591
3292+1054485362+1055059940+1055365960+1055384042+1055368367+1055399521
3284+1055334935+1055248365+1055517247+1056236086+1056829070+1056682531
3275+1056031270+1055679720+1055906976+1056270623+1056435958+1056478691
3267+1056354071+1055878357+1055381050+1055567979+1056491959+1057368589
3258+1057581470+1057243254+1056674271+1055955822+1055153014+1054548843
3250+1054501753+1055147616+1056170654+1056886436+1056819378+1056332347
3241+1056307046+1056967673+1057488136+1057189985+1056580676+1056526952
3233+1056981917+1057261726+1057038503+1056464512+1055835885+1055582939
3224+1056058522+1056967088+1057489176+1057279677+1056915900+1057027316
3216+1057443842+1057639487+1057611064+1057759359+1058125543+1058281447
3207+1057975232+1057489436+1057210408+1057089041+1056840907+1056555505
3199+1056637197+1057170798+1057792270+1058118974+1057965866+1057357272
3190+1056539635+1055692078+1054716130+1053687758+1053138222+1053377900
3182+1053934656+1054074820+1053528081+1052483384+1051178325+1049735964
3173+1048298806+1047103147+1046333901+1046024303+1046113800+1046432243
3165+1046711922+1046823663+1046805907+1046543790+1045813633+1044705130
3156+1043594871+1042837072+1042763965+1043521374+1044630527+1045274764
3148+1045140193+1044497322+1043676043+1042921106+1042380090+1041974361
3139+1041713154+1042013581+1043107189+1044439175+1045291220+1045676786
3131+1046099101+1046791988+1047631479+1048475849+1049274429+1049981626
3122+1050530771+1050870548+1051007721+1051032892+1051081088+1051172406
3114+1051113804+1050683164+1049918145+1049110329+1048569248+1048444043
3105+1048604891+1048653412+1048307196+1047756164+1047322467+1046943665
3097+1046398357+1045815129+1045503450+1045481986+1045551906+1045684266
3088+1046077377+1046947372+1048303228+1049755606+1050619748+1050507096
3080+1049797558+1049197225+1048870326+1048453279+1047893011+1047665236
3071+1047988753+1048368530+1048186934+1047381460+1046422552+1045892659
3063+1046036401+1046484081+1046567335+1046002059+1045002240+1043806776
3054+1042570271+1041609348+1041191521+1041098706+1040817597+1040123734
3046+1039180111+1038108942+1036760826+1035013484+1033120125+1031495907
3037+1030194231+1028893595+1027371753+1025638201+1023657816+1021315344
3029+1018670690+1016033385+1013761549+1011967248+1010455878+1009182754
3020+1008597120+1009038882+1010023221+1010817379+1011490038+1012637501
3012+1014335476+1016098882+1017638286+1019037004+1020354551+1021478469
3003+1022295911+1022832373+1023205972+1023483569+1023704255+1024062634
2995+1024765408+1025652315+1026359902+1026892137+1027610195+1028694178
2986+1029953772+1031046015+1031698057+1031899815+1031932336+1032076468
2978+1032448311+1033162402+1034248466+1035345326+1035940001+1035973237
2969+1035854472+1035925757+1036202379+1036543522+1036828274+1036957446
2961+1036843558+1036473602+1035889854+1035076380+1034020300+1032889488
2952+1031907100+1031070276+1030299728+1029814453+1029976927+1030749816
2944+1031646609+1032297284+1032818852+1033536716+1034586877+1035979872
2935+1037767474+1039788314+1041469638+1042310105+1042472254+1042625817
2927+1043313306+1044562624+1045981961+1047170335+1048038965+1048663168
2918+1048949611+1048696665+1047938085+1047041683+1046431398+1046221704
2910+1046138906+1045906057+1045639127+1045658054+1045987359+1046313412
2901+1046375657+1046188793+1045938968+1045817796+1045908529+1046128369
2893+1046325965+1046472244+1046678556+1047014365+1047424842+1047825889
2884+1048150966+1048383945+1048672860+1049234428+1049968097+1050401794
2876+1050205238+1049566596+1048978945+1048828829+1049159826+1049667345
2867+1049939284+1049794696+1049393845+1049101223+1049253160+1049907999
2859+1050766482+1051394328+1051529289+1051214878+1050703001+1050174669
2850+1049546888+1048681445+1047719871+1047016121+1046780606+1046917258
2842+1047150367+1047298597+1047445200+1047758571+1048182251+1048517150
2833+1048759950+1049080865+1049516774+1049934926+1050253564+1050502153
2825+1050715945+1050907557+1051074324+1051121154+1050883297+1050380330
2816+1049951121+1049947609+1050342216+1050780531+1050988729+1051050779
2808+1051266391+1051734625+1052169753+1052236616+1051917847+1051410458
2799+1050895394+1050568821+1050608756+1050948468+1051294229+1051421971
2791+1051330392+1051192894+1051254489+1051641096+1052199282+1052610540
2782+1052672524+1052437985+1052129037+1051966759+1052031475+1052198111
2774+1052198372+1051891245+1051521809+1051533972+1052097752+1053013928
2765+1054000087+1054798603+1055155746+1054993337+1054521070+1054020901
2757+1053639822+1053396632+1053242158+1053144401+1053180564+1053420372
2748+1053716506+1053816931+1053712929+1053659270+1053781613+1053894850
2740+1053857061+1053879305+1054234887+1054818245+1055258511+1055371358
2731+1055230674+1054899157+1054414272+1053995405+1053917940+1054128219
2723+1054278465+1054211082+1054134658+1054256937+1054523997+1054773041
2714+1054926669+1055006931+1055125762+1055443164+1055999465+1056596286
2706+1056921624+1056836549+1056514919+1056239208+1056075888+1055860536
2697+1055517377+1055246414+1055304040+1055676924+1056085840+1056295729
2689+1056277712+1056058457+1055660078+1055286154+1055287780+1055744892
2680+1056300932+1056563635+1056474463+1056186004+1055817348+1055453311
2672+1055204722+1055146250+1055270739+1055502027+1055694290+1055712371
2663+1055596662+1055511783+1055470612+1055308008+1054978117+1054702406
2655+1054779415+1055336821+1056182101+1056845785+1056949331+1056603636
2646+1056281810+1056295144+1056537228+1056703539+1056600774+1056231988
2638+1055711070+1055174152+1054779350+1054721593+1055128819+1055883561
2629+1056625229+1057039544+1057116228+1056983934+1056593684+1055873349
2621+1055135518+1054852977+1054970768+1054995418+1054825920+1054848880
2612+1055157762+1055443099+1055702095+1056272834+1057118374+1057786806
2604+1058071168+1058127429+1057991492+1057484038+1056653848+1055975464
2595+1055867560+1056177158+1056477975+1056734889+1057173074+1057641438
2587+1057705439+1057319938+1056943673+1057029072+1057569372+1058094518
2578+1058185966+1057996500+1057982126+1058265902+1058692445+1059184289
2570+1059540326+1059408097+1059021360+1059310340+1060632179+1061991547
2561+1062165273+1061122527+1059721142+1058538361+1057681764+1057262832
2553+1057324816+1057578803+1057667715+1057459062+1056942892+1056270168
2544+1055942813+1056470235+1057732692+1058996384+1059591579+1059464618
2536+1059134857+1059171086+1059670410+1060312240+1060840637+1061221781
2527+1061388482+1061249748+1060908150+1060436339+1059637629+1058579858
2519+1058023688+1058603793+1059866185+1060784896+1060955826+1060770197
2510+1060768441+1061209683+1061914343+1062338869+1062110638+1061447540
2502+1060741709+1060032691+1059293559+1058871764+1059136939+1059902153
2493+1060559072+1060664309+1060224889+1059587482+1059218436+1059476781
2485+1060426648+1061734763+1062747395+1062902909+1062273242+1061526305
2476+1061164869+1061014298+1060633935+1060013309+1059616490+1059809403
2468+1060362647+1060628732+1060318158+1059914510+1059973048+1060247978
2459+1060087586+1059494147+1059054141+1058943830+1058836057+1058752673
2451+1059151443+1060062415+1060853385+1061002265+1060580796+1059933373
2442+1059354958+1059074109+1059120678+1059176874+1058918399+1058516377
2434+1058458490+1058893488+1059510147+1060050512+1060520568+1060911532
2425+1061124804+1061170203+1061109584+1060967923+1060955175+1061392515
2417+1062139842+1062558384+1062325145+1061829659+1061589395+1061678307
2408+1061849692+1061926115+1061973206+1062114736+1062221794+1061989336
2400+1061407019+1060843564+1060567723+1060515885+1060596796+1060898719
2391+1061517004+1062322804+1062843266+1062399488+1060679724+1058195853
2383+1055789641+1053704474+1051546330+1049098622+1046671661+1044603925
2374+1042858926+1041141244+1039088012+1036456496+1033294892+1029885674
2366+1026766411+1024861605+1024757928+1025707795+1026413886+1026799257
2357+1027836605+1029887950+1032401481+1034864344+1037084017+1038785049
2349+1039520473+1038920855+1037078293+1034858555+1033369624+1032935862
2340+1033153166+1033680588+1034582779+1035998799+1037641553+1038912270
2332+1039549157+1039729582+1039510132+1038786284+1037839475+1037311988
2323+1037588219+1038540492+1039908641+1041576437+1043331388+1044708772
2315+1045348586+1045401010+1045375188+1045638997+1046284469+1047403444
2306+1049065125+1050948143+1052448847+1053331590+1053964380+1054806277
2298+1055898130+1056808386+1056918372+1056038620+1054917043+1054664617
2289+1055542938+1056831736+1057873377+1058577321+1058939278+1058851732
2281+1058475401+1058230130+1058296927+1058414522+1058216666+1057656788
2272+1057044617+1056660417+1056468479+1056349583+1056496252+1057313369
2264+1058797227+1060160107+1060460404+1059680621+1058692055+1058080404
2255+1057726448+1057565275+1057690350+1057711423+1057308036+1057316101
2247+1058778430+1061039599+1062299909+1062059581+1061624778+1062074020
2238+1062862844+1062762420+1061540614+1060237767+1059910998+1060498258
2230+1061091697+1061135015+1061052087+1061639022+1063083595+1064839652
2221+1066220223+1066688913+1065878755+1063998794+1062109403+1061416905
2213+1062274153+1063988713+1065507238+1066251118+1066355965+1066176841
2204+1065823470+1065272113+1064485500+1063360997+1062038507+1061038884
2196+1060602520+1060228921+1059273786+1057732106+1056321615+1055814812
2187+1056092864+1056185418+1055775462+1055986131+1057854515+1060940086
2179+1064130308+1066649563+1067792668+1067032007+1065011036+1063389485
2170+1063257776+1064205627+1064997833+1064814480+1063919834+1063725555
2162+1065804543+1069639978+1071918643+1070330719+1066812427+1064609144
2153+1064913929+1066920331+1068892650+1069427552+1068680745+1067791757
2145+1067018999+1065701777+1063665326+1061357392+1059343706+1058636054
2136+1060366029+1064234830+1068352220+1071062046+1071901863+1070980679
2128+1068693688+1065936772+1063745978+1062758582+1063138815+1064445370
2119+1065478294+1065158160+1063875281+1063152604+1063685684+1064541176
2111+1064659551+1064252001+1064066503+1063999445+1063307988+1061997596
2102+1061139243+1061486890+1062408724+1062826616+1062766322+1063068115
2094+1063842435+1064310994+1064067088+1063538495+1063234686+1063218491
2085+1063214263+1062738810+1061452353+1059943389+1059654149+1061184642
2077+1063141872+1063710075+1063007626+1062613214+1063141352+1063757946
2068+1063901492+1064090958+1064852595+1065774624+1065955960+1064955751
2060+1063027269+1060854556+1059476976+1059922055+1061867578+1062963463
2051+1060962720+1056764743+1054159049+1055875561+1060776311+1065729225
2043+1069083027+1071184845+1072350975+1071920074+1069622612+1066662701
2034+1064545924+1063590073+1063478917+1064332393+1066011245+1067434029
2026+1068080217+1069031449+1070856255+1071762414+1069809411+1065817616
2017+1062447358+1061667966+1064022990+1068298106+1071362148+1070968712
2009+1068798275+1067940767+1068159502+1066892298+1063833069+1061439475
2000+1061755381+1064361661+1066814768+1066855419+1064740593+1063139010
1992+1064181561+1066941014+1068730242+1068078786+1065380342+1061826277
1983+1058797422+1057732367+1059610246+1064262538+1069950551+1073741823
1975+1073612520+1070516153+1067256595+1065394521+1064427939+1063729978
1966+1063580252+1064049397+1064605957+1065207006+1066369494+1067945060
1958+1068845235+1068146624+1065913683+1063239955+1061812878+1062804371
1949+1065671078+1068436254+1069601538+1069394706+1068867349+1068501751
1941+1068295309+1068542077+1069545538+1070867832+1071572232+1071149852
1932+1069877900+1068562890+1068041972+1068303439+1068205031+1066922282
1924+1065372797+1065123623+1066186142+1067399036+1068323992+1069295908
1915+1070081740+1069902160+1068723282+1067624861+1067573933+1068225649
1907+1068688030+1068892846+1069214216+1069436268+1069119125+1068514239
1898+1068251601+1068451148+1068749169+1068924326+1068995351+1068834829
1890+1068267016+1067766261+1068362107+1070279401+1072262778+1072795924
1881+1071903294+1070925589+1070625878+1070564934+1070245775+1069864501
1873+1069770516+1069836663+1069517375+1068537719+1067613218+1067699919
1864+1068757559+1069948730+1070489681+1070159335+1069348136+1068839121
1856+1069254086+1070448444+1071650672+1072227721+1072101085+1071549468
1847+1070863279+1070176831+1069633864+1069521212+1069899429+1070520836
1839+1071177820+1071647290+1071530215+1070623991+1069217013+1067783627
1830+1066826411+1066852167+1067874100+1069290575+1070412346+1070915312
1822+1070941784+1070878434+1071104583+1071665632+1072132370+1072096207
1813+1071632135+1071066989+1070601032+1070369484+1070541519+1071004289
1805+1071250276+1070890076+1070135855+1069575196+1069514253+1069769020
1796+1069971885+1069798874+1069164654+1068512157+1068494596+1069080425
1788+1069688434+1069817606+1069343518+1068630013+1068224739+1068369196
1779+1068836455+1069215842+1069295388+1069033921+1068396383+1067573803
1771+1067119878+1067280075+1067698618+1067853937+1067417573+1066400974
1762+1065174290+1064192033+1063423242+1062504660+1061384449+1060339622
1754+1059430731+1058239040+1056257680+1053813743+1051938531+1050739620
1745+1049450691+1047686309+1045516328+1042814958+1039544864+1036204070
1737+1032702038+1027421835+1018705422+1008105081+997879834+987593904+976879480
1727+966236992+955855580+946122113+938208183+932660464+928787045+926182131
1717+926104211+929551868+934986155+940791438+946499484+951861184+956657673
1707+961256826+966229902+971245906+975749968+980078939+984635164+988961077
1697+993070988+997499927+1001776669+1005198764+1007895972+1010186801+1012025330
1687+1013153736+1013580799+1014226726+1016305714+1019151217+1021628194
1679+1023425357+1024540560+1025187788+1025830854+1026668264+1027644082
1670+1029179453+1031691552+1034356890+1036195940+1037197840+1037840710
1662+1038514281+1039186290+1039613808+1039665126+1039308113+1038661209
1653+1038420556+1039038515+1039572311+1039673776+1040024090+1041472825
1645+1043489959+1044951247+1045644330+1045880496+1045995619+1046220403
1636+1046851956+1048037794+1049186298+1049700776+1049472480+1048652502
1628+1047575153+1046570717+1045720949+1044982012+1044360995+1043700108
1619+1042487278+1040153263+1036924730+1033858737+1030971217+1027394973
1611+1022907822+1018498135+1015802748+1015801447+1018254489+1022202836
1602+1026506831+1030191239+1032837064+1034682553+1036237436+1037807019
1594+1039247039+1040129262+1040217459+1039656085+1038599030+1036923234
1585+1034492762+1031407386+1027892215+1024200587+1020536992+1017159840
1577+1015208528+1016320544+1019657565+1023167923+1026323153+1029473766
1568+1032440506+1034425249+1034942069+1034017373+1031780659+1027648310
1560+1020554163+1013302811+1010457048+1009535540+1008077373+1005963328
1551+1003820924+1002604778+1003142801+1005406507+1008842977+1012819552
1543+1016564840+1020227915+1025335237+1031034633+1035013549+1037200767
1534+1038683519+1040496422+1042556092+1044064211+1044808481+1045083347
1526+1044982402+1044143236+1042368578+1040298825+1038961441+1038664527
1517+1039472798+1041437898+1043864728+1045718738+1046359982+1045516328
1509+1043555521+1042832714+1045913537+1050008748+1052401236+1053139978
1500+1052761371+1051600380+1049764777+1047391866+1044838140+1042325910
1492+1039998984+1038550834+1039147915+1041746910+1044876124+1047452030
1483+1049375959+1051077836+1052775225+1054069747+1054379540+1053529967
1475+1051913620+1050431258+1049968552+1050217401+1050036716+1048623753
1466+1045711583+1041840961+1038205398+1035190137+1032055915+1028090592
1458+1024256458+1023498984+1025775633+1028500289+1030513910+1031467094
1449+1031106309+1029466676+1026802444+1022752958+1016107793+1006291267
1441+994928834+985236343+980699240+983433001+990593035+997151954+1001572633
1431+1004527536+1006916967+1009487734+1012710933+1016707606+1020976348
1422+1024444753+1026320226+1026642897+1026290502+1026275153+1026905730
1414+1028117129+1029790973+1031650316+1033285461+1034429346+1035180251
1405+1035876521+1036649539+1037228734+1037347435+1037048699+1036525570
1397+1035807447+1034810099+1033612424+1032234454+1030318265+1027488373
1388+1024110635+1021660650+1021508713+1023465878+1026476651+1029745704
1380+1032941781+1035911578+1038436231+1040369721+1041867172+1043150897
1371+1044130488+1044603340+1044635991+1044533160+1044507664+1044599503
1363+1044901165+1045568882+1046512700+1047389915+1047960395+1048316627
1354+1048759950+1049439504+1050223450+1050914386+1051429906+1051786073
1346+1052001491+1051990499+1051525582+1050413046+1048767625+1046941193
1337+1044979801+1042484352+1039139915+1034979923+1030185190+1024952077
1329+1019696525+1015293603+1012905928+1013285705+1016019336+1019557987
1320+1022168754+1022919464+1022025208+1020598131+1020087490+1021462208
1312+1024353630+1027145083+1028199927+1026850965+1023353356+1018330458
1303+1012481922+1006690362+1001974330+998957963+997310851+995768196+992824155
1293+987597026+980203818+971446494+962247213+953377823+945531471+939401305
1283+935565284+934237656+935061733+937165176+939475387+941082043+941549627
1273+941136353+940689973+941118922+942791465+945406201+948427706+951564529
1264+954793127+958030635+961046871+963830910+966815666+970448367+974619351
1254+978671960+981866020+983707867+984053953+983234039+982103292+981748815
1244+982926718+985657032+989342286+993288096+997080799+1000552261+1003608173
1234+1006193705+1008327328+1010104068+1011648740+1013009994+1014155051
1225+1015108950+1015883335+1016153452+1015292952+1012912302+1009111404
1217+1004019106+997284639+988348386+977478187+966579501+958570870+955495055
1207+957185810+961715368+966837325+971003562+973560670+974640555+975003877
1197+975636926+977171256+979622412+982657511+985967410+989278090+991987656
1187+992954953+991135351+986862772+982262058+979902741+981019830+985089089
1177+990704321+996528921+1001773416+1006274161+1010166963+1013459236+1016000865
1167+1017783328+1019052419+1020128466+1021250043+1022556532+1024062829
1159+1025637225+1027139099+1028590632+1030116897+1031732919+1033265688
1150+1034474680+1035267472+1035848097+1036529278+1037325516+1037886500
1142+1037874857+1037131757+1035408417+1032231918+1027234776+1020678913
1133+1013774492+1008407849+1006117476+1006948382+1009261715+1010760857
1125+1009775738+1005772821+999056696+990383211+980937292+972381987+966420474
1115+963839365+963760795+963983953+962378857+958250605+952695992+947880251
1105+945785393+947140143+951248427+956784244+962709724+968536471+974053490
1095+979064811+983313585+986387448+987477805+985490590+980112695+973110387
1085+967955780+967403707+971400770+977570481+983446985+987929583+990879413
1075+991951167+990375081+986189852+981402079+979107868+981019830+986182177
1065+992280278+997711247+1002090104+1005457630+1007868265+1009603053+1011109090
1055+1012639973+1014222629+1015877741+1017637960+1019409367+1020936933
1047+1021945337+1022422156+1022768373+1023470821+1024607162+1025854789
1038+1026915812+1027707628+1028248123+1028589201+1028752325+1028606502
1030+1027999469+1027049602+1025948189+1024449241+1022094672+1019143087
1021+1016792290+1016218494+1017639066+1020327428+1023205842+1025264927
1013+1025567240+1023319665+1018653064+1013463464+1010571326+1011364118
1004+1014648716+1018167919+1020698555+1022327131+1023303014+1023233485
996+1021237815+1016664353+1009976066+1003203030+999113673+999330586+1003184493
986+1008520111+1013384763+1016898243+1019103672+1020498878+1021609592
977+1022708599+1023784582+1024701798+1025375758+1025777194+1025806333
969+1025362490+1024615943+1023944584+1023456642+1022734356+1021079504
960+1018000892+1013733256+1009423213+1006544734+1005949864+1007490113
952+1010390641+1013788867+1017053237+1019857503+1022020915+1023153353
943+1022469637+1019376391+1014605008+1010369372+1008821188+1010427975
935+1014026789+1018044145+1021462143+1024091448+1026257136+1028156024
926+1029606581+1030531276+1031318669+1032392505+1033616912+1034438842
918+1034590389+1034432924+1034570942+1035243406+1036137337+1036725443
909+1036759590+1036428333+1036057271+1035825073+1035847382+1036233859
901+1036860144+1037351208+1037538267+1037716416+1038220488+1038890351
892+1039186160+1038806512+1037946208+1036877055+1035537914+1033670962
884+1031050828+1027390160+1022289602+1015534907+1007551838+999790885+994528243
874+993458570+995970930+999353806+1001345703+1002273651+1004180474+1008153017
864+1013172598+1017440819+1020067717+1021195017+1020980641+1019048972
856+1015021079+1009220934+1002551118+995886701+990076410+986490084+986764494
846+991347126+998507225+1005419841+1010304201+1013169281+1014820035+1015895822
836+1016688809+1017127709+1016918276+1016095370+1015280660+1015143877
827+1015800992+1016891999+1018121804+1019636232+1021838994+1024865182
819+1028313294+1031492005+1033881761+1035384546+1036201989+1036626515
810+1037095074+1038148552+1039924121+1041832245+1043018603+1043067839
802+1042307569+1041594908+1041590811+1042192640+1042957594+1043825183
793+1044849392+1045121461+1042218592+1033706540+1020586879+1008662292
785+1004200637+1008084983+1015946620+1023404349+1029024459+1032927017
776+1034989094+1034528079+1030403600+1021601722+1008692861+994320371+981038757
766+968890167+956719137+945867865+940366716+942770717+951556204+963090087
756+974463967+984050506+990751671+993362959+990606563+982307847+970734159
747+960107737+954308372+954847501+960524978+968561056+976361554+982929775
737+988842311+994820800+1000673044+1005817765+1010189142+1014041618+1017386380
727+1020166125+1022534808+1024532885+1025712153+1025163007+1022054997
718+1016806404+1011609780+1008761740+1008118219+1006581027+1000396227+988409525
708+973995082+963716892+962518111+969612128+979803162+988563283+994716018
698+999089607+1002624615+1005736398+1008219424+1009617102+1009940488+1009555377
688+1008234644+1005241302+1000992007+997873070+998321401+1002235797+1007262338
679+1011535112+1014969241+1018061251+1020674815+1022079257+1021619218
670+1019688850+1018912384+1021924068+1026044840+1027750815+1027226710
662+1026392618+1026525628+1027147555+1026984431+1025617062+1023722467
653+1021465981+1017117433+1008706585+997590920+988890182+987188630+992620640
643+1001634358+1010460170+1017119774+1021045942+1022358741+1021895905
635+1021203408+1021735838+1023839086+1026653889+1029024719+1030417909
626+1031093756+1031595031+1031973182+1031534607+1029823949+1027619236
618+1025442556+1020879241+1010254444+994671530+981576455+978004438+983877495
608+993778510+1003336365+1011406915+1017858711+1022321147+1024976533+1026702020
598+1028106853+1029231941+1029968277+1030030586+1028929043+1026754509
589+1024442802+1022611102+1021034430+1019792852+1019892886+1021955548
581+1025007883+1027322712+1028097877+1027876475+1027792051+1028632844
572+1030296606+1031873344+1032269381+1031167773+1029496725+1028470435
564+1028211895+1027946915+1027404339+1026982740+1026496879+1025200146
555+1023353811+1022304951+1022410774+1021945207+1018855148+1013407008
547+1008385280+1006449774+1007944884+1011512347+1015757349+1019569954
538+1022056233+1023283502+1024349207+1026041003+1027989973+1029422578
530+1030273777+1031202375+1032582817+1033874932+1034378419+1033909014
521+1031943198+1027389835+1020470455+1013926495+1010673246+1011013154
513+1013361674+1016427537+1019736526+1022727917+1024598056+1025419921
504+1025973620+1025688543+1022735722+1017409274+1012764722+1010878778
496+1010874615+1010828826+1010335356+1010582383+1012684331+1016523864
487+1020646457+1023004864+1022748600+1021607251+1022347684+1025773032
479+1029871755+1031660202+1029917024+1026032873+1022477442+1021105780
470+1022424108+1025782853+1029793055+1032910691+1034352597+1034202416
462+1032889813+1031249725+1030553651+1031457468+1032913748+1033574570
453+1033558700+1033547058+1033337038+1032281219+1030752417+1029977968
445+1030282752+1030376412+1028895611+1026093231+1023072051+1019981082
436+1016211209+1012261886+1010047222+1010873705+1014476031+1019636882
428+1024374183+1026278535+1024235450+1019670053+1014506535+1009435181
419+1006668508+1010088003+1017651554+1023491830+1025160145+1023709654
411+1020913908+1016506172+1009837528+1004016114+1003915170+1009599541
402+1015756373+1017523552+1014319476+1009934179+1009129030+1011570039
394+1013623271+1014123961+1014244678+1013688117+1009974375+1002748975+996699135
384+996767299+1001214580+1004922208+1005068031+999980286+988325166+974119442
374+967533855
##END=
