##TITLE=HMS-Q480
##JCAMP-DX=4.24
##DATA TYPE=INFRARED SPECTRUM
##DATE=3/6/2022
##SAMPLING PROCEDURE=Diamant-ATR
##ORIGIN=Angelika Moesle
##XUNITS=1/CM
##YUNITS=TRANSMITTANCE
##RESOLUTION=4
##FIRSTX=3997.453
##LASTX=373.96442
##DELTAX=-1.4165319
##MAXY=1.0066795
##MINY=0.21770145
##XFACTOR=1
##YFACTOR=9.3754338e-010
##NPOINTS=2559
##FIRSTY=0.98312187
##XYDATA=(X++(Y..Y))
3997+1048614812+1048454920+1048674382+1049075860+1049394818+1049450637
3989+1049224626+1048863773+1048641196+1048806555+1049341796+1049938514
3980+1050333508+1050471148+1050271649+1049675249+1049034981+1048929065
3972+1049402574+1049909778+1050053967+1049914928+1049689998+1049418722
3963+1049035236+1048493319+1047909253+1047572303+1047671862+1048061452
3955+1048397130+1048529430+1048724670+1049421583+1050654182+1051768467
3946+1052009036+1051272961+1050062995+1049035871+1048613604+1048732998
3938+1048951189+1048851248+1048445320+1048202526+1048499041+1049024682
3929+1049141534+1048801787+1048501012+1048520466+1048671203+1048776102
3921+1048936058+1049131616+1049085269+1048796065+1048690212+1048918066
3912+1049139881+1049101545+1048903698+1048661603+1048285174+1047768052
3904+1047522524+1048070098+1049256033+1050238018+1050417364+1049993062
3895+1049462716+1049038541+1048704389+1048486326+1048482384+1048716024
3887+1049178725+1049816132+1050354678+1050442094+1050034513+1049518027
3878+1049288583+1049089211+1048334254+1047061857+1046190620+1046456683
3870+1047465878+1048289751+1048676543+1049001286+1049542821+1050279469
3861+1050932642+1051143839+1050792331+1050118114+1049492851+1049204727
3853+1049415289+1049808312+1049798203+1049271799+1048535343+1048023879
3844+1047950004+1048170674+1048454284+1048708331+1048850358+1048772034
3836+1048626065+1048807699+1049462843+1050197901+1050410688+1050065919
3827+1049782627+1050034513+1050614384+1051081154+1051313458+1051263933
3819+1050711272+1049792100+1049271036+1049715937+1050419271+1050369873
3810+1049585607+1048854999+1048875471+1049579949+1050384241+1051032709
3802+1051454722+1051262089+1050254102+1048942924+1048070988+1048012626
3793+1048490458+1049047569+1049562148+1050033051+1050266309+1050090268
3785+1049679508+1049351904+1049166137+1049034028+1049000142+1049129454
3776+1049336901+1049549369+1049756116+1049819310+1049526292+1049008534
3768+1048787228+1049028433+1049270909+1049168172+1049067278+1049528644
3759+1050454047+1050982993+1050660476+1050049135+1049794325+1049979393
3751+1050356713+1050835816+1051420010+1051937323+1052220805+1052261239
3742+1052082910+1051603298+1050879493+1050252004+1050198474+1050900473
3734+1051857218+1052233393+1051590074+1050114109+1048426247+1047365938
3725+1047608033+1048998362+1050549346+1051415560+1051508189+1051197369
3717+1050774021+1050325815+1049854912+1049308864+1048765612+1048748892
3708+1049664186+1051085922+1052246681+1052679819+1052332762+1051509397
3700+1050735240+1050236301+1049732148+1049001286+1048379011+1048472022
3691+1049456231+1050743124+1051365463+1051104104+1050665498+1050614002
3683+1050976318+1051450972+1051727715+1051796631+1051988819+1052580960
3674+1053154409+1053019566+1052209553+1051214598+1050557929+1050384940
3666+1050351054+1050081495+1049557253+1049239122+1049632971+1050586029
3657+1051336282+1051340096+1050865760+1050386021+1050019700+1050026566
3649+1050872944+1051987802+1052335368+1052124807+1051985195+1052010625
3640+1051986022+1051998800+1052335177+1052828649+1052879001+1052165495
3632+1050953939+1049758151+1049191059+1049564691+1050240052+1050659268
3623+1050962204+1051266921+1051268383+1050781078+1050369428+1050495943
3615+1050750117+1050731807+1050758700+1051255732+1051903501+1052005857
3606+1051499162+1050973648+1050822021+1051017133+1051322359+1051333421
3598+1050687304+1049596224+1048906241+1049214582+1050138395+1050995581
3589+1051610864+1051990472+1051821425+1050990241+1050061342+1049622735
3581+1049755799+1050154480+1050552715+1050902761+1051164183+1051248420
3572+1051208241+1051239075+1051517153+1052114444+1052760242+1052753185
3564+1051838082+1050671729+1050060642+1050122819+1050200190+1049727062
3555+1048912281+1048372208+1048442904+1048969562+1049568442+1049940739
3547+1050016902+1049986704+1050104636+1050389073+1050666452+1050786673
3538+1050678277+1050348829+1049926625+1049590185+1049399014+1049306575
3530+1049331560+1049607350+1050144053+1050552334+1050282075+1049341669
3521+1048542717+1048658361+1049566471+1050529447+1051051718+1051135256
3513+1050906258+1050472229+1050066555+1049894202+1049848173+1049711614
3504+1049511033+1049431819+1049541995+1049820200+1050288496+1050872563
3496+1051273469+1051209767+1050742742+1050197838+1049843405+1049770357
3488+1049943727+1050238590+1050530464+1050837851+1051241109+1051572655
3479+1051464577+1050846688+1050110422+1049623498+1049323550+1048988317
3471+1048704771+1048771144+1049224118+1049713457+1049883013+1049733611
3462+1049542948+1049535637+1049724583+1049982445+1050175205+1050293710
3454+1050488186+1050849485+1051203346+1051320197+1051246958+1051181476
3445+1051115294+1050915031+1050604275+1050256963+1049830372+1049400285
3437+1049299455+1049682878+1050165605+1050237127+1049902213+1049616950
3428+1049679190+1049956124+1050211507+1050449914+1050813947+1051293877
3420+1051700187+1051853976+1051694338+1051305384+1050941415+1050864235
3411+1051042436+1051137354+1050878921+1050390725+1050093193+1050267580
3403+1050737847+1051069583+1051059538+1050860992+1050681138+1050578718
3394+1050535296+1050532244+1050581897+1050775611+1051164501+1051554727
3386+1051653014+1051440863+1051102579+1050614193+1049868645+1049145729
3377+1048911836+1049197353+1049658465+1050098470+1050469750+1050677260
3369+1050773767+1050963349+1051181603+1051141423+1050849739+1050536758
3360+1050183915+1049641426+1049035744+1048632295+1048507433+1048620979
3352+1048970198+1049497047+1050051615+1050507259+1050775420+1050756856
3343+1050424420+1049886700+1049349806+1049115913+1049466022+1050306933
3335+1051102324+1051418802+1051337807+1051163611+1051041864+1051026797
3326+1051204299+1051584035+1052005666+1052235428+1052180499+1052008972
3318+1051936624+1051903501+1051668526+1051183383+1050663527+1050343489
3309+1050307251+1050508594+1050895577+1051473414+1052140891+1052543323
3301+1052346621+1051636739+1050848977+1050340183+1050134644+1050020208
3292+1049841180+1049680080+1049700297+1049843660+1049811808+1049378415
3284+1048716087+1048342201+1048595231+1049210958+1049639011+1049710787
3275+1049707736+1049823379+1049891595+1049703730+1049348598+1049093852
3267+1049024364+1048968481+1048846226+1048920418+1049516564+1050543942
3258+1051478245+1051828673+1051531458+1050919100+1050424357+1050245011
3250+1050186712+1049892486+1049309436+1048808399+1048802677+1049367671
3241+1050214367+1050868431+1050962268+1050528620+1049957078+1049633289
3233+1049757388+1050387292+1051355672+1052171725+1052346240+1051920984
3224+1051458855+1051358469+1051391084+1051138308+1050673636+1050435737
3216+1050608026+1051056232+1051695037+1052453682+1052997124+1052916129
3207+1052218962+1051389176+1050916366+1050892462+1051043644+1051015480
3199+1050639051+1050108133+1049873095+1050122183+1050436690+1050237191
3190+1049470218+1048613604+1048169212+1048331901+1048925822+1049514085
3182+1049764127+1049774553+1049918996+1050378074+1050897040+1051010267
3173+1050496960+1049620002+1048895815+1048620661+1048645201+1048638716
3165+1048534135+1048519830+1048600571+1048528476+1048263431+1048062914
3156+1048064567+1048174044+1048265656+1048189683+1047851463+1047495250
3148+1047514831+1047898635+1048254212+1048296299+1048008557+1047541342
3139+1047127912+1046841568+1046443459+1045759834+1045076272+1044857827
3131+1045200434+1045814763+1046422734+1046935405+1047278522+1047290283
3122+1046909721+1046315546+1045730589+1045192233+1044650380+1044173502
3114+1043890719+1043769925+1043631967+1043424457+1043307160+1043391525
3105+1043590770+1043785692+1043904387+1043815827+1043430497+1042945544
3097+1042731613+1042903203+1043180010+1043258207+1043197239+1043275627
3088+1043511237+1043532853+1043011853+1042043918+1041020292+1040243655
3080+1039720875+1039244569+1038628206+1037826966+1036861065+1035783845
3071+1034818707+1034321675+1034385569+1034580872+1034353717+1033625970
3063+1032691286+1031556084+1029818061+1027275047+1024218536+1020985729
3054+1017665825+1014524376+1012330327+1011820262+1012933848+1014881606
3046+1016919832+1018722828+1020130450+1021047906+1021709471+1022652675
3037+1024211733+1026221159+1028332814+1030371230+1032158651+1033232947
3029+1033155449+1032054006+1030534937+1029070860+1027704054+1026325105
3020+1025063516+1024347212+1024588544+1025803024+1027595531+1029497832
3012+1031193005+1032464512+1033188318+1033441157+1033493861+1033624381
3003+1033935137+1034325108+1034598991+1034576040+1034099098+1033018762
2995+1031283664+1029059862+1026631919+1024099840+1021322488+1018256948
2986+1015182508+1012507703+1010584421+1009679998+1009807848+1010611441
2978+1011675628+1012788578+1013742018+1014213302+1014008780+1013116627
2969+1011504484+1009149780+1006178840+1002726063+998797234+994416384+989741498
2959+984985744+980415503+976460418+973662403+972423129+972823781+974657548
2949+977527339+980895179+984182343+986920724+988787550+989534751+989033650
2939+987430598+985123639+982450042+979426080+975878131+971812806+967553893
2929+963546739+960146284+957588013+956004986+955420411+955780184+957005917
2919+958979359+961504063+964355608+967394637+970579507+973902209+977393259
2910+981109301+984936156+988525111+991660838+994560637+997560503+1000635642
2900+1003433530+1005691027+1007504704+1009253090+1011253297+1013467182
2891+1015628171+1017587691+1019319801+1020654438+1021321089+1021314287
2883+1020973777+1020644647+1020394860+1020071961+1019511926+1018692121
2874+1017741098+1016798530+1015908221+1015102912+1014447958+1013839034
2866+1012930860+1011478227+1009550241+1007194520+1004135274+1000057806
2857+995041330+989596928+984473391+980542527+978720076+979775300+983998292
2847+990868498+999082687+1007099666+1013820533+1018903891+1022643138+1025604160
2837+1028206744+1030521650+1032446266+1034002591+1035341424+1036504217
2829+1037356254+1037821816+1038067789+1038373777+1038885686+1039586032
2820+1040414419+1041310004+1042160388+1042814261+1043154707+1043150447
2812+1042883049+1042584118+1042567652+1042978794+1043633747+1044231037
2803+1044634932+1044808238+1044697553+1044450563+1044474912+1044981799
2795+1045675787+1046112295+1046142939+1045896584+1045579788+1045395293
2786+1045479021+1045846868+1046430363+1047123016+1047802891+1048369983
2778+1048733380+1048782524+1048490713+1048028011+1047605362+1047247179
2769+1046886580+1046600173+1046532910+1046673475+1046890331+1047078450
2761+1047159763+1047121045+1047137829+1047418642+1047879690+1048215686
2752+1048263240+1048091142+1047832263+1047622273+1047584891+1047723358
2744+1047927308+1048131512+1048347160+1048514172+1048498596+1048304373
2735+1048143019+1048176078+1048310477+1048357840+1048259362+1048073150
2727+1047898572+1047879690+1048104620+1048441760+1048622250+1048548376
2718+1048414232+1048480604+1048763769+1048992576+1048890347+1048488170
2710+1048099089+1047984971+1048118924+1048301576+1048388356+1048338768
2701+1048188666+1048084276+1048197503+1048502156+1048778200+1048887296
2693+1048919656+1049032057+1049233718+1049366527+1049301680+1049129263
2684+1049032756+1049039559+1049084506+1049244398+1049640600+1050162935
2676+1050521564+1050523852+1050160074+1049512369+1048748447+1048161138
2667+1048008049+1048235648+1048501330+1048542082+1048384923+1048162918
2659+1047944664+1047811347+1047873714+1048093939+1048274111+1048343790
2650+1048508514+1048928302+1049370087+1049454388+1049201994+1048990097
2642+1048965748+1048881065+1048580481+1048301640+1048331965+1048595358
2633+1048774386+1048759191+1048730328+1048768537+1048662748+1048281868
2625+1047905120+1047933093+1048347541+1048680612+1048577557+1048238319
2616+1048136344+1048373480+1048543671+1048258790+1047656858+1047308783
2608+1047604727+1048263749+1048626255+1048455492+1048163300+1048222933
2599+1048677751+1049217570+1049476194+1049326029+1049033964+1048988126
2591+1049273643+1049744991+1050345905+1051010204+1051447984+1051435268
2582+1051187833+1051138435+1051454468+1051952454+1052322017+1052305106
2574+1051841197+1051163039+1050608980+1050279977+1050029172+1049763873
2565+1049520061+1049225898+1048707632+1048046575+1047644843+1047739125
2557+1048010655+1047866466+1047051113+1045912605+1045074873+1044852741
2548+1044978556+1044973661+1044718152+1044498245+1044553937+1044848227
2540+1045311882+1046045796+1047115260+1048295854+1049205617+1049646131
2531+1049717081+1049678491+1049823252+1050341900+1051123559+1051809155
2523+1052205802+1052497485+1052887075+1053263314+1053441134+1053524354
2514+1053754815+1054146503+1054484215+1054598778+1054494069+1054293235
2506+1054134868+1054032067+1053858443+1053612152+1053557795+1053884254
2497+1054361642+1054603673+1054552177+1054417461+1054215863+1053701984
2489+1052852363+1052139938+1052072866+1052583630+1053155172+1053485700
2480+1053705099+1053953742+1054115541+1054114206+1054131817+1054278485
2472+1054312689+1054011596+1053590663+1053433378+1053606367+1053895444
2463+1054108357+1054178799+1054126794+1053923607+1053377813+1052467287
2455+1051757913+1051926261+1052828014+1053605794+1053738667+1053487481
2446+1053320214+1053309215+1053180984+1052796162+1052418461+1052415092
2438+1052802901+1053266111+1053507443+1053451052+1053229428+1053048366
2429+1052994581+1052991402+1052960314+1052906148+1052841809+1052723432
2421+1052498820+1052242802+1052213939+1052590814+1053145700+1053412144
2412+1053191728+1052714341+1052367474+1052414074+1052868638+1053506108
2404+1054044083+1054342060+1054406144+1054264371+1053949419+1053594096
2395+1053415132+1053501594+1053676490+1053714890+1053646737+1053660469
2387+1053728749+1053554553+1052988859+1052358637+1052210315+1052720317
2378+1053509351+1054187000+1054943292+1056270428+1058068148+1059443410
2370+1059640430+1058904736+1058161159+1057973993+1058075078+1057935657
2361+1057510211+1057112038+1056785515+1056332604+1055778927+1055259453
2353+1054690962+1054071929+1053745533+1054069894+1055055058+1056207425
2344+1056674894+1056070229+1055084938+1054651545+1054847866+1055090406
2336+1055059890+1054869736+1054494451+1053712347+1052687003+1051965550
2327+1051714046+1051566170+1051368769+1051470934+1052020925+1052514969
2319+1052499710+1052192006+1052029825+1052169373+1052612620+1053279907
2310+1053806947+1053775223+1053321422+1053116073+1053584751+1054434372
2302+1055083730+1055331166+1055409300+1055518014+1055548911+1055294419
2293+1054741059+1054074599+1053522320+1053236104+1053246212+1053522828
2285+1054101746+1055016976+1056099919+1057080314+1057870746+1058469626
2276+1058719541+1058598684+1058541085+1058964052+1059580605+1059642655
2268+1058915353+1058137064+1058322386+1059612329+1061065408+1061742803
2259+1061695376+1061634788+1061967351+1062535587+1063048640+1063317056
2251+1063179161+1062722181+1062539911+1063146165+1064003924+1063892540
2242+1062516960+1060969282+1060266647+1060249799+1060358323+1060700994
2234+1061682279+1063018188+1063921721+1064210353+1064522508+1065322476
2225+1066419405+1067622823+1068981428+1070073526+1069993802+1068540342
2217+1066774982+1065879460+1065763053+1065315547+1064059616+1062874063
2208+1062706160+1063314322+1063847846+1063983007+1063916635+1063743265
2200+1063243563+1062130040+1060561446+1059389244+1059551488+1061308265
2191+1064066482+1066408089+1066600150+1064331082+1061843824+1061919797
2183+1064678077+1067579719+1068495840+1067564588+1066125497+1065206006
2174+1065106702+1065416949+1065336526+1064478831+1063100709+1061369171
2166+1059195339+1057172753+1056641835+1058396324+1061997676+1065857018
2157+1067723781+1066720053+1064618189+1063572819+1063525011+1063038405
2149+1061781647+1060730365+1060504101+1060932026+1061792582+1062796374
2140+1063277385+1062853273+1062021581+1061447178+1061100438+1060625339
2132+1060142866+1060197668+1060979327+1061797732+1061566318+1060011710
2123+1058135474+1057155460+1057286553+1057822175+1058078765+1058002157
2115+1057916203+1057777418+1056963844+1055187231+1053370438+1052914921
2106+1054085152+1055709630+1056542149+1056380604+1055765385+1055272549
2098+1055326016+1056029732+1056887172+1057225075+1056988066+1056603690
2089+1056228468+1055707405+1055105855+1054779014+1054916782+1055294801
2081+1055517314+1055440642+1055231734+1054991228+1054579069+1054047262
2072+1053958765+1054795480+1056077349+1056652452+1056183520+1055772760
2064+1056480862+1057784920+1058418448+1058271017+1058538415+1060144773
2055+1062494200+1063835385+1062853464+1059826960+1056240675+1053605413
2047+1052507785+1052288767+1051648627+1049906281+1047839510+1047176356
2038+1049110890+1053134701+1057230924+1059513406+1059878519+1059600695
2030+1059679656+1060476636+1062262595+1064809423+1066680001+1066345467
2021+1064399744+1063486230+1065420192+1069200763+1072405342+1073741823
2013+1073526938+1072690923+1072198595+1072601663+1073431448+1073637178
2004+1073005112+1072395933+1072440563+1072814894+1072822015+1072032791
1996+1070419630+1068474478+1066974609+1066078832+1065128635+1063913710
1987+1063105668+1062880039+1062280460+1060609827+1058529896+1057238235
1979+1057175614+1057925230+1058986812+1060257238+1061692515+1062788872
1970+1062811187+1061592765+1059941332+1058954897+1058934680+1059361461
1962+1059741578+1059928553+1059800958+1059126741+1057881936+1056474950
1953+1055377448+1054596425+1053905806+1053550420+1054046817+1055252714
1945+1056404317+1057150374+1057760825+1058190721+1057879647+1056695683
1936+1055371727+1054774118+1054911378+1054990020+1054484024+1053702874
1928+1053152121+1052836978+1052428379+1051676982+1050474645+1048823085
1919+1046925806+1045213721+1044093905+1043584603+1043398900+1043335006
1911+1043421087+1043809406+1044617385+1045868039+1047516103+1049413255
1902+1051225279+1052534613+1053123385+1053096238+1052747146+1052391060
1894+1052170517+1051898796+1051252616+1050186839+1048921309+1047450239
1885+1045544250+1043369782+1041623304+1040845968+1040915710+1041410962
1877+1042144304+1043068880+1043990214+1044789674+1045675469+1046829743
1868+1048047402+1049050621+1049801954+1050247109+1050305598+1050092748
1860+1049827130+1049660181+1049704112+1049992871+1050400071+1050755712
1851+1050954957+1050947963+1050775166+1050577573+1050481638+1050531799
1843+1050686923+1050853363+1050986236+1051085032+1051088974+1050903143
1834+1050595947+1050422704+1050524997+1050632757+1050285953+1049543584
1826+1048949027+1048832367+1049043755+1049306512+1049563483+1049934636
1817+1050518639+1051187706+1051624024+1051644113+1051306910+1050714006
1809+1049957968+1049270083+1048928048+1048975538+1049148654+1049066578
1800+1048538140+1047715093+1046850405+1045987751+1044897180+1043186431
1792+1040811447+1038593176+1037394717+1037314739+1038102247+1039447310
1783+1040972165+1042356900+1043392097+1043958681+1044156591+1044286602
1775+1044610900+1045147222+1045477432+1045036473+1043946156+1042857556
1766+1042135403+1041697814+1041467163+1041582806+1042062991+1042604589
1758+1042921067+1042956225+1042847384+1042726527+1042525629+1042118365
1749+1041593614+1041125636+1040697837+1040256180+1039840270+1039481641
1741+1039101778+1038603030+1038119158+1037977576+1038361825+1039040683
1732+1039492512+1039572363+1039454558+1039323211+1039350167+1039589211
1724+1039961889+1040332470+1040534957+1040451038+1040110783+1039723227
1715+1039494483+1039359894+1039086457+1038624645+1038220052+1038082475
1707+1038121828+1038185467+1038290366+1038460748+1038633292+1038607162
1698+1038122655+1037283269+1036432440+1035762992+1035262082+1034776875
1690+1034052434+1033050486+1032055341+1030914227+1028687628+1025349986
1681+1022218328+1019680146+1017483808+1015243795+1012350036+1008669532
1673+1004704910+1000167410+993909625+985832441+977237054+967887155+954913652
1663+934497129+905483248+870395315+831979340+792756912+753579558+708465920
1653+652795533+608989767+590905124+590990824+612338344+659927352+717910801
1643+770426262+816282587+855462357+886570981+911640075+934799303+954976019
1633+968332373+976458574+982246791+986401186+988147919+986505513+979924575
1623+965516303+941939577+910772590+870874864+819254798+766069253+734240701
1613+728170781+736465711+751006855+768379009+785804185+800064326+810713005
1604+822302918+840663287+866770948+896056550+923256753+945718623+962875638
1594+975050189+983362602+989415802+994219936+997792680+999637573+998917709
1584+994476590+985774333+973945568+960805942+947191155+934981637+929997139
1574+935077063+946815234+962174020+978407031+991396937+999765423+1005375884
1564+1009540895+1012453981+1014534167+1016777041+1019092646+1019893632
1555+1019344150+1017917456+1015236356+1010559182+1003171218+992647082+978269454
1545+958479911+932848493+904402213+879525434+868669880+875237849+889719805
1536+907291840+928212960+949133000+963874152+972037226+976900804+980196232
1526+982045766+982293138+980493320+975965420+968250933+955143604+931252116
1516+890464145+829607725+752102194+672887186+618135653+618802367+696082651
1506+803185748+865429445+888572206+896994859+898695690+894266014+884182710
1496+870211265+853351528+832094602+804313002+773483537+753525774+755245995
1486+772417506+793470736+811870776+825590272+835046596+842512186+851079917
1476+862617126+876588635+889427040+893966447+885328973+865072152+833993344
1466+787876995+725131117+659552829+611055521+589638512+600738450+645100055
1456+692546908+703126227+677861766+635307354+595292840+574825139+577675222
1446+596139791+627716140+676771830+739106567+799140385+845722041+879606366
1436+903887443+917921192+923467379+925251303+926704444+928820423+930144761
1426+927484005+916882880+896276839+868422890+838817759+814128591+802379422
1417+804318534+810802011+811590154+798556573+767548143+721533134+668647728
1407+616719957+572861996+544762011+536627291+548386314+578516641+621936314
1397+670943115+720748042+767126892+804698905+832882682+855853027+876993800
1387+895994501+910387133+918976353+922095105+920018988+912866253+901274497
1377+885839229+866032330+841445455+814332159+788460108+766649569+751253400
1367+743477245+742000135+745880902+757590082+779133669+806338767+831522806
1357+848526604+853519875+844843748+824167011+797705108+775431803+767126002
1347+776730775+799732462+826355084+847814052+860017530+863367315+862138849
1337+862899973+870047177+883040897+897733350+909051033+912849978+906343423
1327+888340665+861034418+832078009+812847929+812138746+830644639+860886287
1317+892398552+918154133+936371584+947655255+952918213+953822636+952814521
1307+951281402+948018143+940531001+928301584+913966234+900309232+886398756
1298+868036479+842575888+812629802+784844642+765967024+760093679+767893166
1288+786817830+812047833+838188554+860982604+878235427+889784270+896514165
1278+899004030+897052903+890524859+880537745+869710418+860937656+855462738
1268+851913136+847038496+837228439+819608531+792225803+753756425+703744180
1258+643756136+578857723+517981468+471341863+445329374+439119970+446277823
1248+459350949+473226936+485650258+496236348+505503376+514324710+523646063
1238+534198077+546036315+558086831+568083164+573150691+571007948+561216327
1228+545475517+526511690+506356239+485257426+461837667+434426870+402976528
1218+370282525+341309714+320862611+311211396+311022228+315970551+320646931
1208+320681357+313997395+300995124+284108622+267041789+253668778+246734615
1198+247038076+253740905+265422318+280771076+298333002+315741044+329427481
1188+335714320+333073909+323702013+312299647+302232777+292305360+278139692
1179+258336083+239379250+232827492+246781931+280699267+328102889+382057283
1169+437312682+489442432+533114340+560334982+562513582+539109463+503815387
1159+475871575+462644915+453957820+433879073+394690244+340910969+286027581
1149+246365751+232204136+240402574+256609265+267118779+269736398+273646123
1139+289591392+320402230+358828282+391332417+404306143+391377333+358819858
1129+323727793+304588911+311460421+342854944+389649164+441293898+489908439
1119+530771334+560230020+573843536+568102618+545527013+517268248+498190844
1109+497712567+514428973+538138159+556626632+562565142+556814370+547140237
1099+543970053+554837940+579533465+610338518+638817666+662306532+683119829
1089+703359040+722527134+739185401+752941643+764634040+775388509+785785239
1079+795723401+804834193+812951112+820265201+827095864+833556645+839429481
1069+844229229+847315685+847998992+845680399+840409113+833894611+829541544
1060+830356452+836531208+845493552+854107121+860404005+863839616+865015188
1050+865381763+866564138+869433802+873680253+878111519+881242668+881855216
1040+879289888+873118057+862365177+844834402+816635558+772465696+708514683
1030+628658263+549436642+495807723+486228475+519151064+575079567+631614325
1020+675620163+704700671+723029634+736195897+746058913+748705173+737159763
1010+705410108+651547231+580861237+506875555+447150681+416026639+419518674
1000+454449417+510923047+576631569+640923473+696962724+741992824+776374753
990+801824155+819594608+829472501+829918609+819669754+800844777+781099800
980+770761813+775711853+793370096+816222954+837962098+855865233+869775456
970+880713848+889691259+896977757+902688222+907568774+912403933+917026369
960+920515321+922112079+921829995+920689517+920382512+922009914+924946523
950+927610965+929552938+931951508+935743778+940127807+943026079+941975688
941+935100332+923445699+912361211+907930009+911245590+918026855+923921307
931+927973090+930766464+931754616+929857718+925720807+922144185+921921226
921+925447687+930731116+935468815+938500151+939496313+938153220+933701420
911+924222272+905772198+873222638+825106019+770249268+727825694+715978746
901+738161710+781625568+828768086+868323522+897471292+917932509+932337411
891+942715514+950258347+955743374+959992114+963723224+967090683+969524284
881+969825122+966626774+959762480+951622102+946243056+946222584+950784243
871+957074896+962717081+966849478+969514811+970861019+970945574+969871914
861+967716964+964184273+958561224+950221029+938725398+922704665+898867788
851+863711067+817658548+767121298+720750775+682645684+649461260+614388458
841+574139860+533203854+502303692+491898920+505438688+537693513+578618235
832+618174624+648701217+666323858+673217078+677579619+687956514+706483832
822+729076984+751413864+771960399+789635617+802141904+808162426+809855310
812+812157437+819641972+833757860+852369988+871479275+887706246+899776471
802+907814620+911403766+908592528+895832701+868618448+826131426+778869195
792+747631640+748164783+776646728+813358121+839153182+845827704+834273329
782+809731466+781240301+761929989+764082968+790437492+831052666+870956177
772+900751017+919372618+929558532+933671985+932644607+925807396+910587458
762+883859302+846535488+806554161+770984708+732721441+675564662+601303953
752+541581018+529001333+561296814+605956587+637126181+655976780+674825280
742+694694483+705459824+698775130+673174419+634673762+599579726+587675751
732+605255097+641987025+686523335+734791836+782196920+820269334+844401899
722+856286547+856930947+844863011+824401668+809502022+813352527+835532821
713+862989296+882801726+890008246+884216278+865305092+835999591+806455492
703+790807692+795102588+810667930+823345236+827972313+830012573+835261290
693+843855215+854017352+866027244+880320444+894692287+905907868+912605594
683+915020694+913414463+907720401+897274908+880123297+853085783+814509344
673+768622502+722972607+679160992+631101590+579105603+534254977+499265935
663+471951551+454870317+451287306+458341658+468431161+474456992+473145369
653+466499297+461038874+464388977+480763634+508201927+539878915+568276242
643+588948529+602704963+614446248+627318031+638196663+642847581+645650045
633+658040817+684630188+716516022+741207542+754169983+757951126+755359922
623+748279981+740314244+735730716+735969823+739926562+747835907+762448701
613+785276509+813173753+839457835+857825389+864985053+860234386+843774538
603+816187478+779458157+738560646+701809391+677572371+668922500+672014805
594+679657897+685599839+686284546+681043903+672019319+663258064+658524562
584+659070292+663782815+671220622+679855807+686387792+686800015+681208245
574+675533573+675502803+680441399+684298897+681606735+671898399+658924896
564+647176489+639799524+637962197+639590870+638004729+623891256+591692568
554+545561852+498817348+466641325+457729555+470675784+496716691+526323730
544+554838957+582690426+610640183+636174140+654999563+664612918+665302011
534+657946916+641044202+610828747+565829863+510964848+457068912+416760934
524+397650948+398478509+412318861+429344848+437058222+426659965+404286148
514+389780002+400229310+436800265+487126986+538048836+583417410+622216363
504+655286351+684008930+708863521+729391237+745787001+758437732+765662816
494+761936156+737720625+685847847+615081366+553067494+527545457+544810964
484+586137672+624457331+644914479+649706979+649716515+655352343+670821496
475+694212137+721128604+746647366+767378396+783100897+794284818+800079329
465+799879131+794273184+784151607+770783746+756118313+741794533+728839721
455+719891491+720522603+735409915+761944993+790935287+814553083+830608338
445+840872450+847203093+849278255+845894140+837307844+825809734+815390562
435+810680773+814819464+828090691+847307992+865958201+877486954+878891970
425+870390929+854224227+834873163+819766071+819500517+837241980+859128810
415+873692905+880778695+883957780+885948007+886558966+883310202+874475708
405+860518250+843531171+827536759+818567612+822486651+839823839+861657202
395+878280883+888144090+893802486+897825343+900912753+900885225+894773345
385+883550199+874645899+875343067+884795131+896760520+905839207+910382110
375+912575142+916291438
##END=
