##TITLE=X8450
##JCAMP-DX=4.24
##DATA TYPE=INFRARED SPECTRUM
##DATE=31/10/2018
##SAMPLING PROCEDURE=Diamant-ATR
##ORIGIN=ComPlat
##XUNITS=1/CM
##YUNITS=TRANSMITTANCE
##RESOLUTION=4
##FIRSTX=3997.453
##LASTX=373.96442
##DELTAX=-1.4165319
##MAXY=0.99299902
##MINY=0.73588562
##XFACTOR=1
##YFACTOR=9.248024e-010
##NPOINTS=2559
##FIRSTY=0.90895492
##XYDATA=(X++(Y..Y))
3997+982863924+982629000+982608569+982939526+983388622+983587454+983505988
3988+983408602+983361423+983137391+982682688+982298623+982196661+982176810
3978+981985390+981768060+981872987+982259565+982455755+982208713+981812983
3968+981600616+981466106+981154871+980747540+980611354+980993163+981753108
3958+982483598+982918837+983196106+983549879+983887345+983987567+983889923
3948+983658415+983125919+982396395+982097793+982596645+983341830+983593448
3938+983262233+982651429+982040818+981726812+982023867+982877008+983712360
3928+984006193+983750064+983301871+983018801+983038781+983302837+983645138
3918+983919378+984150242+984382202+984455547+984241634+983801110+983127723
3908+982142909+981104471+980626371+981016946+981894900+982926829+984157976
3898+985153747+985050303+983699921+982077168+981681567+982981741+984322456
3888+984273150+983517718+983301290+983509919+983431482+983565154+984430347
3878+984942025+984161585+982724645+981488149+980550383+980093231+980800583
3869+982176488+982707179+982362687+982413991+983274672+983810068+983110322
3859+981339266+979061109+977094251+977112297+980447713+984286298+985613800
3849+985016273+983730407+982420629+981357506+980580353+980038383+979891434
3839+980577388+982156766+983793891+984693115+984931197+985002738+985067383
3829+984869969+984257682+983276928+982003243+980910666+981059677+982526136
3819+983489939+983419816+983727958+984926621+985817724+985634683+984684865
3809+983703724+983498769+983987245+983967329+983145963+982662321+983029177
3799+983253274+983158209+983599700+984567950+985219037+985376233+985507327
3789+985682248+985486122+984805775+984066713+983621226+983453009+983599764
3779+984168933+984817312+984986625+984573944+983855313+983286209+983441730
3769+984459286+985677091+986538804+986982229+986761290+985692946+984446718
3759+984143539+984817957+985075955+983989565+982042107+980662013+981291766
3750+983270869+984387036+984422033+984614742+985269437+985181913+983961658
3740+982294305+980725433+979749706+980122943+982082131+984518194+986158800
3730+986662164+986271976+985377522+984424031+983761343+983441279+983369609
3720+983606338+984236864+984989461+985354642+985200475+985022267+985331568
3710+985805543+985795617+985186231+984235253+983469830+983526290+984449682
3700+985438300+985871218+985758107+985177788+984167902+982989798+982222377
3690+982695513+984644325+986610538+987001048+985711315+983536409+981415899
3680+979908449+979012577+978869624+980182883+982397620+983521456+983688449
3670+984796559+987240227+988929107+988771395+987611079+986497233+985773897
3660+985130738+984415394+984191168+984785989+985046952+983839136+981863255
3650+981148491+983150346+986298917+988191914+988698307+988565408+988299418
3640+988045287+987600380+986745113+985688370+984907286+984465795+983993754
3631+983670338+984531471+986478994+987569895+987231719+986319090+985529885
3621+985258996+985728459+986449346+986513668+985857877+985109792+984638009
3611+984437694+984779415+985983299+987468513+988243281+988158206+987748683
3601+987448082+987300682+987208130+987169202+987209419+987236038+987077939
3591+986733382+986499489+986743372+987387498+987909295+988077642+987998302
3581+987818999+987770789+988081638+988649453+989071673+989069481+988682774
3571+988104196+987589810+987522652+988123724+988897526+989209470+989111375
3561+988904615+988680905+988499926+988523515+988769139+989109183+989581095
3551+990222127+990682051+990635388+990412709+990687658+991538157+992373638
3541+992721159+992521231+991951353+991292146+990812887+990652790+990778470
3531+990979945+990957838+990619147+990275170+990328085+990812823+991433294
3521+991986415+992586133+993386295+994202570+994602168+994405334+993911895
3512+993583323+993609490+993767138+993699335+993360386+993047475+992967491
3502+992957050+992806428+992642979+992744877+993108382+993345369+993149824
3492+992835366+993095685+994120588+995244037+995716336+995516150+995153677
3482+995006857+995039920+994986748+994700843+994341978+994206759+994397148
3472+994755562+995138724+995571256+996051096+996395459+996456558+996354983
3462+996300329+996301424+996247285+996126310+995997086+995916070+995967116
3452+996140232+996246383+996231430+996405255+997005940+997743134+998178308
3442+998303666+998420709+998650542+998774546+998547614+998068741+997711101
3432+997672237+997827565+998041543+998321906+998660081+999024811+999463788
3422+999961545+1000312417+1000346061+1000193118+1000160377+1000378351
3414+1000686492+1000877525+1000928313+1000883648+1000723423+1000503322
3405+1000404067+1000521819+1000793417+1001126114+1001442956+1001705530
3397+1001940197+1002103323+1002061108+1001874586+1001838429+1002061043
3388+1002292294+1002266320+1002022566+1001866014+1002007484+1002205027
3380+1001969071+1001227689+1000492429+1000274262+1000627584+1001271902
3371+1001893534+1002375114+1002857274+1003478261+1004093448+1004459918
3363+1004583922+1004620788+1004572772+1004338749+1003959325+1003582672
3354+1003262543+1002976315+1002782639+1002777612+1002985403+1003431727
3346+1004146298+1004952518+1005474831+1005519818+1005276579+1005054351
3337+1004945622+1004779725+1004389988+1003941021+1003856332+1004330371
3329+1005096502+1005730896+1005973297+1005757385+1005228305+1004752011
3320+1004655849+1004927511+1005275483+1005447955+1005449953+1005466388
3312+1005548434+1005428555+1004814077+1003879728+1003275820+1003543744
3303+1004610153+1005879778+1006759988+1007048601+1006873938+1006428065
3295+1005855867+1005301328+1004914879+1004778693+1004846625+1004968824
3286+1005020643+1005050484+1005242484+1005664898+1006118441+1006320431
3278+1006212798+1005999528+1005851355+1005661740+1005239133+1004682597
3269+1004355056+1004473323+1004920293+1005444732+1005854642+1006037039
3261+1005950868+1005623778+1005125763+1004575028+1004139466+1003949400
3252+1003995482+1004151390+1004296083+1004356989+1004225057+1003785113
3244+1003167091+1002785991+1002950986+1003553282+1004190189+1004433750
3235+1004104920+1003520090+1003252166+1003431856+1003590857+1003381713
3227+1003036061+1002896524+1002921403+1002904194+1002865137+1002963554
3218+1003160065+1003185781+1002836907+1002203287+1001592483+1001247798
3210+1001131270+1000995084+1000695386+1000421791+1000555849+1001224015
3201+1002037776+1002438727+1002329289+1002151855+1002284109+1002609652
3193+1002757696+1002534631+1002080250+1001722932+1001658674+1001765405
3184+1001798791+1001680781+1001497482+1001328748+1001212414+1001215185
3176+1001415886+1001752966+1001990534+1002042997+1002192910+1002643102
3167+1003040057+1002887372+1002225780+1001495870+1000972204+1000652268
3159+1000444220+1000259889+1000109911+1000138077+1000399813+1000703765
3150+1000847491+1000891898+1001019383+1001223242+1001344474+1001362779
3142+1001390815+1001381018+1001124245+1000619398+1000214967+1000245001
3133+1000640216+1000981550+1000920965+1000477799+999921134+999487699+999313810
3123+999488021+999953166+1000415990+1000566742+1000384538+1000089029+999827744
3114+999557758+999261991+999102539+999176529+999241947+998965000+998412202
3104+997997974+997916765+997949571+997892403+997859275+998036451+998380298
3094+998662015+998635203+998115146+997112801+995947458+995024968+994440137
3084+993963521+993425095+992904071+992527998+992281601+992071490+991872207
3074+991693549+991404227+990753721+989713671+988646939+987896985+987372159
3064+986778112+986073273+985440298+984970513+984616160+984350814+984236800
3054+984365767+984761820+985312684+985780922+985905442+985539101+984738102
3044+983739688+982863796+982334458+982031537+981478868+980341433+978923119
3034+977897249+977570739+977664902+977731223+977548052+977206590+977025675
3024+977312032+978046002+978862341+979427192+979782447+980218846+980865163
3014+981538614+982005950+982209036+982184738+981982232+981745502+981661394
3004+981737124+981774183+981622916+981400688+981442968+982019291+983044130
2995+984128973+984968192+985582348+986156480+986782559+987391107+987857799
2985+988141062+988317078+988504373+988816704+989320777+989926296+990390216
2975+990552633+990501523+990467042+990601423+990808311+990782015+990358506
2965+989775545+989355194+989056398+988621545+988012739+987372545+986691360
2955+985846018+984917920+984204703+983880514+983817996+983789508+983716421
2945+983638693+983537440+983269323+982674567+981684209+980280977+978420593
2935+976096804+973437675+970651900+967935539+965503214+963583793+962268021
2925+961428866+960856281+960470605+960386239+960752644+961553128+962615091
2915+963783334+965003331+966291066+967722657+969404576+971334439+973279834
2905+974890342+976043567+977042368+978285310+979737138+980939733+981558658
2895+981705349+981707283+981767287+981902957+982079875+982323308+982694289
2885+983205194+983797178+984360224+984782251+985071121+985404012+985933156
2876+986590172+987193371+987676819+988113477+988569340+988975640+989128648
2866+988878255+988314371+987629383+986833089+985759202+984316848+982604766
2856+980837449+979250789+978013906+977165856+976652825+976395793+976336563
2846+976517026+977094702+978139457+979442209+980679866+981761809+982839240
2836+983974419+984991137+985725172+986266562+986845399+987552686+988245924
2826+988707975+988905582+989074702+989472366+990048496+990501136+990651888
2816+990620758+990633261+990806313+991132952+991542733+991909589+992078645
2806+992000465+991829992+991774048+991823804+991797960+991650946+991527973
2796+991505222+991525589+991600545+991828123+992181509+992468768+992538826
2786+992423265+992273481+992195430+992154439+992062532+991932082+991866665
2776+991921061+992059889+992224175+992363261+992437960+992460776+992510081
2766+992646009+992825183+992946867+992972970+992943193+992901944+992882029
2757+992930690+993074351+993278791+993467182+993556382+993540592+993540076
2747+993625152+993632886+993384362+993021695+992864692+992985473+993159040
2737+993212922+993242827+993428769+993745675+993992653+994066256+994014759
2727+993860721+993600338+993319395+993138674+993145506+993432636+993974864
2717+994468367+994562724+994258772+993883859+993742195+993906417+994255291
2707+994589020+994757946+994783405+994842377+995058805+995358954+995623140
2697+995845818+995998890+995943204+995656976+995337427+995145040+995067312
2687+995068150+995146974+995259119+995351284+995436875+995542833+995628425
2677+995616694+995518084+995459949+995531297+995664582+995775824+995900795
2667+996074685+996235233+996344478+996424526+996429875+996289952+996080292
2657+995947136+995911623+995947136+996124377+996454625+996738984+996813425
2647+996791253+996835338+996887221+996836305+996774947+996859958+997062851
2638+997228297+997285337+997279343+997236869+997111769+996889477+996662093
2628+996523588+996444248+996338161+996200751+996089766+996028860+996028280
2618+996143132+996400099+996708369+996949997+997107129+997201099+997192849
2608+997069747+996937107+996906879+996955733+996980740+996969461+997042871
2598+997268321+997479206+997456068+997283081+997290428+997610235+998043670
2588+998354518+998438176+998240890+997817575+997499895+997691766+998341112
2578+998877926+998910925+998729044+998765588+998852790+998527247+997903166
2568+997645103+998042123+998630627+998876379+998792142+998643646+998472464
2558+998255392+998191392+998474655+999029000+999673770+1000293211+1000759644
2548+1000962150+1000905819+1000616820+1000098375+999482865+999040666+998995356
2538+999399594+1000074914+1000649497+1000857803+1000783427+1000677855
2530+1000698544+1000908011+1001253340+1001472281+1001306513+1000855483
2521+1000497714+1000469936+1000693453+1000955511+1001107810+1001109614
2513+1001015515+1000923028+1000880426+1000867664+1000887451+1000936756
2504+1000861864+1000493847+999989516+999714116+999759748+999954519+1000265819
2495+1000702476+1000944232+1000651430+1000068791+999824779+1000194987
2486+1000893445+1001484720+1001758058+1001754126+1001550396+1001113675
2478+1000480570+999967023+999900445+1000186608+1000438032+1000460590+1000343869
2468+1000210649+1000138205+1000203494+1000380671+1000481988+1000356953
2459+1000090447+999899027+999863514+999857520+999708122+999353061+998889721
2449+998573588+998685217+999253999+1000009174+1000687008+1001195334+1001443214
2439+1001331262+1001015967+1000874367+1001097368+1001510307+1001807363
2431+1001776620+1001337191+1000602190+999974370+999950910+1000619076+1001428906
2421+1001714747+1001377731+1000842980+1000471483+1000324018+1000374484
2412+1000595551+1000839757+1000899052+1000754746+1000672313+1000972333
2404+1001694058+1002523030+1003103413+1003358962+1003440622+1003468464
2395+1003445778+1003326801+1003038188+1002524770+1001872008+1001265199
2387+1000745594+1000130085+999231570+998012346+996462681+994500786+992099269
2377+989404306+986633096+983915253+981319867+978995562+977119258+975583386
2367+973934208+971941247+970044254+968861832+968521272+968768893+969308157
2357+969918574+970853053+973006368+976779471+980961904+983719128+984193295
2347+982647691+979923402+977012269+974701822+973572894+974055054+975897199
2337+977977684+979129814+978974487+977979746+977054034+976983975+977905628
2327+979291135+980480389+981183810+981642703+982377833+983633214+985172954
2317+986758003+988480848+990369914+991980872+992848837+993228970+993835778
2308+994902833+996083257+997175254+998281430+999291768+999870282+1000016135
2298+1000154769+1000623072+1001347504+1001995690+1002305249+1002328129
2289+1002379819+1002688411+1003166511+1003572682+1003716473+1003450096
2281+1002708778+1001728088+1001038267+1001093179+1001973647+1003355288
2272+1004543253+1004833670+1004300788+1003875345+1004198246+1004896059
2264+1005325046+1005308547+1004863898+1004007986+1003064613+1002563118
2255+1002765559+1003544259+1004494399+1005079423+1005016454+1004487696
2247+1003759140+1002858820+1001839524+1001071975+1001022541+1001751548
2238+1002767300+1003554636+1004146878+1004819620+1005417985+1005525941
2230+1005132208+1004591205+1004166213+1004071857+1004624719+1005880487
2221+1007291324+1008043148+1007684606+1006339638+1004495817+1002869261
2213+1002349269+1003432114+1005355532+1006311859+1005134851+1002613068
2204+1000765638+1000952740+1002838583+1005054029+1006665116+1007676678
2196+1008121392+1007651220+1006621934+1006409245+1007641746+1009176200
2187+1009792870+1009861832+1010344572+1011089886+1011075449+1009710179
2179+1007238797+1004427756+1002227070+1001157566+1000823902+1000559652
2170+1000502226+1001415306+1003527502+1006084926+1008029097+1008691398
2162+1007920819+1006185470+1004773860+1004953034+1006481430+1007930551
2153+1008424699+1008155357+1007552545+1006922728+1006795050+1007637492
2145+1009177425+1010619005+1011361354+1011268094+1010718325+1010416886
2136+1010629124+1010841491+1010643110+1010396842+1010551074+1010882353
2128+1010874619+1010437060+1009868729+1009343064+1008828486+1008378165
2119+1008161996+1008312296+1008886041+1009694259+1010181253+1009991121
2111+1009556849+1009523141+1009868342+1010163142+1010215992+1009936080
2102+1009121610+1007872739+1006870007+1006920150+1008231345+1010118090
2094+1011558317+1012128260+1012111309+1011763143+1011009451+1009940721
2085+1009086742+1008919040+1009324825+1009836181+1010204842+1010424943
2077+1010377055+1009997115+1009691359+1009955416+1010572665+1010738949
2068+1010090699+1009265078+1009232079+1010140648+1011151501+1011615163
2060+1011918471+1012722435+1013687592+1013565715+1011726471+1009259085
2051+1008105923+1009080297+1011026144+1012206117+1012223518+1011875417
2043+1011793500+1012110535+1012819821+1013799415+1014926667+1016305408
2034+1017713280+1017974759+1016159490+1013324281+1011728662+1012323740
2026+1013796966+1013929800+1011771651+1008763519+1007292033+1008012082
2017+1009600418+1011043545+1012469142+1013631004+1013608769+1012395345
2009+1011397512+1011747933+1012787724+1013038826+1012326447+1011858982
2000+1012492345+1013971822+1015682873+1017029711+1017221066+1015749129
1992+1013186355+1010855799+1009705087+1009866795+1010953120+1012461215
1983+1013978525+1015018575+1015093789+1014235106+1012938476+1011514877
1975+1010251118+1009778304+1010226046+1010738498+1010747263+1010841942
1966+1011577524+1012411523+1012700393+1012626725+1012588957+1012698588
1958+1013098831+1013792583+1014189216+1013751077+1012928679+1012682089
1949+1013235080+1013806569+1013542319+1012506266+1011565407+1011240186
1941+1011160331+1010968202+1010813584+1010740754+1010585426+1010487396
1932+1010683199+1010930369+1010791799+1010235327+1009581212+1009202303
1924+1009369554+1010037978+1010887122+1011742003+1012570266+1013116490
1915+1013047205+1012367245+1011402603+1010586844+1010298554+1010651618
1907+1011325133+1011671107+1011215888+1010231653+1009595198+1009784684
1898+1010354304+1010681330+1010812359+1011205447+1011986918+1012823753
1890+1013233340+1012961614+1012319422+1011923369+1012086237+1012645094
1881+1013296309+1013840084+1014126376+1014118127+1013999987+1013992640
1873+1014162018+1014503738+1014987831+1015406120+1015492356+1015300742
1864+1015093531+1015029854+1015126530+1015282567+1015284952+1015011227
1856+1014670087+1014619750+1014941749+1015417205+1015866302+1016257843
1847+1016614902+1017034158+1017586247+1018057772+1018237655+1018301075
1839+1018460270+1018585563+1018366429+1017747568+1017000707+1016503273
1830+1016563857+1017193223+1018064991+1018836020+1019269068+1019293818
1822+1019123537+1019079130+1019299425+1019620972+1019756126+1019650684
1813+1019503800+1019393781+1019129982+1018629068+1018117583+1017765679
1805+1017504072+1017267729+1017154295+1017289449+1017632587+1017976306
1796+1018113136+1018020648+1017956970+1018250159+1018770667+1019047936
1788+1018942945+1018708472+1018649563+1018805084+1018975493+1019034079
1779+1019002627+1018868504+1018570997+1018230759+1018219222+1018749978
1771+1019463969+1020025790+1020525609+1020941513+1021067708+1020934875
1762+1020815446+1020819700+1020830335+1020901167+1021213948+1021621473
1754+1021701200+1021264478+1020586773+1020124207+1019835659+1019154281
1745+1017609772+1015132782+1011915506+1008067188+1003748247+999542612+996042201
1735+993659182+993077896+994439106+996727833+999276879+1001826570+1004145073
1725+1006284661+1008347873+1010051899+1011102261+1011706555+1012460828
1717+1013832737+1015535409+1016968804+1017954779+1018598969+1019065789
1708+1019515916+1020101069+1020815511+1021393574+1021711254+1022028161
1700+1022484797+1022745245+1022911207+1023534192+1024426906+1025011285
1691+1025306665+1025568724+1025739520+1025657731+1025526186+1025870227
1683+1026777893+1027666353+1028217089+1028373383+1028157987+1027771602
1674+1027440065+1026959904+1025758340+1023307840+1019577532+1015071425
1666+1009722682+1002483005+992337610+980110955+968082423+957431279+948225131
1656+940385671+934132162+930712316+930169959+930299570+931405618+935976047
1646+944643190+953421188+960031564+965522937+970603562+975222910+980048373
1636+986587981+994091392+999556726+1002637302+1004679696+1006585519+1008500042
1626+1010181768+1011708360+1013435717+1015129173+1016133967+1016453968
1618+1016656731+1017013340+1017047692+1016413170+1015338704+1014221764
1609+1013383834+1012834065+1012120783+1010415984+1006656157+999788622+989223327
1599+975254620+959200916+943206314+929477624+919005783+910982379+903894549
1589+897081217+891192245+887605405+887617844+891691871+898773255+906561476
1579+913391115+919972680+928655613+939161484+947932716+954390277+960738980
1570+968091704+974845806+979625508+983043679+985548962+986853326+987092376
1560+987593097+989701168+991706374+992380663+992337867+992088699+991835470
1550+991611760+991431425+991534547+992345988+994036286+996460812+1000152191
1540+1005552172+1010214703+1012612739+1013929156+1015526450+1017728813
1531+1019655067+1020778451+1021471560+1022091516+1022519795+1022477257
1523+1021844410+1020561573+1018322280+1013937019+1005591874+992736111+977035149
1513+960736080+946068722+935758718+933327811+942819929+959050036+969271162
1503+972344647+971193097+966265608+956445691+941341805+924139709+909670990
1493+899295439+891551302+884785149+878341316+872766478+868890317+867252418
1483+868092411+870985627+874716708+878242319+881595651+885698358+892163073
1473+902656764+915731210+926920780+934769198+941057575+947695277+954932827
1463+960935170+964254150+965455263+966226293+968550275+972330661+974648714
1453+974314470+971709480+967073762+960572438+953266248+947651902+946056734
1443+948931387+954801991+961102227+965921438+968971012+970767655+971714056
1434+972261505+973173748+975238636+978560323+982211485+985226191+987281927
1424+988324425+988424969+988096268+988368703+989982497+992424425+994930933
1414+997309506+999457729+1001106456+1001923440+1001672531+1000332719+998092588
1404+995340134+992617199+990505390+989550416+989997128+991659583+994318647
1394+997646134+1000906400+1003592726+1005867468+1008115398+1010351597
1385+1012222745+1013613796+1014746268+1015796952+1016745610+1017434915
1377+1017644060+1017174984+1016056819+1014733636+1013892741+1014111488
1368+1015570342+1017825103+1020184018+1022353897+1024358201+1026060487
1360+1027216419+1027865314+1028311317+1028826669+1029429030+1029917119
1351+1030099967+1029920599+1029355878+1028251055+1026388028+1023769181
1343+1020647229+1017168796+1013191382+1008587245+1003570620+998525636+993675359
1333+988957723+984028236+978489878+972354831+966306921+961372278+958239626
1323+956794243+956119310+954855035+951897884+947305992+942557290+939685215
1313+940084362+943783217+949631843+956186919+962323771+967344715+970966938
1303+973186251+973990151+973237748+970780738+966519804+960393715+952582420
1293+943838903+935457408+928706078+924097687+921061390+918278193+914477504
1283+909086482+902296223+894643801+886555302+878214540+869751063+861444912
1273+853767160+847318107+842739299+840564908+841069754+844234180+849779628
1264+857175663+865689605+874564216+883226074+891322694+898576099+904723456
1254+909653717+913440355+916112632+917517733+917521407+916241212+914071462
1244+911635399+909699284+908908661+909517725+911419487+914361363+918052549
1234+922170853+926426696+930652570+934801166+938845287+942707655+946311059
1224+949651952+952737361+955492522+957858268+959928570+961840194+963575994
1214+964994565+965945608+966224617+965547428+963790746+961256652+958601004
1204+956486037+955279962+954958286+955159309+955391076+955338999+955056960
1194+954903760+955333585+956669014+958888134+961543267+963921259+965315726
1184+965200100+963295438+959652204+954750108+949517185+945143782+942647716
1174+942378438+943906964+946499965+949708605+953441168+957589120+961779674
1164+965500572+968340035+970064943+970547747+969785740+968105110+966271731
1154+965232648+965689801+967851881+971411394+975660598+979763950+983058761
1145+985198477+986189865+986415831+986493108+986930797+987897694+989326835
1135+991145455+993295870+995575446+997628088+999184972+1000240812+1000921868
1125+1001234070+1001027632+1000218125+998978535+997625832+996355885+995229923
1115+994342945+993770231+993401377+993118372+993131842+993886888+995612698
1105+998106187+1000908333+1003566688+1005772338+1007403469+1008515124
1096+1009257795+1009780366+1010219730+1010759122+1011586031+1012732812
1088+1014017776+1015178156+1015956533+1016025560+1014983062+1012568268
1079+1008876115+1004379998+999856618+996265460+994488411+994996287+997681647
1069+1001938521+1006890567+1011682966+1015772396+1019088992+1021924781
1061+1024551619+1026925100+1028800502+1030022497+1030543005+1030306533
1052+1029362452+1027972883+1026417740+1024809489+1023243131+1021979178
1044+1021356128+1021590859+1022694522+1024482141+1026611545+1028615398
1035+1029886827+1029693280+1027476931+1023441060+1018846139+1015473987
1027+1014627291+1016539946+1020476626+1025157847+1029247729+1031829645
1018+1032685492+1032239361+1031309717+1030848181+1031631457+1033835302
1010+1036823648+1039570301+1041339551+1041761127+1040494854+1037547306
1001+1033964140+1031435654+1030854949+1031683469+1032868985+1033940938
993+1035061809+1036399365+1037758190+1038733531+1038979992+1038183826
984+1035802289+1030990812+1023094828+1012661722+1002168419+995250805+994392057
975+999052202+1006260943+1013040180+1018051520+1021241856+1022801962+1022915847
965+1022007858+1020576332+1018784202+1016557605+1014078360+1011851442
956+1010222372+1009118516+1008378745+1008071442+1008347422+1009213775
948+1010606051+1012508908+1014889866+1017559371+1020120082+1022113043
939+1023336198+1024009842+1024526290+1025087531+1025621381+1025955818
931+1026047919+1026069381+1026197510+1026304950+1025913151+1024436574
922+1021469497+1017043954+1011788731+1006848609+1003521766+1002651868
914+1004050072+1006570631+1008947527+1010509696+1011131006+1010936750
905+1010275609+1009625490+1009261534+1009156285+1009252704+1009643020
897+1010421140+1011501858+1012624727+1013492047+1013980781+1014316636
888+1014959860+1016208215+1017939633+1019738402+1021193259+1022152229
880+1022817753+1023589040+1024794407+1026610062+1029102907+1032155123
871+1035430534+1038568987+1041340647+1043575815+1045121033+1045922742
863+1045972434+1045055486+1042605180+1037945808+1030900322+1022319545
854+1013912785+1007366926+1003526406+1002161458+1002031138+1001029759+996885094
844+988499990+976795842+964033984+952323842+942884058+936367266+933215344
834+933393938+936116744+940303818+945312580+951011099+957262159+963612151
824+969458328+974390071+978445664+982107009+985969636+990356637+995173077
815+1000007885+1004410032+1008207627+1011489935+1014078038+1015126724
806+1013603290+1009310130+1003438817+998192939+995730773+996941038+1000845815
796+1005393171+1009123801+1011948892+1014345446+1016396155+1017937828
788+1019206679+1020889436+1023634994+1027633935+1032476155+1037349441
779+1041553143+1044812312+1047092661+1048381556+1048749573+1048319167
771+1047068427+1044831583+1041361271+1036218128+1028899048+1019246059
762+1007359191+993110122+976437622+958345520+941051194+926918846+917540484
752+913721492+915592704+922053939+930224162+936528201+939377203+940575158
742+943104804+947454681+950971333+950961859+947669884+944135636+943942863
732+949053522+958709927+969927146+979701948+987165592+993383331+999451220
722+1005611725+1012005738+1019155376+1027355247+1036197955+1044781569
714+1051896984+1056117443+1055967014+1049853364+1036078978+1013540644+982671215
704+945866474+907169058+871265152+841977614+820796364+806764753+798356834
694+795722003+800883837+815174736+836284122+858558722+876640963+888605302
684+896127081+902470951+910062660+919411954+929955336+941068854+952019439
674+961608814+968422984+971789658+972720333+974172419+977561716+979001105
664+976012566+970793886+967556308+969126984+974679264+981425502+987060472
654+989847472+987791672+979237641+965299162+951604760+945732867+951091341
645+963832381+976286033+982612629+981042791+972680567+960560192+949559593
635+944592080+947080606+953918494+960656869+964725417+965202678+961616806
625+955249090+950367038+951181186+957581193+965704882+972630102+978913193
615+986093962+993539109+999252388+1002652963+1004717787+1005643242+1004311358
605+1000614242+996878069+996130435+999464497+1005364233+1011340214+1015978318
595+1019456750+1022712117+1026424443+1030417583+1033967492+1036786975
586+1039181080+1041154705+1042088152+1041539221+1039843123+1037751358
578+1035828263+1034303605+1033349147+1033361586+1034772165+1037547112
569+1041124155+1044832743+1048091784+1050347576+1051430937+1051946869
561+1052695792+1053601847+1053689566+1052156722+1048988751+1044595498
552+1039692951+1035872992+1035329797+1038971420+1044992904+1050253542
544+1053293771+1055286731+1057887854+1061177251+1064122607+1066040160
535+1066776708+1066091850+1063530816+1058628720+1051346184+1042916930
527+1036050233+1032973912+1032557750+1030926876+1024996010+1014043428+998978986
517+981499363+963774568+947709263+934111796+923341416+916849761+917173435
507+925512843+939836740+956588257+973265462+988379467+1000622556+1009127411
497+1013812241+1015323042+1014227565+1009902437+1001720805+991846685+984701042
487+983563156+989027717+999353061+1011055147+1020531603+1026357285+1029700370
477+1032370713+1034648225+1035387997+1034272733+1032697803+1031253966
469+1028622487+1024737561+1022502779+1024955406+1032001665+1040405911
460+1046279802+1047871425+1046597675+1045184647+1044908473+1046018903
452+1048787212+1052514169+1055483050+1056824022+1057229807+1057538012
443+1057542653+1056820928+1055904109+1055687553+1056443888+1057930134
435+1059627908+1060902495+1061509948+1061508143+1060470543+1057561988
426+1052676843+1047107420+1042962755+1041479410+1042019576+1043071098
418+1044374817+1046587041+1048752989+1049538391+1049458923+1050392048
409+1052672267+1054222835+1053341013+1051033917+1049913884+1051785032
401+1056933653+1064248738+1070358456+1071988041+1071069095+1070824632
392+1071191166+1071126199+1071177180+1072370237+1073741823+1072203179
384+1066012317+1057894750+1051679332+1048305182+1046639826+1046401550
375+1049740252+1056478563
##END=
