##TITLE=X9239
##JCAMP-DX=4.24
##DATA TYPE=INFRARED SPECTRUM
##DATE=5/11/2018
##SAMPLING PROCEDURE=ATR platinum Diamond 1 Refl
##ORIGIN=ComPlat
##XUNITS=1/CM
##YUNITS=TRANSMITTANCE
##RESOLUTION=4
##FIRSTX=3997.453
##LASTX=373.96442
##DELTAX=-1.4165319
##MAXY=1.0885231
##MINY=0.79675537
##XFACTOR=1
##YFACTOR=1.0137662e-009
##NPOINTS=2559
##FIRSTY=1.0192264
##XYDATA=(X++(Y..Y))
3997+1005386103+1005016281+1004265818+1003649879+1003553925+1003905521
3989+1004439734+1005045325+1005667967+1006107873+1006182191+1005924667
3980+1005482997+1004963835+1004488652+1004200790+1004067560+1003872360
3972+1003586262+1003483488+1003704911+1004035223+1004252648+1004316264
3963+1004198203+1003987481+1004013233+1004412453+1004853418+1005000641
3955+1004791330+1004078143+1002622490+1000765383+999646392+1000084652
3946+1001360509+1002056057+1001899426+1001902013+1002667645+1003543342
3938+1003810743+1003480431+1002774535+1001714809+1000458590+999584304+999551849
3928+1000084064+1000525734+1000612868+1000652379+1000787843+1000551251
3920+999616877+998625589+998790098+1000419667+1002500196+1004008647+1004780982
3910+1005016163+1004431268+1002314991+998485891+994194425+991461739+991031476
3900+992210203+994249105+996474153+997989542+998164869+997396062+997187809
3890+998320559+999510340+999204487+997399237+995620798+994763681+994556134
3880+995339522+997403235+999335012+999411564+997400531+994621514+992547100
3870+992124009+993510872+995235337+995536015+994449009+993968181+995406666
3860+997571978+998689911+998010825+995373623+990847682+986969429+987784449
3850+992015238+996426999+999444842+1000438834+999236589+996245086+992501004
3840+989281023+987802910+988685545+991023127+993337543+995149143+996702396
3830+998044339+998765286+998576083+997789285+996692989+994715351+991541466
3820+989178484+989594637+991436810+993238179+995386793+998027759+1000052785
3810+1000549487+999506930+997787991+996579514+995831991+994304255+991932924
3801+990943635+992680800+995689706+998615711+1001081584+1002851322+1003758768
3791+1003986188+1003832379+1003331208+1002492435+1001769489+1001514553
3782+1001221517+1000371102+999682375+1000344997+1002054763+1003430455
3774+1003621775+1002573573+1000774203+999097715+998163928+997956616+998352896
3764+999026337+999144163+998190269+996848914+996360325+996640661+996253082
3754+993966770+989685534+985476264+984437646+985981257+987374175+987777276
3744+988245403+989656607+991162001+991564278+990109331+986879707+983798071
3734+983760736+987166863+991740546+995295190+996745316+996088573+994568128
3724+993955246+994862339+996592449+998394171+999904974+1000738338+1000307486
3714+998168750+994778615+992399524+993517457+997318335+1001195412+1003532876
3704+1003793104+1002443753+1001188004+1001509379+1002847441+1003841199
3696+1003901875+1002851322+1000296668+996242029+992362012+991501367+993978999
3686+997386185+1000168847+1001844629+1002040653+1000545019+997346321+992478192
3676+987472481+985952624+987898982+989664133+990331577+992457143+997047759
3666+1001697876+1004483478+1005255460+1004766636+1003661873+1002047826
3657+1000031854+998347252+997362431+995760143+991711266+985102444+980002896
3648+981532161+987621351+993418916+997059518+998875351+999836653+1000407791
3638+1000301842+999305967+997825738+996327988+994489342+991588267+988609581
3628+988758216+992106606+995348811+996639602+995715459+992998882+989912719
3618+988387335+988559840+989186716+989887555+990933640+991844144+991921165
3608+991856491+992971249+994892207+996055413+995861388+995143381+994841526
3598+994861046+994827768+995105752+996223802+997641944+997885121+995853745
3588+992266411+990085460+991068281+993551205+995569176+996538710+996653125
3578+996322814+996056354+996320462+997126427+997653821+996539180+992838842
3568+987297624+983240163+983814652+987770455+991958677+994897734+996678643
3558+997798222+998415337+998412162+997846081+997114903+996569048+995984153
3548+994846112+993272280+992360601+993129055+995244509+997450859+998791039
3538+999165094+999083839+999030335+999027160+998763287+997986602+996847503
3529+995889610+995472752+995382207+995371154+995652195+996450047+997496720
3519+998293043+998599719+998576436+998487302+998335846+997972844+997542815
3509+997432398+997650646+997698270+997190749+996407244+996108564+996636310
3499+997490370+998015999+998165575+998321735+998569733+998575730+998138882
3489+997487783+997041409+997011306+997242371+997447567+997593026+997943681
3479+998617710+999310671+999639925+999521981+999069963+998403225+997787874
3469+997650881+998153698+998935322+999465538+999522099+999288682+999189670
3459+999625461+1000638621+1001756436+1002309464+1001998438+1001029021+999745168
3449+998472603+997686040+997787404+998598073+999511163+1000080419+1000181782
3439+999932019+999631693+999501991+999463892+999400981+999463304+999823718
3429+1000339235+1000742453+1000983043+1001114745+1000971049+1000295256
3421+999245526+998455670+998399580+998935675+999577602+999967649+1000072187
3411+1000073951+1000144976+1000353934+1000707411+1001103574+1001240919
3403+1000830411+999941544+998987180+998370770+998198970+998282342+998373122
3393+998382999+998360657+998331377+998206026+997870540+997421932+997167231
3383+997189221+997126545+996682170+996051650+995559769+995221461+994931365
3373+994727228+994619045+994436309+994042146+993524042+993047683+992632353
3363+992189977+991687043+991187871+990836040+990832983+991238670+991800635
3353+992169281+992202795+991890004+991230439+990406482+989824056+989741272
3343+989966341+990047243+989747857+989286432+989056308+989121218+989150615
3333+988897796+988543848+988423435+988580889+988814894+989078532+989528669
3323+990154956+990690345+990976326+991139776+991345207+991583210+991741957
3313+991748660+991632010+991528531+991602025+991889534+992227489+992422101
3303+992500064+992649991+992904105+993083665+993086605+993014287+992998765
3293+993114827+993471361+994145037+994944182+995430184+995369037+995039196
3284+994869512+994920076+994987691+995023556+995112925+995245214+995402315
3274+995711225+996283891+996986259+997484373+997559631+997384303+997361491
3264+997672047+998160048+998616299+998894283+998845483+998466606+998058920
3254+998047279+998622767+999523275+1000151678+1000068895+999435317+998811735
3244+998560444+998621238+998769284+998862769+998889109+998919918+999007523
3234+999113237+999158862+999099126+998935205+998740710+998666040+998819848
3224+999176618+999645451+1000108640+1000350054+1000183898+999783738+999615936
3214+999872871+1000225290+1000328770+1000309720+1000497747+1000894615
3206+1001190943+1001182007+1000927305+1000572652+1000237520+1000065720
3197+1000168259+1000484107+1000852636+1001224692+1001642138+1002033244
3189+1002226210+1002180703+1002048296+1001990912+1002047708+1002148836
3180+1002180232+1002128022+1002192697+1002559697+1003035468+1003255480
3172+1003246543+1003387652+1003784755+1004109070+1004073675+1003720903
3163+1003264064+1002912351+1002805344+1002940808+1003184220+1003389298
3155+1003515002+1003676337+1004019583+1004463840+1004713485+1004644342
3146+1004466898+1004357068+1004155518+1003636709+1002945747+1002561931
3138+1002800170+1003454326+1004016526+1004221016+1004233716+1004280869
3129+1004315441+1004210315+1004061446+1004048040+1004114596+1004080495
3121+1003956437+1003851546+1003698679+1003384242+1003014067+1002777592
3112+1002713858+1002802992+1003054753+1003323683+1003314040+1002966913
3104+1002638130+1002686107+1003027237+1003279116+1003254539+1003098026
3095+1002964561+1002817926+1002574278+1002235853+1001834987+1001409897
3087+1001029492+1000705765+1000351465+999955302+999674379+999631223+999777388
3077+1000047258+1000445302+1000894968+1001174128+1001077116+1000591232
3068+999962946+999588067+999637808+999797966+999643805+999219774+998942142
3058+999056088+999501991+1000107347+1000591349+1000616514+1000163320+999669793
3048+999577484+999885454+1000251513+1000365811+1000178724+999856526+999540913
3038+999190376+998718956+998149465+997523060+996875489+996402187+996372319
3029+996760368+997241666+997635477+998091610+998730244+999332896+999566430
3019+999376051+998985063+998588430+998207202+997807982+997441099+997255071
3009+997370310+997728138+998103604+998293043+998235659+997987895+997668519
2999+997336679+996874196+996164537+995388910+994862927+994596467+994333064
2989+993947603+993495350+993021460+992625297+992531343+992814265+993221481
2979+993445491+993424207+993302854+993254759+993361296+993558849+993716302
2969+993767807+993677027+993331664+992637762+991699390+990786299+990115445
2959+989709170+989454352+989267147+989118395+988899559+988471765+987906860
2949+987440614+987121944+986769172+986288580+985768124+985328277+985128138
2939+985347855+985898062+986355959+986402878+986130479+985797816+985546525
2929+985438812+985524241+985765361+986025765+986175693+986132596+985843441
2919+985363319+984967391+985027892+985663351+986594785+987430971+987989644
2910+988312665+988561487+988962823+989647435+990485503+991223266+991732903
2900+991987957+991963145+991745132+991586738+991640830+991729846+991524768
2890+990896011+990014082+989185187+988644976+988422730+988331244+988147451
2880+987814552+987415920+987044216+986810094+986839138+987105011+987403220
2870+987604888+987781744+987993054+988132399+988108763+988065608+988294791
2860+988925077+989719283+990247617+990328872+990233859+990376026+990908123
2850+991757244+992857421+994121872+995353515+996429586+997426518+998358658
2840+999003642+999210366+999210484+999418266+1000000575+1000734575+1001257970
2830+1001421186+1001398138+1001472220+1001762316+1002159537+1002467741
2822+1002577453+1002524067+1002391660+1002184818+1001867089+1001535366
2813+1001429417+1001667067+1002080163+1002442224+1002747607+1003108022
2805+1003478197+1003668458+1003606488+1003464321+1003483135+1003690683
2796+1003878827+1003918103+1003933507+1004042984+1004147522+1004140702
2788+1004115067+1004206787+1004421860+1004704430+1005013929+1005275215
2779+1005368464+1005269453+1005153861+1005231589+1005475472+1005654562
2771+1005656208+1005602822+1005645860+1005806371+1006031322+1006295195
2762+1006596932+1006863510+1006936416+1006764734+1006550249+1006534962
2754+1006707820+1006857748+1006835053+1006678893+1006564595+1006635032
2745+1006834112+1006978043+1007007676+1007034722+1007141612+1007301182
2737+1007457342+1007541184+1007464398+1007220280+1006940767+1006775435
2728+1006755679+1006806949+1006860335+1006927950+1007079524+1007358684
2720+1007727095+1008079749+1008299878+1008334567+1008227325+1008056113
2711+1007860795+1007678412+1007609622+1007750260+1008061640+1008374195
2703+1008526710+1008483084+1008337625+1008223444+1008202513+1008249197
2694+1008341505+1008493432+1008671229+1008763655+1008697687+1008511071
2686+1008264013+1007960629+1007633493+1007418772+1007448993+1007679823
2677+1007900306+1007936288+1007825165+1007773543+1007937464+1008245786
2669+1008453451+1008400300+1008189343+1008060699+1008117730+1008256017
2660+1008339506+1008369844+1008465093+1008679813+1008872426+1008825625
2652+1008526828+1008192048+1007972153+1007826811+1007744851+1007841863
2643+1008105736+1008289765+1008228501+1008081042+1008102208+1008330216
2635+1008625839+1008858786+1008943569+1008864783+1008801990+1009041992
2626+1009608778+1010128999+1010220602+1009895464+1009464612+1009183688
2618+1009154056+1009412520+1009860657+1010188617+1010144521+1009867242
2609+1009727192+1009868065+1010105481+1010219426+1010177328+1010092193
2601+1010083021+1010189675+1010375821+1010556087+1010603594+1010443083
2592+1010202610+1010109831+1010186148+1010242121+1010210018+1010243532
2584+1010459663+1010765634+1010930025+1010761753+1010349598+1010114417
2575+1010386169+1010947899+1011248578+1011031859+1010537390+1010161454
2567+1010113477+1010352773+1010712365+1011028213+1011144863+1010953073
2558+1010559850+1010263052+1010212841+1010343719+1010678029+1011303493
2550+1012011505+1012422014+1012511265+1012569237+1012670835+1012596518
2541+1012254682+1011847702+1011617459+1011628513+1011808662+1012070536
2533+1012342405+1012536077+1012590403+1012565474+1012562534+1012512676
2524+1012235398+1011799019+1011606406+1011960941+1012698234+1013374379
2516+1013668708+1013543710+1013212692+1013005851+1013058531+1013131672
2507+1012937060+1012596636+1012528551+1012850396+1013118973+1012851925
2499+1012243159+1012017502+1012512088+1013317583+1013967976+1014479965
2490+1015019353+1015537339+1015905515+1016021577+1015772050+1015192917
2482+1014593087+1014308518+1014391067+1014597556+1014640594+1014469617
2473+1014261247+1014116375+1013964919+1013831101+1013914120+1014306755
2465+1014802634+1015047810+1014874834+1014504895+1014329920+1014484081
2456+1014806161+1015124126+1015325912+1015327087+1015228547+1015242305
2448+1015297219+1015081206+1014582034+1014184108+1014159884+1014410705
2439+1014716793+1014937863+1014974316+1014798988+1014552989+1014406706
2431+1014321101+1014128017+1013824986+1013579222+1013452342+1013360856
2422+1013371910+1013771365+1014616253+1015385765+1015437387+1014807102
2414+1014184343+1014044880+1014205274+1014262893+1014088154+1013785593
2405+1013497144+1013362385+1013481739+1013814168+1014169409+1014365432
2397+1014390714+1014351321+1014266421+1014046527+1013729267+1013566993
2388+1013752786+1014180227+1014628835+1015109663+1015861772+1017050141
2380+1018608686+1020356787+1022125583+1023835937+1025613671+1027732769
2371+1030288599+1033040335+1035668601+1037994659+1039957009+1041599749
2363+1043009541+1044085495+1044507292+1043948737+1042184997+1039189378
2354+1035283256+1031147716+1027688555+1025724559+1025651417+1027318498
2346+1029963579+1032369951+1033672502+1033932965+1033644162+1033223423
2337+1032987066+1033085960+1033300328+1033084902+1032087617+1030597274
2329+1029205473+1028152803+1027372119+1026892820+1026796749+1026883295
2320+1026668693+1025816985+1024522548+1023333003+1022499874+1021700141
2312+1020626774+1019547881+1018882437+1018595516+1018444530+1018419953
2303+1018551067+1018628794+1018422658+1017896440+1017120343+1016311438
2295+1015884114+1016030514+1016391987+1016540974+1016520396+1016540504
2286+1016505462+1016248292+1015934678+1015916686+1016365529+1017137393
2278+1017860693+1018197354+1018152200+1018052483+1018160549+1018383147
2269+1018457347+1018375739+1018410193+1018636908+1018792245+1018739917
2261+1018619975+1018415602+1017949121+1017417964+1017327890+1017752980
2252+1018162548+1018084115+1017525442+1016699957+1015722544+1014796872
2244+1014425639+1015059451+1016618349+1018631028+1020699798+1022538914
2235+1023809832+1024356746+1024464576+1024383791+1023774320+1022305497
2227+1020727432+1020323626+1021150170+1021956958+1022039977+1021852656
2218+1021626882+1020925690+1019848678+1019250965+1019460041+1019926758
2210+1020335738+1020977665+1021745648+1021868648+1021144996+1020422167
2201+1020312808+1020469556+1020687569+1021577847+1023446830+1025471739
2193+1026563802+1026442449+1025591681+1024632378+1023906962+1023432484
2184+1023110051+1022885335+1022646509+1022114177+1021171689+1020423460
2176+1020900525+1022737054+1024742443+1025825334+1026044640+1025955506
2167+1025971263+1026635179+1028399978+1030704282+1031960148+1031044706
2159+1028997926+1028301084+1029552483+1030716158+1030308472+1029229814
2150+1028963942+1029516147+1029649965+1028316136+1025776769+1023676367
2142+1023461764+1024642491+1025393776+1024763726+1023414728+1022385929
2133+1022081016+1022400392+1022978467+1023135333+1022334424+1020983426
2125+1020220734+1020571037+1021317031+1021503529+1021065622+1020615133
2116+1020487782+1020389477+1019950982+1019377728+1019227800+1019566578
2108+1019831157+1019635369+1019216511+1019014961+1019199931+1019599621
2099+1019851971+1019775772+1019659475+1019934284+1020638769+1021479423
2091+1022233061+1022844532+1023302664+1023577003+1023629213+1023469996
2082+1023215530+1023017625+1022954361+1023039144+1023271973+1023635210
2074+1024120389+1024735270+1025369318+1025672113+1025189757+1023767029
2065+1022006699+1021081027+1021534103+1022448722+1022521981+1021799975
2057+1021502118+1022265869+1023540197+1024647077+1025442812+1025953742
2048+1026281114+1026862247+1028018162+1029250510+1029685595+1029219466
2040+1028696776+1028825420+1029352932+1029542370+1029188305+1028819306
2031+1028939718+1029498038+1030355155+1031951094+1034616518+1036989848
2023+1036534655+1032656284+1027955251+1025297470+1024835927+1024886256
2014+1024754319+1025181996+1026533816+1028087305+1029213469+1030124208
2006+1030931819+1031049410+1030189706+1028986755+1028329306+1028704655
1997+1030004736+1031515539+1032520467+1033056210+1033428384+1033335840
1989+1032675687+1032454381+1033406041+1034479760+1034092417+1032473078
1980+1031588327+1032752709+1034914375+1035794070+1034601819+1032546220
1972+1030984853+1030322701+1030383965+1030711455+1030640665+1030000150
1963+1029501566+1029809300+1030543300+1030616559+1029478165+1027614003
1955+1025923639+1024959397+1024737151+1024951048+1025132138+1024793712
1946+1023727048+1022253522+1021137823+1021040575+1021832900+1022751988
1938+1023245280+1023288436+1023088650+1022781033+1022447193+1022259401
1929+1022357236+1022464597+1021900985+1020418639+1018885024+1018455348
1921+1019044947+1019630312+1019837977+1020256835+1021194619+1021985886
1912+1021711194+1020227672+1018606099+1018258031+1019513075+1021458257
1904+1022939074+1023308544+1022601237+1021345017+1020181224+1019603737
1895+1019812813+1020456151+1020794459+1020549047+1020356199+1020990952
1887+1022296913+1023488457+1024092873+1024134852+1023801718+1023289612
1878+1022895683+1022832067+1022853468+1022350651+1020846434+1018318708
1870+1015561916+1014397770+1016028750+1019261078+1022044211+1023320185
1861+1023125691+1022155922+1021329025+1021226956+1021689440+1022110179
1853+1022096421+1021640287+1020801749+1019541532+1017871511+1016173386
1844+1015435153+1016390694+1018241451+1019625138+1020035412+1019917233
1836+1019952628+1020067984+1019399717+1017486755+1015323089+1014470441
1827+1014793932+1015092612+1015248772+1015945614+1017115286+1018047897
1819+1018435710+1018489684+1018330467+1017694890+1016383638+1014866368
1810+1014108027+1014451744+1015208791+1015552156+1015007829+1013403542
1802+1011230587+1009704026+1009490129+1009904401+1009909457+1008927929
1793+1007094811+1005761099+1006352932+1008091861+1009201915+1008906528
1785+1007482036+1005472414+1003202329+1001032314+999286565+997578092+994922781
1775+990522073+984324936+977637034+972201236+967522838+961642607+953671028
1765+943459997+930110122+913432376+896392746+881799057+868999976+857441475
1755+848218204+841231858+835080698+829756375+827406035+829225337+833682899
1745+838969710+844413798+849920092+855521575+861104067+865769118+868297432
1735+868502451+868033029+868823003+870185171+870688694+869712163+866875880
1725+861972355+855441084+848421753+841522071+834038493+825703207+819794166
1715+820254297+825346202+831649406+837613068+842527411+846082231+848835437
1706+851821766+855177917+858352508+861731530+866767520+874280790+884814666
1696+898868556+913451014+924871935+933334924+940536990+946695029+950783652
1686+952699613+954969874+960535904+967567523+973377788+977284145+979355678
1676+980183986+980701501+980906932+980199390+979660296+981773633+986020826
1666+989319005+990347804+990257024+991201394+993395163+994959469+994375162
1656+991001372+985048176+980479667+981758758+984179594+984132205+983238870
1646+985340976+990404953+994910787+997327977+997519532+995409135+991534057
1636+988862636+991229968+996549881+1000518090+1002008433+1001794065+1001115686
1626+1000532437+999936723+999913793+1001253972+1002996193+1003461381+1002567576
1616+1002511367+1004757699+1007522370+1009036348+1009207912+1008915347
1608+1009000953+1009542104+1010095721+1010427208+1010776452+1011435429
1599+1012247862+1012779724+1012887672+1012856040+1012973396+1013223158
1591+1013478447+1013724799+1013964096+1014117551+1014159884+1014203040
1582+1014220796+1013703280+1011858873+1008481438+1005325779+1005258752
1574+1007260260+1007882314+1005990636+1003434806+1002801698+1003680217
1565+1004192677+1003517119+1001047248+995166428+985070636+977871098+979578630
1555+983638207+986123953+986678510+985619372+983673778+981277871+977651439
1545+971644739+963350903+954138392+945996718+943023030+946101609+949566884
1536+950168595+948401738+946696323+946276760+945579037+943419840+940689505
1526+938854564+937837700+937405614+938983796+942945068+947675205+953227653
1516+960428014+967868613+973148604+975040576+973509665+970060853+970206842
1506+978880436+989107224+994984516+996590685+995118216+992451146+991679399
1496+994641622+999021751+1001405193+1000635681+998420158+998586078+1002487496
1486+1007353157+1010698725+1012083823+1012233986+1011833120+1010710484
1477+1008224738+1004203612+999544323+996636192+997793871+1001447996+1004052744
1468+1004035340+1001950931+999732703+998500825+996821280+992649168+985116908
1458+976519630+973085810+975655163+979630252+982822188+984913359+986236428
1448+987632051+989621565+991687160+993008642+993223245+992239718+989832875
1438+986037171+982393453+980845550+980668517+980233256+979531770+979566224
1428+980257362+980322625+979259665+977888560+976722415+975087671+973061646
1418+972909777+975593546+978930059+981040515+981749409+981783158+981620589
1408+981035870+979893125+979002260+979269484+980126837+980317980+979601442
1398+978674652+977933185+977323067+976950952+976500463+974877302+971168909
1388+965623457+959799317+954868805+950148193+944523603+937936829+931074188
1378+924378407+917763588+911308868+905920341+902500104+900569385+899116260
1368+898007323+897546544+897642439+898534363+901526513+907480650+915260674
1358+923228607+930772215+938034135+945226089+952256120+958869881+964960188
1349+970560495+975696731+980278881+983910958+985960032+986274175+985968204
1339+986872064+989508796+992592960+994791785+995775312+995855862+995416073
1329+994763681+994173024+993783329+993461484+992879881+991820273+990477624
1319+989396967+988937071+988935425+989157318+989765143+991021951+992822732
1309+994842702+996864906+998708372+1000081242+1000708940+1000516679+999647333
1299+998356542+996833980+995062008+992898343+990322170+987548797+984917651
1289+982711182+981050863+979907471+979165181+978611330+977905199+976749343
1279+975157873+973392722+971578829+969548452+967111565+964352363+961577226
1269+958955605+956265722+953089837+949211643+944692287+939673288+934334855
1259+928922222+923582378+918272284+912883817+907292858+901352244+895030813
1249+888486077+881908710+875425828+869178185+863309477+857860097+852782186
1239+848056576+843703199+839677958+835884017+832343426+829248796+826730419
1230+824677112+822869628+821191670+819666462+818369086+817314299+816402444
1220+815540682+814832551+814578556+815116944+816753157+819781819+824389427
1210+830452688+837525052+845171375+853335038+862293436+872271403+883187449
1200+894714729+906401522+917698972+928014776+936854761+943914308+949025967
1190+952075325+953039038+952115776+949752736+946486247+942731465+938707811
1180+934553456+930495289+926868504+923979481+921943695+920606633+919627809
1170+918696551+917629593+916245671+914276794+911467615+907716007+903149850
1160+898093164+892893135+887823220+883215611+879504631+876966969+875532482
1150+874939415+874983687+875577108+876681106+878282572+880423366+883160226
1140+886452937+890150806+894047697+897827762+901048919+903386383+904833452
1130+905570568+905762300+905563278+905206626+904997491+905171407+905747424
1120+906632175+907895450+909772195+912347427+915376324+918424740+921087225
1111+923118660+924440025+925049437+924977178+924332194+923339260+922315399
1101+921570640+921247148+921256790+921402368+921489502+921302827+920573707
1091+919017867+916394011+912507821+907133581+900046401+891298901+881407481
1081+871104435+860975541+851399204+842654468+834929947+828266210+822572594
1071+817737272+813671757+810171322+806831693+803295981+799546725+795855441
1061+792528159+789767486+787676197+786346425+785936034+786578372+788225639
1051+790673521+793683544+796984663+800241038+803118419+805339410+806689878
1041+807085806+806636963+805561480+804021044+802098380+799963172+798005878
1031+796739251+796614135+798018577+801336335+806737091+813847260+821780034
1021+829527192+836285236+841609264+845560306+848681687+851591465+854564623
1011+857586464+860657635+863831050+867040272+870141721+873135517+876153360
1001+879188548+881985203+884263284+885963290+887227624+888249309+889169690
992+890052795+890940779+891936830+893160418+894676806+896594884+899121434
982+902371930+906285577+910810049+915896780+921247971+926397084+931104996
972+935443616+939572807+943626211+947635989+951428224+954748098+957526410
962+959875221+961916358+963709495+965194017+966146559+966377271+965968115
952+965157035+964104364+962953859+961976035+961421772+961299066+961421184
942+961628555+961891899+962216331+962485790+962498666+962225738+961929586
932+961860326+961881610+961575639+960720286+959468476+957983307+956117264
922+953670616+950840448+948199071+946303453+945449158+945642594+946651991
912+948128281+949686003+950902477+951494663+951567392+951450919+951323569
902+951298639+951811158+953549733+956920348+961697639+967228686+972929768
892+978533485+983931419+989033965+993826014+998272935+1002163887+1005314020
882+1007814582+1009832671+1011375223+1012474341+1013336280+1014112848
874+1014737724+1015151525+1015549334+1016228419+1017200422+1018110220
866+1018582581+1018503678+1017957822+1017071543+1015888465+1014230085
857+1011752453+1008271068+1003938681+999019399+993568961+987401339+980329798
847+972342873+963555804+954244341+945082511+937103053+931216296+927822104
837+926798596+927639721+929603013+931816948+933272777+932896664+929862123
827+923947732+915775191+906834549+899103560+894455442+894299164+899315987
817+909096696+922186520+936763040+951236846+964349129+975278521+983944354
807+990949985+996967680+1002209042+1006582469+1010177211+1013264079+1015945026
798+1018189593+1020113021+1021898281+1023615455+1025322281+1027089196
789+1028798727+1030213812+1031317046+1032318212+1033284806+1034015631
781+1034359230+1034434723+1034398623+1034191664+1033659331+1032770935
772+1031595030+1030123502+1028095889+1024967511+1020144065+1013332517
764+1004782628+995462521+986935445+980666753+977301666+976571076+977622511
754+979351092+980793457+981501881+981515463+981034106+980237372+979331572
744+978618444+978420422+978876085+979914821+981580314+984236331+988226236
734+993448784+999398158+1005392335+1010656157+1014558163+1017035560+1018596692
724+1019762249+1020647941+1021090551+1020960849+1020329976+1019440756
715+1018554477+1017830472+1017243225+1016389871+1014452802+1010662977
707+1004829547+997350437+988971525+980638238+973380492+968308049+966537606
697+968618135+973871491+980542695+986722959+991214446+993784034+994716527
687+994108114+991859078+988331362+984443290+980878945+977546195+974036882
677+970331017+966865037+964322553+963524114+965042501+968586268+972109574
667+972844338+971786670+971545375+972482453+973647658+974248663+974266772
657+974129661+974253602+974833029+975667216+976204546+975969600+975024937
647+974000841+973602915+974056050+975102605+976487998+978139204+979828215
637+981163221+982029098+982548848+982671143+982359175+981995350+982080074
628+982754397+983829586+984872261+985277654+984803764+984036662+983880326
618+984410483+984459577+982746459+979270013+975035873+970761340+966589405
608+962707683+959366878+956549526+954365341+953511164+954722522+957741600
598+961175949+963665164+965032153+965986107+967068292+968524533+970839185
588+974420698+978877790+983134508+986177457+987666740+988201425+989033848
578+991050525+993834010+995882672+996103625+995071768+994375162+994869160
568+996000028+996852559+997257541+997654879+998459198+999652036+1000690713
558+1000979633+1000509506+999654035+998415925+996596329+994696066+993739703
548+993941606+994421022+994694303+995585874+998082438+1001915066+1005624929
538+1007743440+1007950869+1007324700+1007408307+1008813866+1010730357
530+1011931779+1012242806+1012802301+1014620133+1017040969+1018475691
521+1018327880+1017442776+1017075423+1017603875+1018331995+1018556123
513+1018249682+1017710412+1017156678+1016726650+1016307087+1015210438
504+1012719165+1009337144+1006782608+1005905030+1005561901+1004373178
496+1002199752+999426027+996090808+992447971+989237515+986694502+984407425
486+982447309+981748586+983085884+985943628+988619576+989641320+989272909
476+989197063+990529246+992928446+995554242+998140410+1000960584+1004124239
466+1007090812+1009105138+1010148989+1010756932+1011099473+1011427786
458+1013006203+1016604944+1021096549+1025490789+1029720284+1032994004
449+1033906742+1032508943+1030391961+1028533914+1026661285+1024934115
441+1024376971+1025377431+1027143758+1028351531+1027888342+1025551583
432+1022310671+1019926288+1019719328+1021175099+1022555964+1023335825
424+1024959279+1027966539+1029503800+1026091794+1021183683+1021459315
415+1025544527+1028932663+1030536480+1032511648+1035886613+1038950905
407+1040273328+1039838243+1037407529+1033055974+1028653856+1026649055
398+1027353658+1028842824+1030968037+1035375918+1041643492+1045882630
390+1043611370+1035133564+1026703500+1024952577+1029860217+1035991387
381+1040850579+1045632045+1051788379+1060330977+1069650496+1073741823
##END=
