##TITLE=X9621
##JCAMP-DX=4.24
##DATA TYPE=INFRARED SPECTRUM
##DATE=19/11/2018
##SAMPLING PROCEDURE=Instrument type and / or accessory
##ORIGIN=Default
##XUNITS=1/CM
##YUNITS=TRANSMITTANCE
##RESOLUTION=4
##FIRSTX=3996.5625
##LASTX=399.65625
##DELTAX=-2.0390625
##MAXY=1.1532838
##MINY=0.79472816
##XFACTOR=1
##YFACTOR=1.0740793e-009
##NPOINTS=1765
##FIRSTY=0.93092382
##XYDATA=(X++(Y..Y))
3997+866717983+867052666+867239791+867676804+867801609+867390511+867174918
3982+867508991+867958212+868023251+867606049+867261711+867426471+867340179
3968+866432968+865821871+866453611+867411599+867705216+867976414+868544392
3954+868720474+868675246+868851772+868921749+868722083+868587289+868413760
3939+868239510+868451662+868639730+868492561+868332850+868174027+868220642
3925+868507211+868436290+868626689+869798495+870951987+870793441+869449106
3911+867980077+867698724+869545721+872728230+875283826+875766677+873574176
3897+870438781+869688784+871603927+872659750+872063581+872613247+873721844
3882+874598978+874851031+872873290+871840996+873586995+876274833+878261619
3868+877612620+876423389+876079994+874094596+871907422+872838773+877970166
3854+885230130+884249057+876283157+871357701+871030344+873904974+877837647
3840+880938913+881045738+878175048+875681549+874138047+872946930+872619850
3825+873204144+875499308+878928375+879456176+878410508+876659737+873248705
3811+871582506+873394820+876329106+877029991+877636759+878058290+876271004
3797+874599866+872326011+869752879+869081849+869633956+870200103+870613808
3782+871183063+872471849+872453758+870364530+869584344+871537557+874526170
3768+875821560+875548032+874572064+873799813+874534994+875079276+875313626
3754+878552517+884660820+887372909+885275524+884354107+883283910+879752124
3740+878463227+881293351+884971863+884539511+879751847+874653917+872525345
3725+872930560+873844264+874012964+872948207+871814692+872653313+876584210
3711+880547959+879214557+875620229+874435216+875233438+874599866+872260806
3697+870997103+871790108+875301528+880682088+882476976+877641532+872224791
3683+870339558+872329785+877072499+882691681+884432797+882869761+882703169
3668+879928927+874189379+870696938+870055375+870626960+872425511+874395261
3654+875172173+878347800+884795615+886138229+879614666+873787549+871789720
3640+871681951+871526236+871377790+871787611+874334995+879027876+879002904
3625+874192875+872533558+875029887+877955404+877675827+876805186+877209735
3611+877126384+876800858+875849307+873264576+871411863+871771296+872989938
3597+873770790+873650480+872542603+872473347+875072839+877029270+874931885
3583+871913415+870567193+870500712+870713364+871044772+871505537+872541049
3568+874609466+875791704+874681886+873464576+872652203+871597545+871322130
3554+872097433+872113803+871298656+871342496+871687001+871308978+870677515
3540+870084343+869610981+869671026+870388781+871303207+872324346+873073123
3526+872773179+871633006+870552099+870263809+870499658+870408149+870244054
3511+870660534+871028513+871167025+872058753+873369959+873382722+872004314
3497+871005372+871036837+871152264+871121076+871367302+871484560+871403373
3483+871494660+871325182+870822132+870741999+871014140+870742276+870071413
3468+869817085+870160702+870923075+871405648+871047825+870609702+870572576
3454+870368970+869954043+869937562+870577349+871264916+871484671+871488944
3440+871557645+871589110+871147602+870516472+870422854+870656372+870733453
3426+870861088+871340498+871699820+871678067+871868022+872265856+872171350
3411+871597545+871405315+871836557+872112582+871666024+870976016+870745939
3397+870854540+871120577+871666468+872067355+871787112+871150543+870741999
3383+870801765+871295604+871778510+871698044+871087614+870725684+871132230
3369+871752872+871820131+871572407+871584504+871649432+871459366+871340498
3354+871521019+871697156+871710475+871618910+871475681+871386003+871384671
3340+871200821+871114140+871705924+872446821+872855366+872999705+873042213
3326+873055365+872662081+871920019+871366081+871384671+871992383+872464302
3311+872279452+871910086+871667634+871606868+871730730+871790053+871949375
3297+872062194+871677845+871441330+871759753+871991218+871929842+871699931
3283+871417524+871383173+871916190+872715244+872907419+872541882+872156034
3269+871889442+872099319+872656976+872567575+871801041+871503872+872008421
3254+872241605+871896712+872026179+872584390+873112246+873785718+874233552
3240+873862188+872859361+872178287+872112582+872213692+872288886+872417687
3226+872556976+872507309+872457032+872407087+872325845+872530505+872939605
3212+873347817+873518904+873237384+872792547+872760360+873197484+873728060
3197+874131499+874212076+874010134+873874952+874220455+874767956+874618401
3183+874166294+874519289+875225058+875418287+875134659+874574727+874157581
3169+873852144+873339992+873039882+872991825+872992047+873436218+873920900
3154+873713187+873193766+872728008+872999150+874049313+874238102+873600480
3140+873303644+873143933+873200981+873902088+874282664+873921733+874075506
3126+875017678+875757853+875662959+875010630+874508634+874123120+873510802
3112+873207806+873425009+873574287+873810523+874416348+874789044+874556636
3097+874203752+874132498+874204973+873896261+873152923+872766909+872692547
3083+872409918+872044769+871445992+870676683+870317749+870217028+869701825
3069+868651551+867817203+867639678+867201333+865999451+864627646+863490081
3055+862788418+862790527+863542078+864434417+865008000+865492516+865641017
3040+865060386+864545293+864655837+864670210+864439522+864603340+865203171
3026+865704557+865917264+866173590+866635464+867005441+867220701+867597614
3012+868083794+868362539+868340453+868336679+868572639+868834069+868792616
2997+868502383+868379076+868357711+868217201+867922197+867264374+866020538
2983+864831086+864789521+865474591+865907720+865863380+864994460+863847626
2969+864000623+865324814+866265931+866543345+866602168+866272813+866015211
2955+866115765+865738464+865278532+865546733+865994678+866237630+866624587
2940+867161100+867577192+868024250+868462816+868570474+868319032+867848612
2926+867319923+866609659+865702448+865362050+866005999+866900225+867105607
2912+866796840+867056051+867861820+868474359+868805268+869151216+869734455
2898+870211257+870380624+870478293+870717859+871295659+872005979+872358087
2883+872042827+871347491+870881454+870797825+871028235+871488722+871930008
2869+872248764+872385001+872074902+871543328+871362363+871470409+871673405
2855+871916579+872017910+872024680+872006256+872087000+872429063+872687775
2840+872727342+872918074+873053090+873002480+873277451+873653920+873605252
2826+873445930+873480225+873682333+874034163+874276060+874504028+874964460
2812+875113849+874760076+874664683+874961574+874947812+874774949+875000420
2798+875172173+874950364+874773617+874665959+874597979+874978056+875512460
2783+875784268+875902137+875978774+876127996+876092425+875832659+875910405
2769+876275332+876302524+875991648+875874945+875985877+875889207+875822059
2755+876376553+877087094+877295917+877081045+876678771+876396419+876402080
2741+876556852+876627773+876438817+876263900+876581324+877012788+876966673
2726+876734099+876726330+876889037+876976051+876828604+876407352+876194866
2712+876480381+876692867+876823499+876983265+877035041+877317338+877696748
2698+877815893+877780766+877614784+877406627+877491199+877713563+877844417
2683+878095748+878200131+877799300+877309735+877305517+877709234+878172440
2669+878470219+878317279+878062951+878199299+878479376+878843026+879370660
2655+879587752+879259617+878950351+879036311+879342525+879719938+880131035
2641+880373043+880102678+879598739+879324767+879194135+879307065+879812723
2626+880489414+880778425+880132312+879293136+879447131+880144631+880273543
2612+879758339+879447852+880019992+880817215+881042797+880873707+880191190
2598+879292525+879496409+880610612+880783031+879990747+879845132+880463997
2583+881233529+881727700+881306281+880433975+880016441+879929205+880098238
2569+880323154+880402233+880856005+881187413+880715606+879825154+879279151
2555+879906230+881201342+881716158+881352230+881207558+881370876+881272097
2541+880979645+880904673+881371708+881679643+881493628+881412052+881022764
2526+880683808+881440298+882004558+881231420+880360502+880331367+880808835
2512+881488356+881982416+882128920+882507664+882972424+882829639+882181972
2498+881689243+881817045+882482914+883162379+882950837+881760331+881280088
2484+882505056+883343622+882431693+881693516+881813216+881854781+881984081
2469+882198953+882367598+882888351+883407550+883514598+883590291+883535186
2455+883174588+883292179+883987959+884248003+883951278+883767483+883917316
2441+884105772+884105051+884345783+885026746+885124637+883966261+882845677
2426+882714878+882994011+883663765+884586736+885094504+885002051+884395005
2412+884086960+884539678+884842007+884560599+884109046+883859935+884195395
2398+884868977+885323970+885474747+885393504+885223527+884819088+883840346
2384+882360883+880909390+879986141+879683090+879670659+879610282+879619827
2369+879370272+878892194+879264612+879702901+878927044+878162618+878195415
2355+878068278+878077324+879256399+880669380+880963552+880177983+879540915
2341+879794355+880630534+881307335+880985916+880164220+879910836+879723767
2327+879272270+879091305+879147409+879255122+879554955+880052012+880671821
2312+881444904+882338797+883153833+883669259+883768148+883392179+883425974
2298+884848833+886513311+886457818+885317255+885453548+886822966+887691887
2284+887801875+887658147+886877794+885721305+885278798+885495335+886645608
2269+888677566+889385832+888252651+887650378+888520352+889464578+889040939
2255+887588613+886878959+886985951+886298162+884864649+884332242+885194836
2241+886675409+887888224+888601762+889555144+890876837+891178834+890245319
2227+890110025+890885772+890758913+889273180+887307038+886477407+887178570
2212+888048933+888006203+887493663+887985060+889342880+890831000+892727719
2198+893819225+893243755+891578500+890253865+891642040+893375442+891077447
2184+887137671+885869418+886596441+887009703+887211145+888309199+890575839
2170+892708518+892283215+891275837+892876442+893046808+890806638+890610079
2155+890567349+888817022+887626515+888291663+889052815+889226621+889501925
2141+889039552+889204146+890280557+890615850+891922117+893283156+892401083
2127+891173118+890770123+890569236+890970899+892185768+893377717+894079546
2112+894217892+893174776+891215349+890212023+890804696+891825225+892289874
2098+892299863+892761071+893716950+894502963+894491032+893852244+893906850
2084+894994304+895881205+895701294+895236701+895374547+895641638+895003017
2070+893236874+890742099+888802926+889381337+891927999+893836539+893850190
2055+893574220+895266834+897590689+897216883+895706233+896367496+896152791
2041+894085650+894139091+895722715+896218884+895875378+894675382+893969779
2027+895805844+897155340+895044304+892430328+892290484+893783820+894988033
2013+894933206+894584872+894685315+895007567+894924882+894268280+894230156
1998+895707121+898868209+901936013+902634456+901112208+899274257+898226702
1984+897130091+896621768+898534748+900988069+901619865+902576687+903793665
1970+902790449+900999834+899809272+898996067+898859885+897706226+895722548
1955+896195577+898790962+900377250+899258108+897031312+896733866+897949566
1941+897822319+895978541+894375882+894174163+894911230+895738419+896133313
1927+896499405+897635749+898868098+899467375+899655610+898961217+898285248
1913+899046400+899868539+899155167+897613385+896863887+897420545+898258278
1898+899013492+899838017+899831913+899386410+899524256+899020595+898109943
1884+898399010+898967654+899116599+899483524+900173366+901236015+903031458
1870+905297322+905638165+903187784+901339455+901404327+901627912+901498722
1856+901840119+902189952+901890730+901702717+902957707+905320352+905220186
1841+902874578+902175190+902697164+902821914+903740113+906542102+908026669
1827+906977561+906028119+904405871+901914037+900388626+900016319+900285852
1813+901473639+902859150+903111536+902626354+902920027+904538612+905951759
1798+905549597+904827790+906365743+908582716+906953421+903901600+903069749
1784+903642389+904646492+905138999+904510033+905026846+908071453+909929549
1770+906484721+901415759+898118878+897119269+896672268+894847412+892699972
1756+890531389+889552535+891352807+893123833+891348090+888407423+887198326
1741+887507537+887148159+887207649+891216459+895032151+892989372+889791325
1727+887714861+886992888+887321577+890086107+897240357+903985229+903300991
1713+900452610+900475696+904242109+910144087+914231144+917445672+922627009
1699+924642374+922244103+917236239+912625822+911653405+913678926+919574800
1684+926753133+924148758+917996614+916632190+919326021+921772073+923572789
1670+925927664+924278447+921190055+921683949+922310085+920587449+921140555
1656+927583541+937986115+938040942+934323641+935548054+932675034+925757354
1641+923155032+925848530+932309219+935614535+929954232+925348088+925711183
1627+927343475+927763563+925317289+918978853+914064163+911068779+905952425
1613+902663147+903349770+903001936+896036698+881520764+861332041+839033947
1599+818897055+804318302+798368211+802564367+814677812+829940858+844037981
1584+855483059+864934027+873659747+883631578+893911899+898378033+900849390
1570+905423404+907083443+906305032+907176894+910819890+913869658+895665390
1556+869011261+856311858+856827450+865399841+875038266+884984626+897860554
1542+911973993+917497226+911759620+909182270+910427882+910060847+910798858
1527+914844294+919718084+924686325+926996584+923706473+916791790+904270744
1513+886681846+868120975+855550318+854009979+857320956+861939697+871174794
1499+882567709+889370627+890547038+893068229+899232082+903512811+902738230
1484+901492118+902271583+903993442+906563855+911179323+916382135+916719593
1470+910554408+905085614+902735011+899992567+897633419+900890622+907362021
1456+903898603+892501305+882455445+873991377+866640348+861573772+860471500
1442+862067000+864864493+869706098+875338987+879516498+882976808+883975085
1427+883283300+885220308+889352037+893967615+898201619+897604784+893517450
1413+889711969+885615923+881088524+878179876+878021830+880170880+885003161
1399+891641374+896938138+899355611+899197453+899118930+900486739+900653941
1385+898259887+895967553+895098521+895069387+895725767+895935200+893993642
1370+891601530+890609968+891641097+895473270+900040680+902404102+903390836
1356+903916139+903978736+903978625+903285731+899437297+891395038+883957549
1342+883153445+886802600+887238670+882259829+876885430+877626382+884749610
1327+892278664+896527540+897587858+896318939+893564842+890337328+889134723
1313+891509965+894174163+892570616+886045055+879014946+877766115+883539292
1299+892053027+899179307+903909757+907136883+909510793+911154850+911868332
1285+911775547+911677712+912108509+913160837+914115217+913389804+909773500
1270+903528738+897174819+894799299+898224871+904403318+909241760+911730930
1256+912906731+913446629+913624265+913893853+914205506+914212886+914088025
1242+913779092+912116001+906552035+894432708+878164505+865755112+863293966
1228+870588448+882306111+892533547+898116158+898451951+896208174+893598415
1213+888503704+881318490+877664340+879443357+881662717+878465225+870978235
1199+868027302+874193319+884864205+895044748+903100604+908861128+912925543
1185+915965655+918413927+920245164+921221187+922020352+923472234+924952029
1170+925543426+925493592+925338987+924685326+922903867+920640834+919119918
1156+919157098+921163196+924267403+927106850+929154402+930297295+930755340
1142+930239970+928489309+927032489+926567063+924779610+921382008+920464253
1128+923768792+928348189+931612662+933448172+934462153+934897224+935269032
1113+935971471+936348273+935979462+935292006+933723643+929288197+921761307
1099+915602782+915315657+919220750+923184999+926352080+929494911+931865380
1085+932077588+930864052+930701677+932319541+934530188+936445387+937658258
1071+938274127+938333061+937620633+936459927+934993006+933764153+934254940
1056+936381459+938521962+940116740+941524616+942778552+943473111+943250248
1042+942429052+941262352+939243047+935968696+931864714+928891250+929260228
1028+931762495+932389019+930441134+929215833+929866941+931209667+933167818
1013+935904879+938880007+941590986+943805185+945346911+946004845+946124267
999+946547351+947246128+947639801+947932585+948465325+949017377+949334024
985+949204501+948662550+948139355+948089855+948974757+950648115+952093837
971+952904045+953912810+955472072+956561969+956126676+954036561+950942897
956+948172984+947035585+947562331+948074094+947068659+945562449+945554680
942+946050461+943060460+937979677+938801872+946529039+953730235+957181833
928+958962294+959890925+960076274+960218227+960010348+958916234+956699371
914+952057877+946249239+945307400+950262100+955062861+956955086+957208470
899+957539546+958854636+959586265+959623446+961162730+964111222+966544288
885+967319979+963753953+953084289+940993985+932971814+926424777+925169787
871+932720649+938476235+932126756+914715271+902175357+907125008+908807188
856+881742684+842738263+834496448+866618816+906694543+931734859+944465782
842+952008821+957229114+960885595+963056398+964930864+967971476+970448604
828+971335393+972094325+973321069+974702086+975631716+976058130+976638705
814+977515062+978786201+980568770+981494960+981382752+982812825+985950661
799+987893718+987718691+987204042+986955763+985886954+982769429+976722057
785+972293215+973818626+975907409+975749474+978442140+984405383+989172737
771+989317908+980340025+956279062+916864820+876066898+855354591+860756904
756+876940868+886604210+879681481+846750514+789048652+739915741+741205915
742+789486775+846177763+887935948+912952347+924984493+929663612+933042069
728+938190886+945233593+952897719+959298474+963503233+963319105+955877398
714+947817713+947294630+941757911+907562686+858921783+847577814+882270040
699+922191717+944061566+949990736+945428376+939942934+945070220+958280276
685+968882571+974408968+977312066+978911173+979174546+979337586+980560446
671+981755004+983941012+988989719+992093371+993209793+994737424+996336531
657+997041079+996770270+995893913+995927986+997899678+1000212545+1000887903
642+1000067151+999835632+1002105102+1006093102+1008844814+1009141927+1008540375
628+1008176114+1008170343+1008934380+1010542588+1011511619+1010850467
616+1010512289+1012223382+1014592852+1015376090+1013941689+1012448353
604+1013358561+1015834468+1017372532+1017642343+1017980410+1016769759
591+1010231823+1001266037+998737189+1000394453+991906579+974775337+968721862
577+977268337+988802705+998926534+1006438384+1011798300+1016324700+1018556324
563+1018789952+1017230912+1011997966+1002430517+993862843+995426323+1005784668
549+1014445683+1018403827+1017691066+1011164229+1005154593+1004823961
536+1008297091+1012916276+1015993624+1014753673+1008684326+1002291006
524+1002926409+1010149138+1015359442+1016620370+1021040555+1028067502
512+1032521538+1034241843+1033900890+1031424317+1025915345+1013787860+996982367
498+990317905+1001397447+1018775857+1030822432+1036780903+1040928392+1043694864
483+1041210855+1036989781+1036516309+1038898654+1044917502+1052918474
471+1053979514+1047934029+1044634151+1046393634+1048451674+1052429574
459+1059875831+1062261728+1057492376+1057715239+1064610111+1065604336
447+1059059519+1055320353+1057079836+1060438538+1063284699+1061682707
434+1055773625+1053056653+1050775973+1038046381+1018467645+1001208768+986284289
420+984801608+1007649923+1028899464+1038894547+1047942797+1057002256+1059938317
406+1061048192+1066455166+1071096993+1073741823
##END=
