##TITLE=X7671
##JCAMP-DX=4.24
##DATA TYPE=INFRARED SPECTRUM
##DATE=29/10/2018
##SAMPLING PROCEDURE=Diamant-ATR
##ORIGIN=ComPlat
##XUNITS=1/CM
##YUNITS=TRANSMITTANCE
##RESOLUTION=4
##FIRSTX=3997.453
##LASTX=373.96442
##DELTAX=-1.4165319
##MAXY=0.91860181
##MINY=0.55359727
##XFACTOR=1
##YFACTOR=8.555146e-010
##NPOINTS=2559
##FIRSTY=0.87322611
##XYDATA=(X++(Y..Y))
3997+1020702746+1021411232+1021714580+1021349155+1020668398+1020162029
3989+1020056407+1020338436+1020936702+1021679674+1022249096+1022462569
3980+1022443688+1022264703+1021758263+1021008533+1020583121+1020807044
3972+1021206120+1021154912+1020676968+1020226614+1020043588+1020046096
3963+1020126079+1020311264+1020704209+1021299201+1021792542+1021680301
3955+1020775413+1019591701+1018897916+1018923207+1019310578+1019717179
3946+1020039965+1020293011+1020737233+1021666367+1022667959+1022962041
3938+1022576829+1022142639+1021787386+1021156723+1020374944+1020084555
3929+1020443152+1020949382+1021146830+1020913919+1020410128+1019901738
3921+1019511579+1019194576+1018869142+1018555971+1018428612+1018666190
3912+1019382200+1020641505+1022165700+1023117268+1022668238+1020878039
3904+1018879872+1017839543+1017788056+1018158218+1018729382+1019528300
3895+1020411173+1020978086+1020874486+1020423574+1020507110+1021125232
3887+1021192952+1019976077+1018298466+1017387726+1017285588+1017799064
3878+1019072303+1020624436+1021358142+1020601514+1018804139+1017102353
3870+1016615352+1017876817+1019997535+1021424887+1021338216+1020222434
3861+1019264247+1019038025+1019479252+1020383026+1021253845+1020946665
3853+1018930035+1017509720+1018124428+1019764695+1021448366+1022618214
3844+1022860600+1022098258+1020805720+1019546415+1018676571+1018678034
3836+1019758076+1021196296+1021975080+1021760354+1021205493+1021130736
3827+1021573844+1022021133+1022126197+1021651109+1020201881+1018248024
3819+1017310809+1017736081+1018725968+1019720941+1020558736+1021058975
3810+1021053610+1020541667+1019852550+1019706519+1020232257+1020275523
3802+1018754742+1016795103+1016856971+1019029386+1021491702+1022818797
3793+1023049826+1023041953+1023268036+1023580232+1023605314+1023114481
3785+1022261149+1021506542+1020962410+1020148025+1018898822+1018013233
3776+1018221758+1019326185+1020779245+1022058546+1022576899+1022028936
3768+1020891067+1019998929+1019923545+1020710549+1021681416+1021837898
3759+1020773462+1019334685+1018781008+1019211367+1019556099+1018391616
3751+1015382313+1012898050+1013018024+1014657872+1015683222+1014906738
3742+1013597409+1013319212+1013718915+1013826836+1013169628+1012067222
3734+1011366749+1011885102+1013837217+1016504575+1018670231+1019454867
3725+1018888859+1017759560+1016811128+1016391220+1016567975+1017126320
3717+1017787011+1018415444+1018778291+1018382211+1017181081+1016342102
3708+1016777616+1017927816+1018813684+1018837581+1017985573+1016989764
3700+1016843316+1017701664+1018906625+1019918319+1020817913+1021930351
3691+1023059720+1023400063+1022607554+1021494349+1020654534+1019916578
3683+1019125950+1018502812+1018503439+1019205723+1019849345+1019747695
3674+1019781555+1020584375+1020698914+1019156466+1017972405+1019475977
3666+1022392340+1024308713+1024292480+1023003425+1021555799+1020398841
3657+1019547042+1019349733+1019971339+1020491712+1019724773+1017389049
3649+1014696888+1013390973+1013782385+1015340162+1017395320+1019034890
3640+1019682901+1019711814+1019778629+1019812071+1019336496+1018399071
3632+1017334497+1015858584+1013671469+1012225306+1012939992+1014853509
3623+1016714703+1018053851+1018662010+1018506713+1018263282+1018568093
3615+1018965497+1018851655+1018564261+1018753767+1019431318+1020370136
3606+1021370892+1021869249+1021371240+1020064629+1018598818+1017524560
3598+1017019096+1016872020+1016651232+1016311725+1016353737+1016831193
3589+1016934376+1016050667+1015122370+1015595715+1017091484+1018282651
3581+1018675248+1018849077+1019350082+1019794792+1019700806+1019563763
3572+1020051252+1020688742+1020371251+1018862175+1017316173+1016813078
3564+1016966494+1017162549+1017480318+1018208312+1019324443+1020405947
3555+1020821048+1020132279+1018654137+1017440606+1017197314+1017624120
3547+1018037060+1018079629+1017929767+1018164976+1019231502+1020773114
3538+1021732833+1021461395+1020463287+1019635106+1019236170+1019003956
3530+1018689739+1018233811+1017788474+1017654845+1018076076+1019044435
3521+1020125591+1020590158+1020139455+1019413064+1019279993+1019650016
3513+1019590447+1018650096+1017547133+1017352681+1018240151+1019392233
3504+1019984298+1019914487+1019665553+1019559792+1019420380+1019020747
3496+1018546913+1018433628+1018798147+1019254563+1019402265+1019322144
3488+1019407421+1019733343+1019849833+1019353356+1018475291+1017828604
3479+1017607608+1017507002+1017457606+1017841702+1018792225+1019779883
3471+1020187737+1019897697+1019159880+1018277147+1017532223+1017110365
3462+1016944757+1016808968+1016656806+1016742571+1017258764+1017943144
3454+1018309962+1018271782+1018191660+1018253250+1018163513+1017650734
3445+1016956252+1016551463+1016622876+1017041321+1017558489+1017908796
3437+1017920500+1017668918+1017399639+1017263920+1017252842+1017360066
3428+1017659443+1018146514+1018526360+1018326335+1017463946+1016583303
3420+1016426891+1016986908+1017675676+1018070363+1018146514+1018061515
3411+1017957147+1017879952+1017880509+1018104641+1018579659+1019044156
3403+1019237563+1019166986+1018929477+1018547540+1018066392+1017567547
3394+1017078734+1016619532+1016289082+1016251460+1016610544+1017163803
3386+1017374000+1016922392+1016283369+1016323709+1017244830+1018280909
3377+1018590040+1018158636+1017616316+1017470843+1017714065+1017916390
3369+1017634919+1016943572+1016370806+1016167227+1016182137+1016592778
3360+1017804080+1019354401+1019996839+1019297201+1018223082+1017755101
3352+1017832158+1018001528+1018218902+1018598609+1019047082+1019452220
3343+1019753826+1019769711+1019364364+1018650514+1017734548+1016666072
3335+1015848412+1015930206+1017010805+1018367928+1019172978+1019257489
3326+1019088118+1019151868+1019499875+1019782879+1019560558+1018699563
3318+1017631783+1017029128+1017155790+1017782273+1018537368+1018976018
3309+1018717329+1017997905+1017657910+1018192636+1019202309+1019905918
3301+1019905082+1019382758+1018717468+1018042216+1017367242+1017010944
3292+1017413156+1018465328+1019477023+1019910655+1019814649+1019472076
3284+1018998800+1018529635+1018473689+1019077459+1019855755+1020045678
3275+1019626188+1019315595+1019535268+1019957683+1020126845+1019945073
3267+1019468871+1018811873+1018428194+1018883146+1020030768+1020950427
3258+1020978504+1020338993+1019561952+1018759968+1017755937+1016681330
3250+1016145560+1016658269+1017974914+1019231362+1019766924+1019705265
3241+1019645557+1019832276+1019843562+1019297968+1018553671+1018223988
3233+1018360613+1018611289+1018753140+1018728128+1018650863+1018890810
3224+1019595185+1020278240+1020437160+1020271343+1020254064+1020349583
3216+1020210311+1019886480+1019824890+1020234417+1020833449+1021213575
3207+1021202636+1020916985+1020623809+1020465098+1020290502+1019981511
3199+1019820989+1020220274+1021165362+1022202138+1022863665+1022984266
3190+1022684123+1022106758+1021318569+1020596986+1020450676+1020993484
3182+1021663998+1021883393+1021650552+1021284779+1020944784+1020639206
3173+1020435418+1020406087+1020519651+1020761758+1021186891+1021720223
3165+1022185138+1022588673+1022982733+1023114411+1022749474+1022136578
3156+1021621847+1021214620+1020937538+1020980386+1021247365+1021420707
3148+1021452965+1021412904+1021194833+1020840138+1020583818+1020385464
3139+1020129353+1020175754+1020861527+1021695699+1021846606+1021175047
3131+1020221389+1019510047+1019272956+1019483711+1019871640+1020111169
3122+1020121620+1020087620+1020183627+1020329030+1020248700+1019786641
3114+1019082336+1018355875+1017628091+1016827988+1016158379+1016083761
3105+1016723412+1017478507+1017656168+1017300010+1016926224+1016738809
3097+1016706900+1017026133+1017744163+1018225103+1017677557+1016094978
3088+1014317181+1013259573+1013160780+1013450751+1013381568+1012847399
3080+1012417111+1012518203+1012909128+1013134444+1013166423+1013266053
3071+1013422534+1013294409+1012620411+1011425621+1009986843+1008746907
3063+1007989930+1007506273+1006893307+1006118843+1005368694+1004530969
3054+1003424870+1002379456+1001947077+1002063776+1002015494+1001293074
3046+1000039691+998510759+996567144+994019550+991114753+988269664+985483377
3036+982336821+978533685+974348960+970679662+968586254+968536439+970111633
3026+972484770+974965201+977126050+978802616+980060318+980894072+981023521
3016+980320261+979289826+978766178+979242101+980667014+982604568+984450434
3006+985805397+986759682+987657743+988677101+989753589+990709128+991394483
2996+991906774+992552486+993424141+994239711+994699471+994691807+994174011
2986+993152633+991663831+989611251+986840849+983417629+979543219+975322056
2976+970878155+966459544+962141608+957677989+952840794+947673985+942305688
2966+936731094+930922266+925014365+919219332+913605583+908117173+902800362
2956+897924081+893964185+891467730+890682258+891244086+892438109+893755172
2946+894990301+895905710+896119879+895330296+893444508+890483556+886501086
2936+881605228+875861752+869041717+860694910+850794856+840198021+830193738
2927+821666762+814817465+809569838+806056812+804631341+805450465+808213899
2917+812384760+817526069+823376700+829789855+836651622+843708678+850521466
2907+856769780+862530256+868072453+873442562+878405304+882786990+886740616
2897+890601509+894562242+898555162+902387212+905917935+909178333+912361606
2887+915648270+919009831+922191362+924878089+926881063+928163848+928655586
2877+928156323+926586912+924257389+921722127+919439214+917606028+916100923
2867+914453411+912043766+908491167+903849609+898435189+892537112+886333109
2857+880088070+874401306+870206548+868434743+869565296+873431833+879425847
2847+886847561+895106303+903744127+912367110+920579660+928123020+935079122
2837+941689726+947940756+953601115+958610746+963082934+966983192+970164235
2827+972705558+974935730+977081600+979086595+980809910+982214200+983277451
2817+983962806+984425840+985013167+985912969+987025338+988206960+989409762
2808+990612843+991810698+992977967+993937757+994435975+994437716+994221527
2798+994150462+994425385+995015708+995721615+996307828+996676179+996946433
2788+997276605+997645583+997976242+998398100+999085754+999881747+1000385956
2778+1000428595+1000234004+1000087903+999995101+999805666+999607033+999715929
2768+1000247311+1001041422+1002013125+1003113928+1004006694+1004309763
2759+1004139348+1003968862+1004054767+1004304259+1004525744+1004592697
2751+1004515432+1004447364+1004500244+1004596390+1004623771+1004586915
2742+1004423745+1003871532+1002817478+1001649720+1000933153+1000805028
2734+1000946809+1001039123+1000964366+1000687493+1000300540+1000128591
2725+1000469701+1001207797+1001929729+1002418193+1002806470+1003259402
2717+1003736161+1004076086+1004169376+1004058320+1003969002+1004185958
2708+1004812788+1005659989+1006364921+1006631135+1006428461+1005973230
2700+1005500512+1005113001+1004866296+1004856890+1005114255+1005500303
2691+1005847962+1006142601+1006416060+1006540423+1006390003+1006182244
2683+1006309672+1006792493+1007229609+1007321505+1007116603+1006745465
2674+1006264107+1005825179+1005694616+1005961317+1006401011+1006730207
2666+1006896024+1007047280+1007296285+1007557900+1007618792+1007393894
2657+1007093681+1007060866+1007455065+1008130317+1008711444+1008821942
2649+1008470591+1008180690+1008451710+1009182490+1009877808+1010230204
2640+1010230971+1009947549+1009491551+1009033464+1008673055+1008444604
2632+1008478046+1008895097+1009523391+1010011785+1010275978+1010482414
2623+1010577236+1010307330+1009796850+1009536907+1009636955+1009657369
2615+1009365656+1009058406+1008937527+1008812676+1008650064+1008764115
2606+1009189945+1009497404+1009497055+1009488416+1009536977+1009203810
2598+1008376535+1007744897+1007963316+1008777423+1009451490+1009749752
2589+1010002589+1010394140+1010699857+1010756778+1010788061+1011111822
2581+1011714477+1012272055+1012563908+1012699557+1012808662+1012756966
2572+1012508101+1012443655+1012794798+1013147891+1013167747+1013374461
2564+1014430536+1015974656+1016879614+1016531816+1015321420+1014008677
2555+1013105879+1012823781+1013145661+1013767127+1014163765+1013955239
2547+1013229824+1012496745+1012295743+1012776335+1013640256+1014491846
2538+1015106067+1015353538+1015178455+1014789690+1014563189+1014659893
2530+1014933909+1015156578+1015159713+1014924155+1014623385+1014343029
2521+1013891421+1013274901+1013050630+1013620330+1014489268+1014861730
2513+1014702114+1014671528+1015291461+1016531119+1017905452+1018768537
2504+1018786930+1018151112+1017169655+1015977025+1014840898+1014245977
2496+1014367832+1014882283+1015419447+1015767733+1015672493+1015012986
2487+1014247579+1014192748+1015225344+1016886651+1018239524+1018537995
2479+1017757470+1016640573+1016039311+1016081114+1016136572+1015697156
2470+1015046846+1014858177+1015300310+1015864437+1016085364+1016080696
2462+1016151969+1016197255+1015942120+1015560949+1015534544+1015889797
2453+1016100831+1015892514+1015649641+1015740074+1015899272+1015713111
2445+1015288675+1014956204+1014700442+1014354664+1013997181+1013754378
2436+1013558532+1013435284+1013674953+1014416253+1015347895+1016078536
2428+1016541849+1016818373+1016819906+1016411424+1015683501+1014977523
2419+1014705528+1015003371+1015448918+1015450590+1015023019+1014728240
2411+1014859083+1015222766+1015627207+1016055753+1016518091+1017015682
2402+1017422004+1017412807+1016927200+1016471063+1016484161+1016724387
2394+1016752813+1016688088+1017033796+1017944119+1018892343+1018969260
2385+1017571100+1014994732+1012227884+1009967684+1008030409+1005862871
2377+1003329073+1000721980+998229357+995644281+992553949+988785788+984540309
2367+980020188+975550647+972380960+972013376+974010358+976052836+976933270
2357+977784930+979857924+982934530+986220149+989221859+991516059+992533954
2347+991759072+989212593+986035869+983975764+983703211+984422774+985165747
2337+985843995+986918811+988385318+989681897+990548885+991199961+991582037
2327+991354282+990696657+990337363+990775803+992001875+993898601+996306226
2317+998670096+1000248008+1000796877+1000759184+1000764201+1001151642
2309+1002000932+1003379863+1005282999+1007333768+1008920945+1009850985
2300+1010591379+1011634007+1012863006+1013701010+1013663527+1012807060
2292+1011875278+1011794808+1012777658+1014193724+1015398546+1016225472
2283+1016677568+1016790784+1016797054+1016875295+1016852652+1016554808
2275+1016186387+1016017713+1015947972+1015661485+1015144246+1014911545
2266+1015562552+1017055603+1018620347+1019451802+1019303333+1018480795
2258+1017482896+1016619602+1015958702+1015553913+1015318633+1014854484
2249+1014228908+1014580329+1016695892+1019336775+1020424132+1019680950
2241+1018695801+1018528311+1018578683+1017955127+1016906786+1016379585
2232+1016800956+1017877444+1019089582+1019915950+1020105526+1020049022
2224+1020361637+1021121679+1021927355+1022346915+1022095611+1021336684
2215+1020814290+1021107117+1022025452+1023144300+1024506301+1026341507
2207+1028314523+1029425498+1028796159+1026480989+1023276606+1019966462
2198+1017115312+1015154279+1014220338+1014162023+1014650487+1015008945
2190+1014473871+1012997610+1011393294+1010673173+1011504140+1013786635
2181+1016418043+1018285298+1019596718+1021169055+1022493921+1021974662
2173+1019460580+1017045780+1016684744+1018237574+1020220135+1021342257
2164+1021211972+1021007488+1023010532+1027266670+1029698958+1027261653
2156+1023013737+1021873430+1024926696+1029434138+1032063734+1031820303
2147+1030261064+1028950133+1027664561+1025629608+1022988725+1020257339
2139+1017898136+1017112803+1019297759+1023840524+1027948750+1029523456
2130+1028986780+1027946799+1027286317+1026730342+1025634903+1024157318
2122+1023466041+1024176060+1025109861+1024822189+1023818020+1023707591
2113+1024590045+1024881201+1023714767+1022166466+1021723637+1022395824
2105+1022935984+1022665033+1022317304+1022776298+1023703202+1024118372
2096+1023848327+1023544073+1023541565+1023588593+1023536200+1023518643
2088+1023530975+1023468341+1023458378+1023597232+1023641752+1023603224
2079+1024208108+1025799884+1027185294+1026866200+1025293305+1024438859
2071+1025152361+1026370839+1026948133+1026950851+1027031390+1027397791
2062+1027504388+1026486005+1024060615+1021174838+1019602570+1020516655
2054+1022957930+1024000140+1021579905+1017258416+1015047195+1017099845
2045+1021752132+1026120510+1028969640+1030476557+1030561695+1028802778
2037+1026060802+1024672815+1025737807+1027467322+1027952512+1027868140
2028+1028401542+1028769266+1028095895+1027677242+1028977583+1030896046
2020+1031197792+1029701257+1028336260+1028728857+1030798716+1032825518
2011+1032435499+1029032205+1025332461+1024558275+1026415498+1027941992
2003+1027676057+1026786427+1026715571+1027287432+1027161327+1025711471
1994+1024001603+1023591380+1024822398+1026793464+1028477971+1028912231
1986+1027187523+1023613257+1020275732+1019460998+1021919413+1026859094
1977+1032410557+1035835170+1035367329+1032308628+1029376589+1027393262
1969+1025590662+1024277919+1024476342+1025380116+1025233737+1024362987
1960+1024917360+1027697864+1030808609+1031610036+1029142773+1024936659
1952+1021918019+1022125569+1025065481+1028358416+1030088419+1030199405
1943+1029623713+1028982878+1028585892+1028796229+1029622041+1030310391
1935+1029883377+1028059527+1025434250+1022976881+1021528488+1021289377
1926+1021431994+1020682054+1018594429+1015812392+1012827125+1009567075
1918+1006694675+1005741853+1007087898+1009497682+1011950523+1014413257
1909+1016919954+1019011411+1020540691+1022066349+1023816626+1025123308
1901+1025416275+1025022633+1024473486+1023799766+1022914595+1021929933
1892+1020736815+1018915055+1016548886+1014917467+1015601707+1018765681
1884+1022722581+1025262580+1025732791+1025375308+1025578748+1026551705
1875+1027612029+1028188418+1028379666+1028593417+1028753730+1028247360
1867+1027046300+1026033422+1025804413+1026178268+1026592602+1026608069
1858+1026274623+1026016840+1026077802+1026206972+1025957968+1025154799
1850+1024092106+1023378117+1023438452+1024127569+1024943487+1025618600
1841+1026262709+1026943744+1027545145+1027869464+1027760498+1027240961
1833+1026443575+1025524544+1024976790+1025602575+1027439384+1029481166
1824+1030732250+1031067507+1031019225+1031027934+1031316721+1031944806
1816+1032608144+1032811584+1032381574+1031565237+1030730090+1030148266
1807+1029983564+1030201635+1030458791+1030331223+1029745219+1029056451
1799+1028625465+1028473931+1028388723+1028088371+1027376123+1026466776
1790+1025954902+1026026872+1026248914+1026051257+1025184897+1023995751
1782+1023040490+1022552166+1022521580+1022916406+1023580790+1024162056
1773+1024301259+1024035045+1023945239+1024414544+1025141492+1025548580
1765+1025303338+1024447568+1023301548+1022349214+1021757497+1021162297
1756+1020210729+1018971907+1017581063+1015714295+1012874641+1009488904
1748+1006850180+1005312539+1004203515+1003156567+1002451635+1002390185
1740+1002942119+1003948031+1005324592+1007116185+1009321205+1011535074
1731+1013421837+1015094223+1016565885+1017618825+1018169505+1018431608
1723+1018617072+1018623761+1018241824+1017727860+1018039568+1019608631
1714+1021735829+1023981608+1026265566+1028254258+1029500116+1030080128
1706+1030731832+1031854512+1032893447+1033180771+1032847952+1032762117
1697+1033303601+1034311393+1035491065+1036422289+1036812795+1036607614
1689+1035975766+1035052346+1033690972+1032046665+1031048556+1030787290
1680+1030533826+1030004605+1029220874+1028304281+1027613423+1027464605
1672+1027913705+1029330049+1032067287+1035200745+1037590952+1039156461
1663+1040332161+1041375207+1042215162+1042770162+1043043273+1043060133
1655+1043032056+1043568035+1044640134+1045326116+1045548088+1046017880
1646+1047531346+1049553619+1051013298+1051783094+1052202236+1052505932
1638+1052796809+1053363026+1054557049+1056052330+1057304529+1058151590
1629+1058701295+1059168649+1059599843+1059845782+1059894831+1059893925
1621+1059726088+1058819457+1056285241+1051813123+1046724067+1042141868
1612+1037901963+1033599912+1028500824+1020909809+1008756033+990995058+968708109
1602+945421170+925214252+909125313+894124080+876376482+855831310+837545433
1592+827593264+828302307+837675300+851431092+865011453+874968638+880210134
1582+882859308+886846237+894743526+906926842+922371183+937549381+948906746
1572+957136227+964740967+973183572+981631123+988724268+994528289+999246973
1562+1002546945+1004400614+1005872207+1008601782+1011657417+1013782664
1554+1015595785+1017960492+1021324561+1025443377+1029401462+1032417594
1545+1034484178+1036050524+1037523998+1039597897+1043568593+1048676321
1537+1052727207+1055498584+1058165106+1061800266+1065874493+1069282733
1528+1071772709+1073338079+1073741823+1072184744+1066575454+1054746067
1520+1036545606+1010211254+972562245+928702266+890983795+866043003+853493914
1510+851650487+860445906+882002563+909143358+927192075+934824544+934050011
1500+922598381+894692596+845714857+784333920+730048497+692159610+669791982
1490+663098540+673151313+693928420+715883735+734001357+747204239+756130083
1480+762461932+768465630+775880725+785023316+795179551+805553229+814793429
1470+821222399+824686307+825781816+824568215+821042230+816201761+811283886
1460+806538448+801807084+798275247+798780920+803043119+808440539+813674650
1451+817851154+820034368+820255783+819865833+820141104+821398528+823431391
1441+825826823+828419982+832176787+838990899+848968289+860186590+871810098
1431+883832335+895355656+904932019+912229579+917990334+922825160+926728693
1421+929682120+932248107+935179379+938420757+941352657+943641770+945477116
1411+947445186+949847306+952260573+954102747+955234902+955861455+956064685
1401+955619905+954289814+952199611+949803622+947786713+947148387+948349447
1391+950641974+952966551+954681156+955476313+955126842+953418437+950259689
1381+945832509+940569345+935023664+929992226+926809093+927005844+930980302
1371+937577807+945288935+952737333+958870340+963754006+968425662+973686458
1361+979292682+984431622+988658847+992054825+995006720+997913399+1000835544
1351+1003449534+1005351485+1006284939+1006004861+1004057275+999985417+993796603
1341+986133966+978003627+969884924+960854016+949441611+935436674+920751191
1332+909135694+904433940+907634491+915238325+921025277+919395112+906916879
1322+882161691+846992904+809301326+781079095+770186437+775769879+792077097
1312+813781317+837777577+862181622+885150024+904955846+920694200+932375744
1302+940307799+944345658+943428995+935915872+920862037+899362999+874925372
1292+852611739+837009244+829631283+827675685+825645051+818557340+804039625
1282+782587684+756924124+730901271+708293208+692112164+684400409+685909207
1272+695612649+710726471+727722040+743744094+757397748+768674016+778398918
1262+787538024+796684934+805956486+815147637+823844750+831478682+837567449
1252+842121640+845755684+849270382+853107588+857190524+861172645+864743846
1242+867762556+870258175+872414565+874493620+876661158+878887637+881066601
1232+883200836+885433516+887887472+890512121+893178434+895898185+898709484
1222+901325285+903259982+904458464+905523875+907177449+909609528+912331717
1213+914531442+915661299+915871287+915882992+916383788+917558861+919211181
1203+921166918+923351943+925624893+927841340+929995013+932099429+934112018
1193+936073120+938060488+939954009+941393623+941866202+940725338+937004135
1183+928903894+914216390+893237585+871502292+857214908+854639586+861127986
1173+870858252+879845545+887038250+892769744+897703015+902517358+907512218
1163+912365159+916414374+919084170+919934018+918578149+915283124+911922608
1153+911435259+915348894+922156945+928853452+933662012+936603596+938023005
1143+937572233+934618387+929125239+922125175+915598386+911754840+911922190
1133+915736404+921410558+926981529+931416095+934681300+937128707+939047937
1123+940590037+941774237+942483767+942480074+941375439+938533416+932906011
1113+923018776+907832009+888824687+871433457+862898120+867078943+881299999
1103+898760413+913764433+924413592+931468418+936218942+939546155+941925771
1094+943600525+944750168+945563021+946111820+946203437+945272980+942294540
1084+936241794+927492009+918795035+913906353+914738923+920106942+927126933
1074+933322853+937652634+940426170+942565004+944648448+946518142+947788037
1064+948482797+948912041+949151500+949053055+948632729+948017882+947092510
1054+945547066+943193228+939960489+935635376+929728521+921685271+911443480
1044+899900302+888823224+880381037+876522652+878029777+883780708+891264918
1034+897922061+902043246+903364210+903633419+905748634+911212590+918851329
1024+926490626+933030931+938376098+942178468+943143134+939533544+931251044
1014+921904247+917154072+919685223+926931784+934493955+940266833+944591875
1004+948126778+950730387+951657291+950304627+947246275+944543802+944334441
994+946953865+950877254+954363874+956576768+957362449+956852874+955349372
984+952983550+949490241+944681124+939051420+933783310+930222280+929187525
975+930489121+932655265+932658330+926965853+915243899+903055288+898054297
965+902559369+911782221+919624470+924145427+927101642+930379180+934160230
955+937731571+940854508+943888894+946893251+949209118+950154346+949910985
945+949537687+950070671+951674361+953706597+955430678+956523818+957132674
935+957643781+958314365+959145541+960135359+961315517+962392563+962748652
925+961997040+960288496+958168474+956447458+955974879+957077424+959252208
915+961611550+963545202+964934095+965921544+966635533+967113755+967373768
905+967446296+967382756+967208787+966697610+965096638+960941523+951708360
895+934325072+908595256+881438366+864970347+867096848+884641007+907205805
885+926277224+939361596+947674264+952801639+955385740+955149625+951679377
875+945691564+939558278+936169545+937028102+941347571+946957418+952067793
866+956237261+959930526+963507370+966797588+969445369+971256330+972103321
856+971834042+970334441+967194435+960997469+948956212+927145604+891738472
846+842200995+785007431+733207106+699995449+691520517+705033854+732354541
836+764718857+795994215+823391609+846466330+865765712+881756833+894229911
826+902653704+907182744+908897768+908920550+907648774+904648875+898672906
816+887562526+868187062+837102743+793195527+741327621+692605645+659070575
806+647092719+655346097+677793986+707672299+739672306+770276661+797356146
796+820062167+838891618+855030859+869240698+881513471+891684338+899968719
786+906841286+912683626+917731088+922274480+926622932+930732551+934096551
776+936197971+936943660+936692426+936183131+936332784+937558856+939236536
766+940195071+939739562+937858094+934323121+927555201+914334691+890929521
756+855080952+807742156+754111363+703504992+666946266+652512434+661274063
747+687324923+721880884+757639089+790142609+816526149+834687733+844666725
737+850036974+856176321+866354921+879853836+893814671+905983565+915611066
727+922940675+927997821+928328480+918140127+893636870+861902380+839718892
717+837463918+847214667+852284215+847277580+843120654+851663236+872060427
707+894549004+911470930+920588718+921764557+915046939+900673094+877490592
697+841760883+791993909+737634356+698942789+692693430+718167066+759588765
687+800451633+832928747+856423584+871876425+878408230+875176118+866354085
677+861091269+865588748+877148368+888094395+893762417+895170540+897421056
667+904737218+913908931+920705626+925151617+928772076+932481993+936075140
657+938884767+940842664+942602417+944608805+946663267+947891568+945787013
647+936809126+921177996+906186586+900835776+906575212+916079325+921603338
637+922416957+923541379+929102875+938214392+946830826+951977291+952394063
628+945234661+925867627+895260485+865688935+852687193+860641473+880548596
618+901215623+917960166+930899553+940481071+946827551+950438326+952010593
608+952553610+953540362+955991113+959499401+962675567+964476008+964735741
598+963365729+959448889+950889237+933635258+902081077+854853894+801791199
588+760493584+743626628+750274436+770126310+794831335+821652270+848567958
578+872305669+891029081+905452183+917384126+928066935+937262475+943784039
568+947446927+949901022+952800176+955968887+957995620+958025300+956004977
558+950854611+939470353+918887349+889742395+857344357+828868803+808113503
548+792665190+778428249+767013615+765492973+778340742+802359785+829660127
538+853576405+871765161+885199491+895630509+904059946+910557264+915043873
528+918180954+920974835+923399459+924230357+922472973+918002596+911174201
518+902507534+891734779+876025200+850179590+811413962+766026305+729586438
509+716655760+729338757+757223013+788187011+815573815+836769018+851930982
499+863828577+874791116+884377720+890761962+892764240+889301377+878489188
489+859789116+837459737+820478869+816249416+823354683+833964547+842998451
479+850933710+859441179+867928861+874030586+875403943+871915163+866598073
469+861703399+854554308+839637726+815320073+788100618+769648088+769045433
459+787341691+816224334+841667872+855488528+859315771+858049638+855854511
449+855660058+859539763+868164837+879272082+888307101+892058541+891192529
439+887887611+882388401+873342932+860034498+842523433+820735538+796888304
429+778073693+771955107+779929731+796328845+813317168+826950618+838826127
419+853101666+870164119+883894342+889514013+885958000+874853402+861211661
409+851106634+847832510+851227304+859612848+871016545+882613369+890946451
399+894157662+895352451+900684729+909761341+917150379+920848521+922060311
390+920284673+912245325+896676481+879888672+874028357+884223886+902152212
380+916059748+919721243+914015737+906104862+903634116
##END=
