##TITLE=X8036
##JCAMP-DX=4.24
##DATA TYPE=INFRARED SPECTRUM
##DATE=30/10/2018
##SAMPLING PROCEDURE=Diamant-ATR
##ORIGIN=ComPlat
##XUNITS=1/CM
##YUNITS=TRANSMITTANCE
##RESOLUTION=4
##FIRSTX=3997.453
##LASTX=373.96442
##DELTAX=-1.4165319
##MAXY=0.96024638
##MINY=0.21012999
##XFACTOR=1
##YFACTOR=8.9429914e-010
##NPOINTS=2559
##FIRSTY=0.95876491
##XYDATA=(X++(Y..Y))
3997+1072085248+1072525135+1073109185+1073380516+1073302869+1072952959
3989+1072453420+1072200285+1072572723+1073320998+1073741823+1073563935
3980+1073188965+1072933897+1072585120+1071959814+1071431549+1071472205
3972+1071946151+1072309324+1072337917+1072269867+1072292328+1072234277
3963+1071885899+1071416553+1071270324+1071650426+1072244141+1072416563
3955+1071699081+1070322701+1069184593+1069090617+1070083362+1071450744
3946+1072266535+1072108909+1071492734+1071416820+1072116107+1072854451
3938+1073091657+1072815394+1072052923+1071026387+1070473129+1070859963
3929+1071533190+1071574246+1070921214+1070275379+1070304372+1070807309
3921+1070879758+1069980988+1068575416+1067743296+1068064280+1069167530
3912+1070483859+1071755266+1072606514+1072223013+1070063234+1066836862
3904+1064313509+1063628485+1064392822+1065972617+1067954375+1069605485
3895+1070222726+1069661270+1068541891+1068116267+1068782896+1069308827
3887+1068630402+1067044075+1065458816+1064100831+1063225189+1063930674
3878+1066162901+1067979102+1067977103+1066239815+1063714796+1061673987
3870+1061592408+1063799641+1066318861+1067288479+1066882383+1066513478
3861+1066825065+1067189571+1066998420+1066045132+1064084635+1061181913
3853+1059450291+1061260160+1064837175+1067904121+1069623880+1069678732
3844+1068172386+1065839251+1063607557+1061942118+1061148522+1061759232
3836+1063603225+1065493140+1066513145+1066758682+1066929438+1067465434
3827+1068304085+1069136072+1069452990+1068716313+1066944701+1065152961
3819+1064207470+1064020918+1064852771+1066914575+1068995974+1069688263
3810+1068680789+1066624183+1065035391+1065198482+1065991012+1065177488
3802+1062642272+1060923913+1061796156+1064241328+1066904045+1068981245
3793+1070036774+1070277445+1070291309+1070419942+1070567638+1070574169
3785+1070513252+1070377486+1069736651+1068335011+1067020548+1067121322
3776+1068508699+1069840691+1070336164+1070149545+1069668402+1068989976
3768+1068146326+1067617661+1068021291+1069122409+1069747915+1068991442
3759+1067148115+1065494340+1064756796+1064247993+1062866214+1060327333
3751+1058075777+1058011060+1059164164+1059426097+1058330178+1056999320
3742+1056677603+1056878751+1056341489+1054354532+1051338040+1049030032
3734+1049009837+1051081039+1054079269+1056793773+1058281058+1058429086
3725+1058067912+1058044852+1058478874+1059284533+1060479227+1061846409
3717+1062913002+1063102687+1061921857+1059648107+1058098105+1059018602
3708+1061397791+1063212392+1063691469+1063100021+1062153730+1061588476
3700+1061570680+1061751967+1061917058+1062077817+1062255704+1062426794
3691+1062576022+1062772372+1063124681+1063576032+1064007388+1064363230
3683+1064428147+1063812305+1062329685+1060189968+1057946477+1056952532
3674+1058309917+1060198699+1060538812+1060132116+1061616868+1065239205
3666+1068462911+1069766443+1069412734+1068309884+1066940235+1065404829
3657+1064368562+1064860436+1066247546+1066283804+1063725594+1059456823
3649+1056310164+1056320228+1058330112+1060769219+1062915202+1064403820
3640+1065325450+1065992345+1066163235+1065160292+1062944461+1060307604
3632+1057630158+1054495563+1051655825+1051839178+1055001299+1058115500
3623+1059600119+1059538202+1058691219+1058127364+1058507466+1059248943
3615+1059590988+1059848189+1060740960+1062007368+1062885409+1063505117
3606+1064278452+1064640226+1063946804+1062567891+1061341805+1060581201
3598+1060026543+1059454557+1058968548+1058931691+1059383308+1059563928
3589+1058697484+1057436141+1057868764+1060509819+1063342092+1064676616
3581+1064457672+1063764184+1063579698+1063847696+1064049577+1064184409
3572+1064351100+1063930541+1062201918+1059685830+1058311317+1059116243
3564+1060800011+1062062487+1062797365+1063344425+1063922010+1064454007
3555+1064567644+1063932807+1062808229+1061918857+1061504164+1061094802
3547+1060333064+1059449225+1058986677+1059441893+1060961836+1062928865
3538+1064202138+1064272587+1063788178+1063472859+1063197263+1062581221
3530+1061697314+1060824472+1060061534+1059536402+1059639042+1060655715
3521+1062206917+1063369485+1063523046+1062985717+1062633207+1062809429
3513+1062920000+1062327619+1061326943+1060789014+1060916715+1061005092
3504+1060562739+1060097725+1060419376+1061358801+1061938252+1061668522
3496+1061071475+1060959704+1061519227+1062279098+1062756043+1062905271
3488+1063003779+1063203328+1063328296+1063170936+1062779636+1062314622
3479+1061816017+1061378196+1061346937+1061965845+1062898339+1063485455
3471+1063402610+1062708788+1061519093+1060100657+1059029932+1058753803
3462+1059095915+1059517874+1059790070+1060174172+1060947640+1061905727
3454+1062504974+1062521903+1062274033+1062082815+1061880800+1061532890
3445+1061205640+1061155053+1061389793+1061685384+1061757099+1061450044
3437+1060906117+1060490024+1060418243+1060531680+1060525215+1060319601
3428+1060144180+1060251285+1060527015+1060479227+1059793070+1058806989
3420+1058147492+1058016792+1058156423+1058281991+1058243401+1057984334
3411+1057586769+1057289179+1057389886+1058050650+1059085784+1060026810
3403+1060487358+1060353526+1059675100+1058636900+1057590901+1056863422
3394+1056538372+1056495982+1056545237+1056552101+1056550435+1056622883
3386+1056664872+1056511112+1056385078+1056852224+1058037853+1059213218
3377+1059575592+1059202421+1058769866+1058646964+1058690419+1058601509
3369+1058198279+1057631891+1057301442+1057330902+1057541314+1058090173
3360+1059288133+1060606994+1060875858+1059744615+1058127697+1057039776
3352+1056739520+1057037044+1057686210+1058325780+1058553321+1058259730
3343+1057689276+1057173275+1056916075+1056854890+1056643678+1056074891
3335+1055524832+1055588415+1056290369+1057039176+1057328369+1057224795
3326+1057186272+1057563509+1058272327+1058836448+1058734675+1057895890
3318+1056931804+1056636813+1057187005+1058104170+1058890368+1059252475
3309+1058942954+1058022724+1057170609+1057161345+1058015393+1058901032
3301+1058954818+1058122232+1057042176+1056198859+1055593148+1055218177
3292+1055275362+1055754173+1056251512+1056394275+1056185729+1055867744
3284+1055661463+1055756439+1056311563+1057163544+1057665349+1057276782
3275+1056294701+1055530097+1055334481+1055427857+1055498305+1055401597
3267+1054995768+1054406119+1054281684+1055156526+1056633214+1057719935
3258+1057913219+1057500125+1056873286+1056029369+1054847539+1053586796
3250+1052898639+1053242018+1054275419+1055023094+1054885862+1054422248
3241+1054702509+1055839951+1056698597+1056354485+1055274896+1054524488
3233+1054407452+1054500295+1054488164+1054393255+1054339203+1054470502
3224+1054839808+1055223442+1055319684+1055179187+1055167523+1055493040
3216+1056032701+1056605754+1057124088+1057463734+1057466667+1057118889
3207+1056576562+1056005242+1055418859+1054654189+1053673773+1052944427
3199+1053124581+1054230297+1055494839+1056168333+1056114814+1055653865
3190+1055126601+1054591671+1053920577+1053272810+1053144043+1053639516
3182+1054124858+1053990959+1053380649+1052811995+1052435491+1052092179
3173+1051818983+1051836378+1052196353+1052805596+1053586929+1054346268
3165+1054794819+1054925119+1054998967+1055080213+1054961776+1054496629
3156+1053699767+1052781336+1052243341+1052531667+1053483356+1054467370
3148+1054999433+1054987636+1054619931+1054167114+1053678839+1053001346
3139+1052311456+1052199219+1052868913+1053705232+1053974830+1053631184
3131+1053222356+1053233353+1053644714+1053971630+1053729692+1052919234
3122+1052012200+1051473738+1051357568+1051336707+1051102567+1050685874
3114+1050288976+1049881413+1049210319+1048222039+1047272950+1046799271
3105+1046790407+1046727490+1046184629+1045314452+1044462271+1043629685
3097+1042743979+1042067219+1041783292+1041543287+1040955971+1040277745
3088+1040210029+1041101733+1042519903+1043601025+1043782712+1043182333
3080+1042324886+1041648393+1041292818+1041237299+1041507163+1042137068
3071+1042937262+1043511382+1043614355+1043363820+1043149541+1043398877
3063+1044205870+1045172822+1045908233+1046453693+1046804603+1046489084
3054+1045307654+1044024917+1043624753+1044195673+1045031525+1045596780
3046+1045968818+1046321994+1046418969+1045989879+1045360374+1045147828
3037+1045433955+1045776134+1045911099+1045958954+1046037467+1046023937
3029+1045653099+1044766193+1043521646+1042256970+1041133992+1040114720
3020+1039141237+1037996530+1036233450+1033701833+1030921280+1028520296
3012+1026502347+1024347234+1021558882+1017886358+1013316665+1008079809
3003+1002439589+996339222+989362013+981061743+971325442+960550874+949427595
2993+938375298+927285611+915927460+904345965+892704820+880992692+869073551
2983+856957261+844960207+833658107+823833229+816618881+813422568+815185715
2973+821658121+831648823+843870686+857380219+871507460+885677690+899280399
2963+911727471+922699455+932223477+940466228+947519885+953329127+957782784
2953+960862527+962570289+962744444+961269422+958438216+954720837+950231589
2944+944847437+938823850+932875443+927630723+923398209+920542209+919583321
2934+920642849+923191928+926688764+931136889+936752315+943375615+950358290
2924+956883348+962437789+967055471+970986462+974202303+976456058+977759057
2914+978591443+979579856+980946239+982341348+983384013+984215467+985251801
2904+986570995+987863864+988838813+989437793+989766909+989990385+990265914
2894+990647483+991004724+991116562+990912215+990496255+989914937+989073953
2884+987904853+986438096+984727069+982816359+980745691+978571848+976490716
2874+974928917+974431711+975421257+977948075+981594073+985698219+989765242
2864+993659376+997489393+1001375196+1005265997+1008923925+1012115106+1014833142
2854+1017317971+1019750547+1021886665+1023232520+1023725526+1023925542
2846+1024373360+1025100440+1025829386+1026317195+1026542537+1026772078
2837+1027295877+1028041552+1028720644+1029282900+1029887945+1030546909
2829+1031092102+1031416286+1031583176+1031734071+1031952282+1032217480
2820+1032445022+1032516070+1032374107+1032172425+1032148365+1032310190
2812+1032497275+1032708154+1033064796+1033542074+1034007554+1034406385
2803+1034695844+1034742832+1034481166+1034137521+1034144119+1034704375
2795+1035488307+1035908600+1035692788+1035111804+1034739500+1035005965
2786+1035811624+1036573962+1036779110+1036424067+1035826021+1035177854
2778+1034474834+1033742289+1033110318+1032650303+1032313856+1032074317
2769+1031982741+1032079449+1032411697+1033040602+1033827600+1034385191
2761+1034471902+1034263488+1034069672+1033979361+1033870723+1033585329
2752+1033059264+1032431292+1032005935+1032013066+1032437557+1033106985
2744+1033818869+1034310343+1034311210+1033866190+1033504617+1033783012
2735+1034665385+1035575952+1036010773+1035841750+1035132532+1034067672
2727+1033058931+1032518003+1032468483+1032663366+1033001412+1033506216
2718+1034038146+1034394055+1034565478+1034640992+1034620464+1034543017
2710+1034619797+1035051686+1035780166+1036513844+1036963596+1037022580
2701+1036753516+1036288369+1035777367+1035375603+1035214644+1035340412
2693+1035644601+1035922596+1036080156+1036163201+1036126610+1035798428
2684+1035196382+1034648790+1034427713+1034432245+1034358997+1034049743
2676+1033553537+1032979218+1032446488+1032084581+1031909493+1031774527
2667+1031556983+1031274322+1030962069+1030593830+1030134082+1029548299
2659+1028824751+1028075610+1027532016+1027405782+1027772154+1028451580
2650+1029014102+1029137604+1028958717+1028886935+1029170262+1029758778
2642+1030387350+1030692405+1030455532+1029824694+1029180060+1028814087
2633+1028835282+1029272769+1030066832+1030949806+1031561782+1031803387
2625+1031856440+1031787191+1031477670+1031055978+1030921146+1031184079
2616+1031574045+1032017132+1032734281+1033656444+1034350799+1034689046
2608+1035037223+1035602412+1036097751+1036228784+1036084821+1035857346
2599+1035522899+1035051220+1034686447+1034699777+1034945580+1035000699
2591+1034780822+1034694978+1035062017+1035640335+1035918264+1035709451
2582+1035275829+1034915321+1034663186+1034503360+1034579074+1034895326
2574+1035136864+1035198648+1035467779+1036084021+1036518776+1036516777
2565+1036729722+1037641621+1038527794+1038311650+1036978458+1035364673
2557+1033987493+1032839121+1031994737+1031661956+1031729072+1031791323
2548+1031589242+1031167483+1030783648+1030809975+1031427483+1032323386
2540+1032989615+1033269877+1033330395+1033295537+1033211492+1033163304
2531+1033239751+1033496752+1033918444+1034354865+1034683914+1034959710
2523+1035070081+1034564611+1033372184+1032319654+1032271400+1033011410
2514+1033527944+1033221556+1032426560+1031862771+1031875101+1032222346
2506+1032455752+1032354845+1031922823+1031138091+1030015979+1028919327
2497+1028484438+1029041895+1030232723+1031309380+1031759664+1031622433
2489+1031354368+1031442479+1032062453+1033107718+1034462504+1035943791
2480+1037026913+1037180273+1036564165+1035838684+1035249435+1034529753
2472+1033701433+1033293204+1033663976+1034517623+1035131199+1034967841
2463+1034222099+1033685503+1033832399+1034254358+1034255957+1033653245
2455+1032725150+1031854707+1031485468+1031909959+1032824991+1033530077
2446+1033715229+1033630918+1033498218+1033269744+1032928564+1032562192
2438+1032193620+1031847509+1031618034+1031506396+1031439280+1031501531
2429+1031847709+1032365776+1032709754+1032645704+1032213748+1031654158
2421+1031327442+1031553584+1032267267+1032896773+1032864781+1032235609
2412+1031621966+1031492733+1031820915+1032301525+1032640105+1032710487
2404+1032566524+1032239875+1031618901+1030712600+1029825761+1029236245
2395+1028900265+1028656661+1028487504+1028422721+1028344674+1027889191
2387+1026405905+1023222922+1018226538+1011994670+1005136497+997751059+989766242
2377+981478702+973365651+965527663+957629423+949350881+940774549+932313654
2367+924366560+917294375+911733003+908324011+906925103+906812266+907998894
2357+911452675+917652084+926035999+935807024+945699352+953351455+956317360
2347+953603457+946740351+939699358+935965983+935614807+936726455+938054181
2337+939594919+941599071+943633682+945064715+946226017+948074809+950632419
2327+952895305+954338401+955522031+957362958+960486224+965079311+970679474
2317+976081954+980075396+982440456+983973262+985589914+987725966+990508718
2308+993982293+997901954+1001607870+1004504326+1006642644+1008553020+1010563904
2298+1012605714+1014490363+1015960919+1016724323+1016946000+1017414080
2289+1018719744+1020583599+1022316755+1023547772+1024231663+1024437477
2281+1024343101+1024065506+1023461927+1022436790+1021325876+1020628655
2272+1020471628+1020556473+1020514017+1020217760+1019933166+1020239621
2264+1021465107+1022959723+1023300436+1021676319+1018758135+1015823888
2255+1013552271+1011955747+1010638885+1008871605+1006467489+1004558379
2247+1004268720+1004931017+1004870166+1003495785+1001345670+998306450+992596449
2237+981456375+962711919+936126276+904224330+872775068+849918334+842800494
2227+853586060+878244798+908919325+937830105+960382917+975776966+985264397
2217+990727395+994691445+999632777+1006115646+1012447688+1016904810+1019687829
2207+1022073817+1024272986+1025257533+1024660020+1023640215+1023524311
2198+1024401420+1025186951+1024657487+1022593617+1019948429+1017678678
2190+1015975049+1014798484+1014240827+1014298279+1015102939+1016900078
2181+1019137104+1020665845+1021313812+1021902328+1022470515+1021924122
2173+1019997150+1018381498+1018895833+1021046347+1022476447+1021927788
2164+1020731628+1021188844+1024127157+1027775420+1029068955+1027287079
2156+1025025859+1024460338+1025427223+1026759148+1027438307+1027061470
2147+1026130043+1025344244+1024638692+1023683071+1022464450+1020640985
2139+1017744728+1014769292+1014033414+1016620217+1020980431+1024597169
2130+1026166233+1025906167+1024619364+1022883009+1020962436+1019328455
2122+1018795792+1019588322+1020657114+1020879324+1020623589+1020925912
2113+1021497365+1021053612+1019478750+1018143892+1017998996+1018551254
2105+1018840180+1018633300+1018463544+1018791126+1019337919+1019428229
2096+1018926158+1018393428+1018225471+1018178483+1017904420+1017469932
2088+1017192470+1017330168+1017945610+1018723877+1019041462+1018684820
2079+1018287655+1018481272+1018907163+1018762134+1018033854+1017370891
2071+1017011916+1016741252+1016713659+1017467266+1019009070+1020412577
2062+1020580200+1019170562+1016702995+1014254624+1013176234+1014188307
2054+1016043298+1015984713+1012720084+1008451247+1006982623+1009825694
2045+1014968107+1019505076+1022433858+1024439543+1025586915+1024555647
2037+1020818273+1016326292+1013708297+1013705765+1015524165+1018250732
2028+1020507419+1020699303+1019388306+1019425963+1022058887+1024799917
2020+1024737133+1022309357+1020419375+1021177780+1024349166+1027584403
2011+1028011960+1025236205+1022265434+1021783025+1022736314+1022427193
2003+1020417775+1018549721+1018436417+1020017878+1021814950+1022305024
1994+1021293351+1019828060+1018949352+1018966415+1019754612+1020907983
1986+1021544619+1020835601+1019042595+1017692142+1018601708+1022472915
1977+1027795482+1031510595+1031873169+1029927801+1027437574+1024816513
1969+1021896662+1019485215+1018726343+1019310060+1019814597+1019634376
1960+1019361180+1019353715+1018890901+1017012049+1013662176+1009981920
1952+1007745161+1008175851+1010793245+1013542073+1014571742+1013866723
1943+1012759474+1012221012+1012310456+1013005278+1014333270+1015702186
1935+1016208456+1015667994+1014657720+1013791609+1013398444+1013375516
1926+1013163437+1012472348+1011894430+1012062986+1012554127+1012639572
1918+1012626975+1013371784+1014553147+1014781755+1013524278+1011961346
1909+1011568580+1012291794+1013090056+1013616787+1014110994+1014437377
1901+1014290415+1013812271+1013373650+1013164504+1013178967+1013173035
1892+1012763273+1011869036+1010883622+1010400813+1010921479+1012507472
1884+1014301079+1014910655+1013974629+1012619977+1011929954+1011852840
1875+1011810518+1011498198+1010865227+1009888278+1008585212+1007225494
1867+1006431032+1006663572+1007716235+1008831882+1009196455+1008578414
1858+1007573472+1007040875+1007296543+1007936912+1008317881+1008037419
1850+1007114723+1005919430+1004882163+1004286315+1004393488+1005284059
1841+1006476553+1007420444+1008023956+1008417055+1008484505+1007893790
1833+1006578927+1005000799+1004069038+1004471801+1005825254+1007171708
1824+1007927048+1008094405+1007917050+1007555343+1007215497+1007153846
1816+1007287279+1007201901+1006712826+1006044531+1005509068+1005321450
1807+1005578584+1006018004+1006034400+1005349776+1004494129+1004208402
1799+1004481066+1004737666+1004617964+1004062173+1003235718+1002691725
1790+1002886941+1003450063+1003715529+1003338092+1002353545+1001125060
1782+1000088659+999456288+999137504+998854376+998321780+997352362+996010573
1772+994844006+994528553+995097807+996042631+996638678+996297233+995068081
1762+993656844+992695424+992042591+991425283+991010589+990784048+990211195
1752+988840546+986933502+985601778+985629570+986436763+987056404+987217296
1742+987263484+987484694+987780685+987813010+987287278+986278004+985681557
1732+986446094+988089872+989917803+991624365+992797731+993216223+993158905
1723+992906569+992207149+990654214+988699116+988170785+989972922+992590917
1713+994838074+996526174+997455535+997334700+996471854+995874541+995934526
1703+995847681+994969240+993829599+993407641+993918376+995382267+997276981
1693+998448947+998450946+997651752+996442395+994671317+992256803+990691005
1683+991836511+994264288+996078155+996923339+996910475+996286302+995417858
1673+994354265+993087590+992600515+994164447+996768912+998435217+998840313
1663+998954084+999622246+1000444768+1000544209+999568860+997537581+994868266
1653+993306067+993752352+993880320+992875711+992112707+993376649+995873075
1643+997575571+998081441+997756458+996810101+995535695+995205180+997066902
1633+999577257+1000834801+1000664912+999651172+998396027+997001585+995057817
1623+992255203+988663259+983946536+976394474+962888207+941555415+915156924
1613+885536659+849870813+805535059+755465042+710504448+684649017+686343116
1604+713938567+756771974+800903581+836958527+862946324+881026350+893950100
1594+903572164+910797576+916236114+920401245+923243848+924128155+922365141
1584+917427808+909053557+897442870+882136732+859397301+823440530+778609702
1574+739217346+709537230+688852005+682484506+694291276+717920678+745793991
1564+772521998+794148448+812868310+839437491+876811965+904168877+918116564
1554+927271348+934505758+940062065+944459204+947910184+950021109+950715465
1544+950543109+950199197+950898884+954791152+960462563+964092898+965092508
1534+965011462+965669293+967082997+967886124+967629190+966940700+966444228
1524+965943156+965297655+965401962+966690831+968169652+969514573+971206939
1514+972866446+973482821+972494675+969817029+966327858+965937558+971768861
1504+978271126+981541753+982154796+981035150+978666624+975134931+970487323
1494+965353108+960340728+955581349+951366964+948227303+945699085+942574154
1485+938194078+932428291+925523130+917572504+907022145+890517181+864422412
1475+825042585+771543183+717111952+680832064+663675200+655701380+649116670
1465+640867787+633200755+630165801+634079463+648667652+679950757+720278473
1455+749592483+765757401+775485637+782250235+787591397+792969617+798705078
1445+803406538+805668891+805109701+802314019+798457142+794877327+792597579
1435+790852094+787141779+779399500+767112453+752426356+739058720+728842209
1425+721415648+715568948+709062352+698062841+678447942+651212932+622969581
1415+596287296+569730778+543437659+519404361+499146827+482286454+466641169
1405+449968348+432000760+413245273+392733738+369830249+347127676+329184115
1395+319970246+322716841+337823097+361760854+389205577+412685884+422998137
1385+416273463+397618417+375766093+359351205+354659210+362504863+378442439
1375+395791620+407615752+409166120+400340019+384394745+366327882+351693971
1366+343843486+343583519+350950495+364866723+383002702+403410531+424597493
1356+444763084+461907118+474483323+482119797+485825612+487650511+490392674
1346+497004976+509322282+527621485+551630490+580520209+611343698+639931094
1336+664247454+684782250+702512366+717771783+730423136+740458960+748231499
1326+754280680+759159294+763233982+766615647+769510571+772446284+775920992
1316+780175567+785382098+791435411+797323499+800976229+799689026+790652145
1306+771661619+742185717+704674278+665414621+633368112+616662333+618853304
1296+637257647+664476861+692416691+715819617+733022336+744717534+752574318
1286+758490999+764251054+771185541+779830189+789877210+800484155+810597293
1276+819105776+824922216+827023277+824419612+816030565+800505216+776367878
1266+742909931+701333069+655001093+608601135+567097920+534653181+513055524
1256+500143404+489356739+471643086+440021001+394097888+340712656+290393937
1247+252963593+234966112+238642752+261642616+298010849+340513640+382833079
1237+420476451+450637677+471806777+483702024+487600390+486475212+484318033
1227+484894585+490694529+502453078+519310418+539541293+561361459+583256507
1217+603833092+621535482+634407845+640051930+636133136+621659184+598559446
1207+572404958+551093228+541497058+546191653+562910662+586893307+613649973
1197+640030336+663832427+683312027+697098489+704248054+704341697+697853628
1187+686943295+676002503+670397208+673186826+682638600+693514875+701051941
1177+703507111+701435443+695887200+687838732+678480867+668933318+659242405
1167+647840531+632371968+611372957+585410087+556880443+528866632+504080427
1157+484573767+471960937+467419503+471285544+482752468+500105414+521339798
1147+544611725+568215167+590484252+610024370+625906227+637417406+643768709
1137+644209263+638417083+626989016+611895156+596386070+584010180+577274775
1128+576908936+582218440+592089106+605621367+621907853+639572720+656859416
1118+672151692+684318902+692757003+697361488+698388891+696017766+689689924
1108+677584164+656739647+624475194+581113590+532392361+488959175+462052514
1098+457893115+474850196+505303413+540357750+573727419+602668924+626734814
1088+646273267+661719702+673565795+682518298+689498839+695452778+701177642
1078+707282742+714097593+721434310+728574211+734756691+739660765+743158601
1068+744579436+742562820+736175193+726673565+718006256+714564340+717501719
1058+723188393+725475339+719588650+704765255+684650484+665564449+653359914
1048+650755916+656964389+669316486+685023921+701918652+718442344+733520408
1038+746528803+757301038+766092648+773367181+779455419+784484195+788722040
1028+792754339+797032174+801417649+805460611+808948582+811864901+813994221
1018+814928181+814322737+811713473+805937022+795100870+777984996+756366744
1009+735920925+723643076+723129475+731803982+742389532+746400236+736147067
999+705220871+650184063+574115853+488702141+411403213+358473464+338363425
989+349501767+382964478+427559833+474085492+516995546+553911971+584365355
979+608818546+628255358+643976789+657294305+669254902+680522210+691326304
969+701565276+711127488+720069193+728420050+736001371+742562887+748012289
959+752472477+756152599+759140166+761355731+762803026+763795438+764798247
949+766117109+767857995+770057431+772644967+775335276+777760854+779699889
939+781066805+781824477+782051952+781905856+781401452+780531276+779678161
929+779495875+780271143+781798551+783910409+786657370+789893806+793080722
919+795622069+797189067+797668877+796884012+794247689+788497498+777878490
909+761213434+739616377+717448666+700996222+695202975+700921374+714877659
899+732012728+748116395+761146718+770968797+778169015+783109681+785998139
890+787386450+788029818+788312146+788202507+787645583+786594053+784676878
880+781092932+775129595+767306270+760165303+757101089+759634506+766120441
870+773480952+779835988+785227737+790455995+795882869+801216300+805986809
860+809986849+813235349+815737107+817532979+818875901+820066396+821156049
850+822042622+822809692+823708594+824758591+825565718+825611706+824561842
840+822293557+818978942+815151257+810923409+804577304+792483742+771376559
830+741018683+704781384+668317476+638049711+619896570+617572099+630837761
820+655270424+684302440+712196547+735766765+754110123+767383783+775880736
810+779697290+778490066+771152749+756051159+732072913+699646768+660840528
800+618626829+576073950+536084680+501655216+476010498+462103401+461676477
790+474217058+496023695+520298865+539360772+548337868+547949235+544142179
781+544449466+553715322+572357570+597507649+624968201+650746385+672189882
771+688390457+699575387+706364911+709700388+710954533+711634358+713013604
761+716060356+721346199+728663388+736818761+744178539+749600814+752872574
751+754473430+755077075+755086073+754519019+753515809+752817122+753282669
741+754805945+755716911+752932826+742593812+721354997+688353667+646808463
731+603998250+569385467+551638488+555459874+579215477+615295151+653908840
721+687466494+712532328+729284095+739822990+746489079+750988658+754408647
711+757364488+759821791+761220565+761174710+759669830+756421864+750787110
701+742768634+733801802+726357446+722713981+723615617+727774016+732926027
691+737398013+740489553+741930050+741738565+740561934+739579386+739748343
681+741167512+743336089+745890500+748779625+751898758+754565540+755077808
671+751556712+744599364+740488086+746253473+756432594+762489440+763722390
662+763093218+762913864+763413269+763869352+764100359+764431008+764833105
652+764874361+764641487+764974468+766356380+768114862+768986039+768010956
642+764953807+760594393+756865150+755990374+758694813+763278370+766954760
632+767902384+765250598+757772983+744669080+728558748+716077951+713033666
622+719020196+728577077+737301504+744796314+751765392+757117885+759239940
612+758087303+755020090+751768058+749594616+748335406+746016001+739681693
602+726760676+706544531+681544881+657223123+639603512+632814121+637871823
592+652422288+671687211+690903346+707368253+720237617+729536230+736043894
582+741083267+745447547+748813816+750505782+750447530+749207848+747355124
572+744779252+740339791+732339244+720454161+707472093+697867025+694348728
562+696142734+699472480+698702277+689290426+673222483+660605122+661569008
552+676237909+695090804+708446310+713590723+713229349+710194594+705557385
543+699974551+694301007+688753764+682849546+676500375+670242582+664333231
533+658905558+655230568+655565615+661383455+672183817+685505931+698047779
523+707525413+713306929+715991707+717279643+719326517+723191325+728229099
513+733172431+737480925+741623262+746023199+750232785+753782008+756895075
503+759309189+759858848+758661355+757750589+758346836+759386969+759374106
493+758539987+758178679+758602637+758888297+758132891+756396470+755103135
483+756326888+760625651+766035729+769724716+770140476+767609392+763471921
473+759225144+756034896+754017814+752271862+750092488+747998625+747411509
463+749103875+752271929+755494768+758075306+759739679+759849984+757895885
453+753450826+744978067+729894738+706845654+678442944+651900489+635584810
443+634024810+645275123+661407916+673284401+675188312+666780470+654685374
433+649424125+657415807+676759176+699870577+719728681+733667437+742180918
424+746481815+747252750+745096903+743389675+747869658+757397480+765477473
414+769003368+768864337+767039139+763472054+756927067+749001968+744067834
404+744390151+747664378+749679927+748128059+745364101+746424696+751289847
394+756327421+760916043+766419564+771547248+772551724+768732371+765166153
384+766899441+772045387+776158132+778218269+778094101+773461690+763659206
374+755799223
##END=
