##TITLE=J. Beck JB244
##JCAMP-DX=4.24
##DATA TYPE=INFRARED SPECTRUM
##DATE=25/5/2018
##SAMPLING PROCEDURE=Diamant-ATR
##ORIGIN=Angelika Moesle
##XUNITS=1/CM
##YUNITS=TRANSMITTANCE
##RESOLUTION=4
##FIRSTX=3997.453
##LASTX=373.96442
##DELTAX=-1.4165319
##MAXY=0.97781235
##MINY=0.62465435
##XFACTOR=1
##YFACTOR=9.1065872e-010
##NPOINTS=2559
##FIRSTY=0.95044196
##XYDATA=(X++(Y..Y))
3997+1043686224+1043403470+1043289583+1043263992+1043188394+1042958919
3989+1042695343+1042652144+1042835345+1043013048+1043126280+1043342272
3980+1043658472+1043762018+1043422648+1042883649+1042675838+1042954533
3972+1043273875+1043231658+1043014749+1043033992+1043362235+1043788918
3963+1044149626+1044363262+1044353509+1044129139+1043883693+1043896849
3955+1044259062+1044710420+1044871629+1044629325+1044222409+1043908696
3946+1043648262+1043292660+1042986670+1043067504+1043459694+1043622866
3938+1043284347+1042729312+1042364285+1042389288+1042903546+1043845273
3929+1044752310+1045096589+1044793610+1044155320+1043561603+1043231855
3921+1043209077+1043447651+1043843898+1044208991+1044274639+1043828190
3912+1042948512+1042108563+1041890476+1042445708+1043374475+1044173647
3904+1044667680+1044959990+1045060524+1044948928+1044727438+1044395792
3895+1043925059+1043579537+1043767908+1044376679+1044678676+1044389050
3887+1043843637+1043401179+1043222495+1043315568+1043696565+1044303438
3878+1044760819+1044705053+1044134310+1043359225+1042807920+1042732258
3870+1043079940+1043529989+1043796184+1043893118+1043949604+1044019965
3861+1044091439+1044053542+1043737211+1043134396+1042525690+1042425483
3853+1043152068+1044090391+1044573953+1044587894+1044300166+1043995420
3844+1044051186+1044626380+1045504160+1046407859+1047115201+1047246563
3836+1046693558+1045931039+1045390273+1045199545+1045338696+1045652278
3827+1045874030+1045803080+1045457034+1045070604+1045039122+1045492771
3819+1045880445+1045963438+1046224592+1046802274+1047087122+1046787089
3810+1046173016+1045552398+1045146856+1045124668+1045393284+1045726959
3802+1046040475+1046266220+1046395619+1046586020+1046857581+1046953337
3793+1046705208+1046222825+1045707258+1045421297+1045612679+1046159009
3785+1046493143+1046199066+1045567845+1045310814+1045885812+1046933767
3776+1047603409+1047520350+1046885660+1046027319+1045233515+1044813050
3768+1044970397+1045602142+1046367933+1046895020+1047026906+1046849399
3759+1046530254+1046257842+1046125825+1045997604+1045683171+1045278022
3751+1045280378+1045820883+1046191932+1046004476+1045512472+1045192803
3742+1045215123+1045372928+1045637355+1046253195+1047343302+1048376793
3734+1048568633+1048181549+1047927921+1047771949+1047327397+1046607750
3725+1046149650+1046381154+1047094518+1047852324+1048361019+1048356568
3717+1047722008+1046773475+1046143104+1046305229+1047024026+1047458236
3708+1047410325+1047318430+1047328182+1047251341+1046913412+1046430440
3700+1046174652+1046316618+1046650883+1046874468+1046839451+1046556435
3691+1046089564+1045664714+1045763547+1046490132+1047286162+1047659763
3683+1047540902+1047218026+1047076584+1047251865+1047614078+1048044099
3674+1048478702+1048792938+1048940271+1048909116+1048673029+1048323711
3666+1047929623+1047376944+1046585889+1045814927+1045523533+1045836984
3657+1046437443+1046991365+1047439124+1047763178+1047793221+1047471916
3649+1047218746+1047427932+1047756567+1047851538+1047614929+1047085289
3640+1046576071+1046494583+1046805612+1047055967+1047006419+1046921135
3632+1047192238+1047961040+1048939878+1049292077+1048634871+1047460265
3623+1046274532+1045525890+1045689913+1046853981+1048235808+1048997803
3615+1049181201+1049205811+1049229046+1049068884+1048569157+1047892773
3606+1047397365+1047250032+1047357767+1047564858+1047735426+1047783337
3598+1047738961+1047691442+1047641306+1047499144+1047246498+1046994834
3589+1046926502+1047256054+1047952269+1048484200+1048396821+1047779672
3581+1047103092+1046829633+1047019248+1047361759+1047587701+1047690788
3572+1047793090+1047951222+1048090832+1048060397+1047853698+1047781439
3564+1048032056+1048389425+1048575636+1048495719+1048208122+1047801729
3555+1047416477+1047296896+1047646542+1048362459+1049051147+1049348038
3547+1049096244+1048409650+1047697006+1047430157+1047795119+1048560059
3538+1049212029+1049322643+1048931762+1048507043+1048418486+1048545528
3530+1048479814+1048079836+1047692424+1047729601+1048263691+1049083742
3521+1049838014+1050198852+1050132483+1049919044+1049796779+1049703771
3513+1049456231+1049046042+1048649139+1048376204+1048142277+1047896504
3504+1047814820+1048080098+1048583883+1049098011+1049536672+1049813207
3496+1049789972+1049585106+1049579870+1049904120+1050214691+1050194467
3488+1050032472+1050103488+1050323800+1050279358+1049903008+1049597477
3479+1049638581+1049877678+1050077045+1050139814+1050012182+1049653504
3471+1049178582+1048856492+1048886469+1049238406+1049729625+1050170576
3462+1050460530+1050682478+1051005354+1051365276+1051465680+1051248967
3454+1051064719+1051165843+1051366323+1051390606+1051250015+1051089984
3445+1050928448+1050740469+1050568002+1050380089+1050008124+1049371405
3437+1048620668+1048010326+1047736801+1047865349+1048278811+1048768786
3428+1049249729+1049712345+1050027171+1050087125+1050086601+1050322229
3420+1050764163+1051105823+1051190911+1051147844+1051180373+1051352382
3411+1051494021+1051306565+1050711277+1050069453+1049839388+1050038363
3403+1050293627+1050363006+1050291009+1050144788+1049980372+1049955828
3394+1050114157+1050181376+1049907131+1049467030+1049239191+1049302353
3386+1049393200+1049298033+1049094607+1048998523+1049090418+1049222435
3377+1049177142+1048959252+1048805570+1048763353+1048520133+1047910642
3369+1047242309+1046830353+1046613182+1046459828+1046416498+1046487318
3360+1046558399+1046543214+1046337432+1045802556+1045035653+1044393763
3352+1044092944+1044017281+1043974017+1043913736+1043843637+1043705729
3343+1043451839+1043154948+1042938301+1042830763+1042794895+1042812633
3335+1042789528+1042486354+1041768539+1040872171+1040205867+1039883711
3326+1039632178+1039196790+1038675136+1038352325+1038324181+1038417843
3318+1038423865+1038282488+1038034620+1037690734+1037209071+1036556381
3309+1035734498+1034736482+1033548262+1032272075+1031205007+1030617246
3301+1030420169+1030301701+1030215304+1030366499+1030672750+1030661426
3292+1030004940+1028819993+1027432210+1026136059+1025122531+1024392804
3284+1023814337+1023368870+1023162171+1023089585+1022716311+1021691591
3275+1020159485+1018531819+1016977721+1015505439+1014426524+1014127473
3267+1014289271+1013956577+1012672601+1011039633+1009892779+1009327075
3258+1008761568+1007665047+1006013294+1004200726+1002646759+1001452452
3250+1000428779+999448435+998642588+998185207+998032835+998010123+997998210
3240+997860302+997381388+996556429+995821400+995723876+996364915+997303435
3230+997992778+998218195+998114453+997868026+997551564+997218740+996974341
3220+996902933+997043328+997398471+997838376+998119297+998160139+998146721
3210+998244769+998481771+998966511+999831135+1000865083+1001607835+1001901520
3200+1002038380+1002356740+1002999415+1003994093+1005246849+1006489917
3191+1007484268+1008228001+1008823420+1009272553+1009561525+1009804746
3183+1010154391+1010652417+1011200711+1011613714+1011815307+1012051132
3174+1012637911+1013470398+1014131531+1014505132+1014852225+1015244480
3166+1015408504+1015248669+1015097933+1015256785+1015601064+1015837216
3157+1015888727+1015826154+1015652052+1015393057+1015261956+1015495359
3149+1016054779+1016599473+1016841515+1016894858+1017104371+1017521825
3140+1017841101+1017888882+1017831742+1017865319+1018006499+1018179489
3132+1018269552+1018165941+1017861850+1017404731+1016779073+1015975386
3123+1015064029+1014084667+1012992793+1011768640+1010492190+1009308749
3115+1008331089+1007546316+1006875889+1006312149+1005847307+1005323755
3106+1004552204+1003499012+1002185059+1000572185+998743711+997048891+995905899
3097+995521105+995811517+996519121+997420987+998454871+999605913+1000704267
3087+1001474313+1001847063+1002052649+1002266481+1002353794+1002142122
3078+1001693971+1001059477+1000063883+998625046+997024085+995657704+994744122
3068+994323984+994303890+994468044+994620941+994694313+994693134+994722588
3058+995066867+995993736+997392254+998783703+999768431+1000343953+1000746549
3048+1001124143+1001489236+1001922006+1002597866+1003529644+1004437139
3040+1005043292+1005436005+1005981223+1006894674+1008060313+1009234984
3031+1010242817+1011003700+1011558014+1012060360+1012654208+1013384852
3023+1014242603+1015154745+1015925445+1016350296+1016405996+1016186338
3014+1015690668+1014819695+1013470332+1011461145+1008601668+1005184931
3006+1002258103+1001000111+1001768586+1003926023+1006512695+1008869957
2997+1010704190+1011890512+1012465641+1012747936+1013190917+1014010771
2989+1015101140+1016237587+1017157256+1017598405+1017572027+1017457420
2980+1017540021+1017586623+1017119818+1015983240+1014471359+1013024210
2972+1011952626+1011362705+1011173875+1011207583+1011341171+1011555396
2963+1011820609+1012075022+1012352801+1012701989+1012880346+1012388276
2955+1010944989+1008716209+1005992546+1002876169+999397775+995801175+992632044
2945+990558059+990013627+990933362+992885475+995437784+998265452+1001017522
2935+1003358683+1005175244+1006597717+1007808387+1008863281+1009654009
2927+1010032912+1009983954+1009613494+1009057216+1008566651+1008538899
2918+1009181509+1010231494+1011229444+1012001322+1012755463+1013791179
2910+1015163385+1016580295+1017642716+1018224128+1018554269+1018949862
2901+1019549143+1020274681+1020945043+1021430960+1021751741+1022052756
2893+1022518645+1023279004+1024291877+1025294474+1025979039+1026265131
2884+1026317885+1026293537+1026144306+1025702503+1024895412+1023862838
2876+1022887076+1022219070+1021952680+1021997384+1022081882+1021850836
2867+1021126018+1020092855+1019125405+1018428273+1017915521+1017400084
2859+1016831763+1016346892+1016084625+1015973095+1015756841+1015201478
2850+1014160133+1012502425+1010191895+1007522492+1005175309+1003957767
2842+1004419074+1006566758+1009842904+1013432959+1016732406+1019577025
2833+1022064341+1024290110+1026325674+1028214887+1029832866+1030956223
2825+1031609567+1032085732+1032531069+1032821088+1032916976+1033001082
2816+1033175185+1033331550+1033385286+1033409176+1033521362+1033778720
2808+1034162793+1034603811+1035059947+1035546781+1036024778+1036362839
2799+1036523459+1036668959+1036957473+1037334870+1037613173+1037674895
2791+1037553415+1037383894+1037303911+1037355880+1037495686+1037704217
2782+1038027748+1038481266+1038986819+1039443938+1039790703+1039950865
2774+1039849283+1039574515+1039393605+1039498917+1039832527+1040225568
2765+1040598842+1040987890+1041449132+1041954620+1042380910+1042644093
2757+1042783441+1042848174+1042810342+1042638203+1042375150+1042169107
2748+1042258122+1042758635+1043431811+1043868508+1043912427+1043722615
2740+1043520761+1043473308+1043665148+1043983901+1044148382+1044003013
2731+1043705532+1043524164+1043523051+1043550672+1043481358+1043344891
2723+1043222168+1043147421+1043146832+1043247367+1043386911+1043431026
2714+1043372184+1043393783+1043591776+1043778512+1043769937+1043712536
2706+1043849985+1044113234+1044251535+1044260633+1044370331+1044644183
2697+1044843288+1044731365+1044370920+1044053411+1044035281+1044369938
2689+1044878305+1045249092+1045276255+1045009144+1044609035+1044180977
2680+1043851294+1043802074+1044063556+1044416998+1044647455+1044787000
2672+1045000177+1045269055+1045357023+1045150259+1044859848+1044718798
2663+1044677760+1044593719+1044518711+1044553073+1044593588+1044467069
2655+1044201595+1043977814+1043896456+1043943320+1044102369+1044345590
2646+1044566556+1044663164+1044646866+1044595290+1044592017+1044747794
2638+1045121984+1045621254+1046108742+1046574042+1047034433+1047332633
2629+1047232360+1046740945+1046172231+1045820425+1045728988+1045887644
2621+1046372580+1047070039+1047575919+1047685093+1047667552+1047778036
2612+1047844142+1047618921+1047209910+1046919760+1046919171+1047210172
2604+1047699362+1048261466+1048850994+1049457147+1049869169+1049763071
2595+1049185259+1048653590+1048579564+1048854463+1049183557+1049520898
2587+1049886579+1050022589+1049668361+1049084855+1048822064+1048961805
2578+1049080993+1049004938+1049026995+1049263474+1049343784+1048981375
2570+1048468884+1048349303+1048762895+1049308178+1049493408+1049183557
2561+1048606988+1048107195+1047945397+1048175723+1048644100+1049163725
2553+1049630988+1049943981+1050041439+1050113960+1050510077+1051281170
2544+1052006184+1052191741+1051765647+1051124870+1050749043+1050751792
2536+1050836357+1050731502+1050535407+1050468253+1050490638+1050449207
2527+1050413142+1050516295+1050615259+1050440894+1049963355+1049387702
2519+1048935493+1048793985+1049093822+1049772038+1050562308+1051223572
2510+1051692079+1051956244+1051941059+1051683963+1051490552+1051645870
2502+1052036096+1052286320+1052181793+1051751051+1051132986+1050613361
2493+1050539400+1050916077+1051304667+1051351269+1051187573+1051140382
2485+1051300806+1051532506+1051716558+1051877112+1052138071+1052554805
2476+1052995822+1053285972+1053365954+1053201669+1052757445+1052223355
2468+1051985174+1052205486+1052698014+1053290815+1053971715+1054593773
2459+1054781686+1054347803+1053645959+1053300698+1053585219+1054236862
2451+1054885362+1055407344+1055794232+1055986334+1055971150+1055782843
2442+1055341237+1054581599+1053758799+1053293630+1053273012+1053378063
2434+1053354762+1053318960+1053500001+1053843690+1054036709+1053921578
2425+1053717106+1053695179+1053800426+1053791983+1053612709+1053389124
2417+1053183146+1052933839+1052596040+1052298690+1052360608+1052958580
2408+1053749439+1054134560+1053964122+1053669718+1053699433+1054116168
2400+1054682657+1055103515+1055242993+1055199795+1055101944+1054894264
2391+1054488526+1054041618+1053850890+1053980027+1054204659+1054358276
2383+1054496773+1054646331+1054683442+1054606667+1054635989+1054873057
2374+1055170472+1055436536+1055739972+1056100614+1056512636+1057028923
2366+1057540236+1057711852+1057358802+1056703298+1056172611+1055987054
2357+1055919704+1055610442+1055124787+1054836339+1054807867+1054795300
2349+1054750989+1054899762+1055347390+1055782385+1055901116+1056004334
2340+1056528737+1057308208+1057792031+1057702165+1057209964+1056655584
2332+1056239765+1055910148+1055523129+1055058025+1054613605+1054330066
2323+1054345578+1054618972+1054876265+1054991068+1055177018+1055545056
2315+1055828725+1055798356+1055605402+1055488308+1055457939+1055457088
2306+1055511413+1055564364+1055435685+1055090752+1054769839+1054757927
2298+1055133099+1055725049+1056215155+1056374466+1056306461+1056347304
2289+1056667234+1057125661+1057508819+1057761923+1057972875+1058190373
2281+1058291497+1058144622+1057918746+1058011819+1058625957+1059578222
2272+1060406193+1060540828+1059697214+1058324681+1057378896+1057443759
2264+1058259360+1059205668+1059981277+1060592470+1060887594+1060583634
2255+1059836758+1059274720+1059238263+1059435667+1059550667+1059808221
2247+1060680699+1062128895+1063386691+1063709829+1063153485+1062305093
2238+1061590485+1061271078+1061596180+1062374930+1062799912+1062164960
2230+1060631872+1059252401+1059148463+1060309193+1061464490+1061657181
2221+1061318204+1061199016+1061199016+1060950559+1060640577+1060601109
2213+1060707011+1060621203+1060399975+1060640512+1061844702+1063607461
2204+1064814139+1064752155+1063720563+1062692308+1062665473+1063861940
2196+1065203187+1065209405+1063698047+1061935222+1061102604+1061317680
2187+1062066716+1062906730+1063818283+1065253585+1067540159+1070018115
2179+1071392612+1071224727+1070403497+1069730190+1068710314+1066475709
2170+1063326606+1060577939+1059145386+1058849280+1059082225+1059762339
2162+1061377504+1063945653+1066171291+1066812723+1066605763+1066967583
2153+1067861398+1068408186+1068645647+1069386501+1070651430+1071415389
2145+1070959710+1069561193+1067749082+1065772621+1064014836+1063038878
2136+1062821053+1062644790+1062093878+1061477057+1061075245+1060691041
2128+1060126843+1059643216+1059678298+1060277252+1061005212+1061426200
2119+1061476140+1061324618+1061103783+1060787517+1060160616+1059102777
2111+1057989893+1057367900+1057191768+1057010269+1056860580+1057252704
2102+1058298762+1059460408+1060191051+1060505026+1060812127+1061241167
2094+1061394456+1061049850+1060740326+1061130225+1062047080+1062631830
2085+1062386908+1061679108+1061226506+1061391707+1061979206+1062441168
2077+1062273676+1061514561+1060821683+1060777372+1061283514+1061905507
2068+1062409882+1062662593+1062481618+1061979337+1061648345+1061797707
2060+1062237023+1062655851+1063023955+1063414508+1063565834+1062997839
2051+1061632571+1060033639+1059042954+1059328194+1061081398+1063767165
2043+1066216911+1067312778+1066669971+1064842349+1063209315+1063341594
2034+1065622997+1068603299+1070436289+1070527988+1069253109+1067034344
2026+1064545326+1063118991+1064039053+1067319912+1071338352+1073741823
2017+1073163945+1070539573+1068245341+1067714720+1068507412+1069437161
2009+1069690592+1068797954+1066537889+1063384793+1060508233+1059083534
2000+1059672800+1061818325+1064120410+1065287424+1065325844+1065362497
1992+1066230394+1067473659+1068080270+1067881296+1067631923+1067789466
1983+1067819574+1067032707+1065657949+1064684805+1064774933+1065532150
1975+1066058451+1066107344+1066112253+1066398344+1067160339+1068594136
1966+1069959077+1069598631+1067119039+1064105684+1062147026+1061520648
1958+1062018608+1063498680+1065201289+1065882974+1065109721+1063719385
1949+1062869618+1063022515+1063797666+1064508084+1064762235+1064690172
1941+1064664449+1064830109+1064997339+1064829389+1064132126+1063199563
1932+1062726343+1063026965+1063538933+1063547900+1063158590+1063086658
1924+1063701058+1064651883+1065379057+1065644597+1065551458+1065421404
1915+1065554076+1065943975+1066321962+1066461179+1066422758+1066444096
1907+1066622846+1066854481+1066989574+1066929817+1066669448+1066317511
1898+1065994962+1065727263+1065517227+1065444705+1065559509+1065784926
1890+1066035150+1066336230+1066708915+1067033100+1067175786+1067208185
1881+1067395378+1067866242+1068346334+1068386325+1067897659+1067269252
1873+1066891527+1066802250+1066828824+1066840998+1066822540+1066806112
1864+1066800025+1066801268+1066865608+1067083695+1067390273+1067514698
1856+1067342558+1067229850+1067640170+1068459762+1069022521+1068924342
1847+1068464802+1068115680+1067868205+1067397146+1066703810+1066069971
1839+1065736230+1065873941+1066506275+1067398913+1068191736+1068660570
1830+1068830418+1068871784+1068900060+1068952421+1069001183+1068921266
1822+1068724909+1068681973+1068920088+1069078155+1068738131+1068055202
1813+1067527265+1067361409+1067343344+1067275993+1067254525+1067370310
1805+1067486291+1067430264+1067202883+1066926282+1066711664+1066626184
1796+1066685614+1066866590+1067129577+1067353554+1067336079+1067040365
1788+1066643398+1066399130+1066498159+1066880662+1067310290+1067645079
1779+1067840257+1067839603+1067681666+1067536821+1067491528+1067342820
1771+1066850881+1066141575+1065526063+1065208292+1065101932+1064830829
1762+1064016734+1062703762+1061276969+1059915236+1058607500+1057311088
1754+1055821198+1053758471+1050755065+1046765097+1042099269+1036963560
1745+1031472183+1025925761+1020420770+1014416444+1007631273+1000710420
1737+993137989+981362609+961663844+937387088+913139524+887800543+862103146
1727+839921058+823943056+815203219+813499694+816871793+823526125+833271635
1717+845541310+857625363+867903719+877020888+886034576+895552182+905820982
1707+917129622+928873193+939154822+947759368+957059476+968137070+978221295
1697+986422198+994343096+1001265586+1006189361+1009898539+1013160285+1015892523
1687+1017938233+1019432900+1020349951+1020754707+1021235192+1022141902
1679+1023441063+1024884416+1026097049+1026842092+1027219555+1027474361
1670+1027914985+1028822939+1030072553+1031387030+1032639065+1033640485
1662+1034201934+1034419170+1034485669+1034517217+1034596283+1034590458
1653+1034007410+1033053771+1032414892+1032000055+1031648250+1031354173
1645+1031007734+1030349546+1029067206+1026845103+1023064320+1015131575
1636+997741507+972170236+949648713+934678216+926677401+926101225+931738822
1626+938202361+939102853+930130137+912583310+893402207+878381443+872397211
1616+880262475+897504884+914639558+928825347+940177251+948039831+951864336
1606+951902102+948310345+940750416+929021049+913944062+897727225+883505240
1596+874466811+872661377+877791522+887418957+898529996+908444962+914979451
1587+916856098+913908391+906693788+896475909+885549445+876447919+871177640
1577+871917185+879065485+889026660+900250212+914836700+933234144+950558630
1567+963226582+972665775+980215755+985764534+989047290+989004746+984288717
1557+977632749+970443868+961873357+951890648+940432646+927673388+915293949
1547+904763732+895807576+888086046+882479211+880688438+884259185+890611782
1537+896589338+903036383+911829432+922568965+932351259+940285836+947820566
1527+955932585+963946229+970938818+977432661+983968590+989504474+993370345
1517+995932865+997083581+996748727+995780034+995333585+996186689+998879394
1507+1003899842+1009511912+1013214087+1015501708+1017231676+1018666847
1499+1019875357+1020994459+1022160621+1023314675+1024373954+1025372690
1490+1026293668+1026890331+1026963964+1026591476+1025735557+1024101084
1482+1021461722+1017972922+1013866384+1008899018+1002163001+991605687+974864381
1472+955180801+940774961+933849591+931316590+929390920+924583781+916110400
1462+906396831+897343086+889991360+887725928+894439494+906123372+918049161
1452+929190243+938396885+943760892+944261732+941205833+937255398+934569958
1442+934722397+938857865+947727297+961933049+979423522+994040772+1003027429
1432+1008521489+1012317064+1014680282+1015535677+1014993537+1013087633
1424+1009987095+1005936191+1000034756+989989410+975443764+959828694+945313484
1414+931967709+920338680+911288731+904808371+899908813+895646433+892728114
1404+893620883+900027282+911943580+928243346+945940844+961720460+974671428
1394+984865482+991954482+996266999+998408138+998005999+993936768+985460050
1384+971909736+951746849+923368333+887223254+846768670+806349889+769154302
1374+738671038+719030721+711254015+713341483+723090134+737786058+754417012
1364+771510779+788435155+803733436+816560633+827985844+839458376+851448505
1354+863063985+872294059+877015914+876305299+871449201+865760617+862721801
1344+863964215+868986757+876316687+884213237+890767755+894835938+896793221
1334+897750591+898660508+900081280+902274191+905424865+909697522+915048045
1324+921090726+927189238+932715173+937330864+941128141+944572303+948263482
1315+952562253+957265912+961624573+964755742+965954107+964634328+960272461
1305+952565853+941757333+929025304+916635327+907447405+903739470+905948418
1295+912423214+920613841+928580883+935631266+942037011+948303538+954520191
1285+960341709+965472706+969961813+974002048+977485874+979677214+979287512
1275+975141898+967463305+959079986+954714650+957628387+966776056+977948032
1265+987360717+993703169+997508497+999709655+1000818351+1000655702+998452645
1255+993295140+984602168+972484407+958237616+944734690+935638008+933188785
1245+936457339+942026146+946505827+948453882+948293590+946902141+944183517
1235+938562414+927741720+910168385+886174971+858335454+831183054+810209607
1225+799947548+801846513+813571953+830471523+847887053+862619499+873315506
1215+880341934+885279127+889950911+895426448+901702466+908089557+913632706
1205+917297966+918254026+916226054+911470884+904375928+895127920+883668347
1196+869918404+854217789+837615176+821511767+806914414+794187293+783496195
1186+775142723+769234023+765087100+761122593+755531925+747250844+736479370
1176+724461686+712817799+702799812+694887946+689135939+685936830+686144313
1166+690189589+697267266+705675848+713935658+721505012+728607692+735482205
1156+741602447+745503989+745576248+741294625+733784767+725168701+717409012
1146+711910959+709989805+712951780+721215386+733691890+748476698+764040846
1136+779640338+794963949+809771142+823837677+836973089+848687141+857426257
1126+860196326+853846020+838020783+817347369+799870314+792217181+795937879
1116+808251210+825247780+843808789+861607738+876875715+888522088+895887363
1106+898022087+893345656+880136480+857558471+826990119+793215131+763930363
1096+746511823+744029350+754112070+771449777+791142390+810273815+827618133
1086+842804621+855812794+866795744+876058086+884103539+891502914+898541581
1077+905101270+910966313+916075645+920474886+924258221+927585682+930552173
1067+933048783+934914499+936199457+937120370+937775481+938059282+937771554
1057+936551067+933777332+928701250+920245607+906470596+885617973+859532641
1047+835751882+823908759+828655551+846463597+869386932+890882558+907890320
1037+919330846+924228375+920873817+908090604+889078040+873201227+870288079
1027+882032565+901207385+919405266+933200109+943250953+950821944+956435324
1017+960198434+962143609+962316403+960587024+956329880+948788932+938463908
1007+928218474+922150790+922274495+926049714+927518921+921021739+904464681
997+880808281+857593029+843705964+844217211+857315250+876289721+894523993
987+909108844+920817725+931464512+941537938+950168469+956562432+960647240
977+962445147+961384756+956353836+946523041+932534918+916979802+903309646
967+893975241+889557216+889593934+893907760+902658985+915089869+928924965
958+941580220+951774208+959733265+966166827+971434095+975595679+978868487
948+981674424+984273466+986641070+988728996+990588232+992192466+993294289
938+993471534+992236778+989104561+983727071+976451990+969034485+964260989
928+964111103+968246637+974533127+980829632+986083548+990112329+992978221
918+994817952+995955904+996744866+997231896+997061654+995562536+991792881
908+984566823+972625064+955587455+935983465+920181333+915224308+923313876
898+939991040+958136362+972984593+983437641+990338074+994720232+997246950
888+998302629+998028187+996023320+991099283+981894736+968613300+954529355
878+944828418+942543807+945810594+950550972+955587194+963139465+974360726
868+986753321+996592362+1001981699+1002615538+997545281+984263256+961187156
858+932235605+907790833+898219949+905779813+924154807+945006971+963051235
849+976103588+983119282+982513456+971809398+950211667+921691381+892894559
839+867344168+844671908+826170788+817137202+821561118+837180900+857745664
829+878286472+896910446+913316114+927347305+938695347+947247074+953505747
819+958532937+963399114+968691319+974369169+979967364+985049206+989456171
809+993107489+995738145+996889449+996139629+993152389+986578432+973061827
799+950551233+924840157+909184049+912964242+932356168+955190422+972701381
789+983645452+990044193+993298544+993659578+990547586+982807140+969010268
779+947721275+919328752+889321522+867249459+857945359+853390931+837272599
769+800893136+754293504+719813661+714106096+736680766+774411294+813749394
759+847612939+874368174+894794310+910451269+922729192+932334699+939510751
749+944237711+946044062+944112501+937753686+926556511+910495908+891232334
739+873784799+865083317+868808138+881844586+896406072+904630210+901659399
730+888354793+872776442+865406848+870371465+882853140+895274402+903334714
720+906008372+902882832+893646016+879969118+866650440+859225539+859563011
710+864750820+870576527+874873924+877522514+878870633+879101549+878538398
700+877847484+877760694+878536434+879681521+880309928+879628636+876680144
690+870018677+859217619+847395048+840393034+841767858+849532063+858680715
680+865945389+871248132+875682259+879533206+882106984+882794953+881636317
670+878502334+873470890+870071170+872632054+880427415+890361165+898857716
660+902624033+899962026+889679938+869835084+840954090+811043337+793507572
650+796558366+816120401+840865795+862313772+878439369+890370132+899092755
640+904927690+908474939+911324337+915248002+920570643+925994865+930173205
630+932664971+933263205+931462679+927602568+924229291+924741848+930070248
620+937755977+944566347+949162010+952150755+954528831+956689540+958487971
611+959500582+958903331+955230741+946483115+930312945+904498258+869440407
601+832190233+805788439+800050308+813269891+835593422+858435923+878605028
591+895657822+908934872+918033780+924055319+929038067+934344476+939810522
581+944398462+947518046+949655061+951684408+953681552+954811977+954621249
571+953783985+953197991+953023561+953150407+953927390+955744017+958418853
561+961427627+964391959+967249799+970220480+973519272+976921545+979878676
551+982104707+983667968+984652042+985244058+985811659+986303075+986178126
541+985580155+985651760+986908966+988276787+988556922+987862016+986850255
531+985541211+983607817+981021341+977790816+973608745+968331856+962464063
521+956714346+951574644+947870114+947298650+951076029+958121111+965701920
511+971338077+973723090+972765917+969760940+967163337+966935629+969082527
501+972225085+975315216+978072129+980016584+980334748+978694384+975598624
492+972235819+969890666+968358887+964982730+956096346+939696504+916859959
482+891415012+869808837+860304453+867940896+889150168+914748928+937293164
472+953782806+964522143+971531292+977062201+982318016+987134973+990850696
462+993135437+994155903+994468895+994763234+995306880+995688728+995214069
452+993466560+990917719+988521905+986166345+982260941+975747462+968496141
442+964574505+966105367+970882660+974401110+972428969+963034021+948048536
432+932673153+923661624+925510061+936733024+951405058+963854858+971814765
422+976878935+982236724+989250258+994560594+995124857+992940127+990652441
412+989493478+989028964+986960935+980655202+969907684+957794897+948060187
402+942347778+940209454+940039867+938880839+933350518+922080167+905166984
392+884534869+865525054+854663453+855205594+866426790+885568949+907366113
382+926038653+940243096+951575364+962008777+973773881+986226430+993425979
##END=
