##TITLE=JPK-248,X12539
##JCAMP-DX=4.24
##DATA TYPE=INFRARED SPECTRUM
##DATE=26/8/2019
##SAMPLING PROCEDURE=Diamant-ATR
##ORIGIN=Angelika Moesle
##XUNITS=1/CM
##YUNITS=TRANSMITTANCE
##RESOLUTION=4
##FIRSTX=3997.453
##LASTX=373.96442
##DELTAX=-1.4165319
##MAXY=1.0044158
##MINY=0.5628677
##XFACTOR=1
##YFACTOR=9.3543506e-010
##NPOINTS=2559
##FIRSTY=0.98426038
##XYDATA=(X++(Y..Y))
3997+1052195303+1052170708+1052390218+1052752459+1052967764+1052955530
3989+1052776927+1052445654+1052090677+1052052956+1052515171+1053178227
3980+1053575958+1053617694+1053576532+1053615209+1053589658+1053367471
3972+1053100936+1053028488+1053137893+1053149235+1052821148+1052245896
3963+1051836695+1051925837+1052364603+1052709449+1052797508+1052852306
3955+1053073792+1053432655+1053835166+1054181732+1054245132+1053812036
3946+1053079973+1052630629+1052888626+1053628717+1054127571+1054001217
3938+1053555505+1053241053+1053097368+1052804644+1052222065+1051736529
3929+1051797699+1052283044+1052690907+1052711297+1052540276+1052679947
3921+1053348674+1054180075+1054513514+1054085835+1053338033+1052787632
3912+1052585389+1052720026+1053103421+1053499177+1053689951+1053671473
3904+1053585261+1053540658+1053580928+1053721109+1053888626+1053939282
3895+1053805282+1053606862+1053659111+1054163635+1054716331+1054719134
3887+1054173639+1053740416+1054085070+1055013196+1055776673+1055850714
3878+1055355174+1054802096+1054459991+1054310316+1054253861+1054195112
3870+1054018038+1053690525+1053369956+1053170326+1053019121+1052895189
3861+1053012558+1053485414+1054110813+1054618204+1054897228+1054968402
3853+1054941704+1054914305+1054789352+1054518931+1054204925+1053971460
3844+1053817898+1053633560+1053422779+1053402325+1053693965+1053955913
3836+1053743538+1053185682+1052696450+1052461265+1052478086+1052745004
3827+1053146176+1053315094+1052975092+1052350458+1052050279+1052522689
3819+1053421122+1054116930+1054272339+1053792156+1052977258+1052270236
3810+1051910608+1051988600+1052485478+1053125340+1053544290+1053727290
3802+1053798910+1053646686+1053222766+1052881935+1052893850+1053075895
3793+1053108901+1052992487+1052927303+1052976876+1053005804+1052865496
3785+1052547221+1052202312+1052104759+1052533713+1053428450+1054187275
3776+1054340901+1054082012+1053765649+1053473690+1053131967+1052749783
3768+1052451133+1052364157+1052507461+1052746342+1052998731+1053382636
3759+1053922588+1054294513+1054271766+1054087428+1054026322+1054110239
3751+1054137574+1054014470+1054004657+1054219389+1054315349+1053940174
3742+1053491786+1053475984+1053720727+1053856639+1053717987+1053470632
3734+1053378686+1053365687+1053249655+1053110175+1053178864+1053545437
3725+1053900987+1053737103+1053015171+1052253096+1051892257+1051919019
3717+1052073983+1052131075+1051993697+1051785083+1051872568+1052413922
3708+1053031674+1053424945+1053640314+1053828157+1054101382+1054433420
3700+1054628335+1054571626+1054369001+1054170326+1054023646+1053899458
3691+1053810252+1053870084+1054102529+1054224423+1054058117+1053781069
3683+1053690461+1054008927+1054736785+1055582777+1056104696+1056027533
3674+1055678355+1055564681+1055531674+1055151848+1054399139+1053724550
3666+1053324270+1053170772+1053402198+1054117885+1055037090+1055682178
3657+1055736721+1055134389+1054197279+1053532311+1053544864+1054212571
3649+1055012941+1055377221+1055339563+1055038938+1054533267+1054012686
3640+1053709895+1053696960+1053853517+1053963368+1053891557+1053835230
3632+1054235956+1055256155+1056295916+1056434440+1055878686+1055347336
3623+1054963814+1054633688+1054361864+1054193137+1054203332+1054438518
3615+1054647770+1054361354+1053482611+1052627570+1052558372+1053471396
3606+1054804326+1055791009+1056085517+1055701867+1054870084+1054051491
3598+1053704033+1053949987+1054555951+1055114572+1055338989+1055289161
3589+1055257493+1055505040+1055978406+1056307959+1056225953+1055709577
3581+1054942213+1054249719+1053882063+1053880597+1054120434+1054366516
3572+1054457761+1054551108+1054989875+1055865751+1056695941+1056816115
3564+1056203587+1055289098+1054436670+1053860144+1053592653+1053529890
3555+1053603676+1053830706+1054161469+1054395380+1054373779+1054166248
3547+1053970377+1053916853+1054017274+1054253797+1054593290+1054900350
3538+1054981209+1054772085+1054393022+1053971906+1053612214+1053545119
3530+1053990958+1054746852+1055201803+1054935714+1054105715+1053265840
3521+1052975601+1053426729+1054326883+1055156563+1055566783+1055567739
3513+1055399713+1055275717+1055217096+1055076851+1054768516+1054461074
3504+1054448394+1054786421+1055131713+1055128208+1054820001+1054500006
3496+1054390474+1054591888+1055111514+1055785275+1056248382+1056151402
3488+1055504976+1054759660+1054393660+1054482420+1054741054+1054860781
3479+1054760998+1054641143+1054814330+1055325226+1055738378+1055577679
3471+1054903664+1054196196+1053824206+1053845616+1054167395+1054644265
3462+1055059583+1055209131+1055089403+1054901051+1054782280+1054641653
3454+1054409143+1054314075+1054577552+1054925965+1054845489+1054383082
3445+1054188932+1054594437+1055203524+1055508799+1055450561+1055271129
3437+1055147196+1055105843+1055048050+1054774060+1054183770+1053483503
3428+1052998668+1052808659+1052811972+1053054931+1053654077+1054431317
3420+1054972862+1055101191+1055031101+1055061750+1055243985+1055349184
3411+1055184727+1054846890+1054508290+1054158602+1053776417+1053496565
3403+1053370976+1053268835+1053161532+1053202057+1053433420+1053670963
3394+1053743602+1053727226+1053861609+1054206837+1054513514+1054597177
3386+1054663317+1054997585+1055466809+1055645922+1055360909+1054866579
3377+1054509373+1054387734+1054398885+1054469294+1054586026+1054684918
3369+1054677845+1054548241+1054322550+1054007971+1053610175+1053171664
3360+1052768452+1052493825+1052429342+1052577233+1052782789+1052815859
3352+1052640123+1052459990+1052386140+1052297062+1052134579+1052016572
3343+1051943105+1051755453+1051451961+1051246405+1051278328+1051456231
3335+1051554102+1051410226+1051102210+1050896972+1050966617+1051222511
3326+1051482992+1051695367+1051890218+1052006059+1051921568+1051659493
3318+1051383910+1051171982+1050968656+1050788268+1050754051+1050884356
3309+1051030654+1051098578+1051173638+1051342302+1051518993+1051583222
3301+1051611258+1051822868+1052302733+1052883209+1053301459+1053412329
3292+1053258257+1053003319+1052836631+1052910099+1053298528+1053936287
3284+1054572518+1054857149+1054614254+1054083159+1053741053+1053798974
3275+1054020842+1054077615+1053898056+1053630820+1053434631+1053375627
3267+1053421377+1053495992+1053548496+1053555122+1053475219+1053255963
3258+1052898183+1052514279+1052285847+1052358550+1052789288+1053507716
3250+1054251312+1054693966+1054755518+1054653249+1054584178+1054539512
3241+1054458462+1054338734+1054184535+1054012176+1053896463+1053894360
3233+1053978660+1054106097+1054262909+1054381043+1054325035+1054048560
3224+1053716649+1053593162+1053812864+1054273359+1054741054+1055017784
3216+1054997203+1054694029+1054352179+1054352561+1054784892+1055264566
3207+1055415197+1055328731+1055265777+1055206009+1055045947+1054953874
3199+1055109093+1055296935+1055181222+1054793749+1054355301+1053862756
3190+1053309806+1053057990+1053465725+1054303116+1054955594+1055080738
3182+1054810188+1054511730+1054514916+1054856193+1055235255+1055419275
3173+1055574493+1055930043+1056263037+1056054996+1055144839+1053956422
3165+1053055059+1052713399+1052938262+1053618013+1054492933+1055195877
3156+1055507398+1055481273+1055252905+1054860972+1054335102+1053818026
3148+1053494335+1053451134+1053622664+1053809360+1053783490+1053476111
3139+1053039002+1052688676+1052563597+1052738887+1053219389+1053861545
3131+1054434886+1054798528+1054951261+1054930107+1054747935+1054429151
3122+1054034605+1053623301+1053247425+1053014088+1053059519+1053392512
3114+1053841665+1054204224+1054380980+1054365878+1054196068+1053921632
3105+1053582904+1053221555+1052901306+1052654778+1052462348+1052361226
3097+1052436478+1052586599+1052511093+1052103357+1051605587+1051235318
3088+1050945016+1050666247+1050472351+1050425263+1050540912+1050869764
3080+1051335420+1051599343+1051353707+1050670644+1049896653+1049309422
3071+1048985732+1048882189+1048863838+1048697469+1048202502+1047424498
3063+1046530143+1045607370+1044731621+1044083220+1043799226+1043823121
3054+1044031544+1044408249+1045035113+1045928512+1046882889+1047564488
3046+1047812990+1047715437+1047435967+1047232386+1047479487+1048302859
3037+1049298527+1049927493+1050088574+1050097877+1050226079+1050436350
3029+1050523199+1050355619+1049947182+1049427939+1049036770+1049020650
3020+1049439600+1050156689+1050987453+1051720854+1052095265+1051988281
3012+1051600936+1051298336+1051239524+1051211933+1050852305+1050053911
3003+1049124192+1048471522+1048184342+1048034667+1047840835+1047635789
2995+1047466233+1047269088+1047068820+1047064233+1047345232+1047660639
2986+1047611130+1047034795+1046164717+1045411945+1044985603+1044776542
2978+1044609536+1044435202+1044225376+1043902578+1043485858+1043205050
2969+1043379957+1044117819+1045104757+1045851221+1046214672+1046481335
2961+1046918253+1047514214+1048144136+1048695366+1049031163+1049070286
2952+1048944697+1048917298+1049078506+1049234426+1049193454+1049025301
2944+1048871675+1048685426+1048413284+1048223529+1048235190+1048212506
2935+1047851731+1047219706+1046619859+1046126677+1045526192+1044703648
2927+1043854406+1043237992+1042884673+1042677141+1042611320+1042822483
2918+1043379639+1044170451+1045042823+1045990701+1047099724+1048293174
2910+1049262780+1049742391+1049760359+1049608900+1049634069+1050020714
2901+1050668286+1051255581+1051490320+1051340645+1051060092+1050979169
2893+1051202503+1051520586+1051685554+1051695813+1051732323+1051916024
2884+1052220599+1052529125+1052700974+1052643627+1052373269+1051991276
2876+1051628335+1051430807+1051529698+1051919720+1052367981+1052567420
2867+1052427303+1052123110+1051862947+1051755708+1051886969+1052291518
2859+1052828093+1053270746+1053530081+1053655734+1053668924+1053536198
2850+1053290690+1053097559+1053143819+1053440875+1053762272+1053821275
2842+1053504084+1052956804+1052509436+1052457824+1052794577+1053208684
2833+1053420612+1053406722+1053284509+1053156180+1053084433+1053060921
2825+1052991659+1052822358+1052644010+1052578507+1052582649+1052487134
2816+1052264756+1052151082+1052350458+1052708366+1052866706+1052695686
2808+1052391748+1052208429+1052256537+1052498859+1052796934+1053012558
2799+1053137319+1053268261+1053430298+1053518293+1053458079+1053347846
2791+1053361545+1053537855+1053723021+1053726398+1053512941+1053245896
2782+1053132604+1053194985+1053201675+1052910226+1052402325+1052053147
2774+1052090295+1052326946+1052469994+1052543971+1052778201+1053175614
2765+1053457697+1053448776+1053324461+1053392321+1053715439+1054063406
2757+1054230030+1054252969+1054264056+1054291136+1054319937+1054388626
2748+1054469485+1054392768+1054059583+1053676761+1053601318+1053931827
2740+1054383528+1054604059+1054495673+1054206199+1053934376+1053775908
2731+1053671791+1053489620+1053208111+1052971651+1052914240+1053009818
2723+1053147897+1053280431+1053427367+1053582012+1053707410+1053804390
2714+1053920867+1054104441+1054374735+1054684153+1054900541+1054925838
2706+1054855938+1054918383+1055203460+1055515490+1055546903+1055239525
2697+1054899841+1054862501+1055094182+1055266032+1055172047+1054927686
2689+1054767561+1054767178+1054815286+1054799802+1054734491+1054709832
2680+1054802224+1055013897+1055235192+1055330387+1055322869+1055375564
2672+1055552829+1055735192+1055783618+1055687913+1055555760+1055484395
2663+1055443488+1055340009+1055171600+1055002555+1054830833+1054656308
2655+1054592080+1054723722+1054938263+1055041933+1055001153+1054953619
2646+1054990831+1055005996+1054841156+1054549643+1054360271+1054368109
2638+1054437116+1054448458+1054487007+1054686447+1054993316+1055186829
2629+1055098005+1054722575+1054173830+1053620944+1053215884+1052967127
2621+1052738759+1052471969+1052317515+1052451579+1052833636+1053218688
2612+1053380916+1053296552+1053140824+1053142417+1053437625+1053990257
2604+1054605524+1055045820+1055185682+1055091888+1054982611+1055051109
2595+1055259150+1055369383+1055258768+1055068759+1054959481+1054931955
2587+1054984013+1055162616+1055359316+1055361355+1055206455+1055163317
2578+1055301459+1055394552+1055314394+1055221492+1055294323+1055509373
2570+1055757748+1055980254+1056092271+1055961329+1055614891+1055319364
2561+1055284064+1055415006+1055501918+1055477131+1055385568+1055332171
2553+1055496566+1055912393+1056255072+1056164974+1055737613+1055383529
2544+1055291965+1055327647+1055373589+1055502746+1055823378+1056299675
2536+1056738760+1056902645+1056672238+1056141780+1055515554+1054936988
2527+1054485223+1054286549+1054478151+1055019186+1055631267+1056022117
2519+1056192755+1056446865+1057012432+1057697343+1058064745+1057940494
2510+1057596349+1057409463+1057478151+1057648344+1057787696+1057896337
2502+1057994909+1058075067+1058147070+1058226081+1058290691+1058321722
2493+1058341539+1058379897+1058475093+1058665739+1058897420+1059040150
2485+1059079592+1059149300+1059272213+1059262273+1058995929+1058606226
2476+1058285912+1058065765+1057915006+1057923099+1058197089+1058620881
2468+1058910992+1058974074+1059030082+1059248255+1059473692+1059532185
2459+1059548561+1059625597+1059466937+1058751759+1057720601+1056985033
2451+1056846955+1057106098+1057450816+1057767816+1058081949+1058379388
2442+1058572391+1058595330+1058491086+1058407615+1058497777+1058781134
2434+1059085454+1059162872+1058911311+1058501664+1058251504+1058327903
2425+1058596158+1058785913+1058790118+1058782727+1059019951+1059485734
2417+1059809170+1059668161+1059177782+1058707985+1058480063+1058526195
2408+1058821786+1059242138+1059578445+1059768773+1059946930+1060137512
2400+1060078827+1059519505+1058619480+1057890984+1057726527+1058073347
2391+1058542061+1058725890+1058484906+1058046649+1057820257+1058068568
2383+1058745515+1059548497+1060068569+1060050600+1059663191+1059423035
2374+1059848867+1061296044+1063829752+1066818284+1069060670+1070017469
2366+1070482742+1071304968+1072184285+1072509632+1072217546+1071051113
2357+1068543338+1065345427+1062887162+1061578700+1060775718+1060090042
2349+1059684536+1059819939+1060605653+1061852181+1063049008+1063729268
2340+1063743732+1063279287+1062821214+1062747173+1062871169+1062712255
2332+1062091763+1061116294+1059838799+1058414433+1057319046+1057012050
2323+1057531611+1058519441+1059490896+1060027343+1059918193+1059273233
2315+1058506889+1058170391+1058633816+1059745388+1060924310+1061720219
2306+1062117314+1062264440+1062233218+1062099855+1061893598+1061448396
2298+1060693712+1060002429+1059803181+1060023647+1060275973+1060339946
2289+1060219008+1060099217+1060306685+1060854411+1061178611+1060886397
2281+1060457507+1060608712+1061314714+1061975221+1062217671+1062206074
2272+1062338226+1062743095+1063098453+1063141655+1063140125+1063439539
2264+1063882639+1064106227+1064068570+1064030657+1064355367+1065242649
2255+1066313441+1066770495+1066283429+1065327586+1064532123+1064115275
2247+1063940240+1063787571+1063558821+1063329816+1063261892+1063527216
2238+1064252271+1065459165+1067111134+1069024350+1070550411+1070814844
2230+1069688426+1068072203+1066985864+1066919915+1067937693+1069519699
2221+1070465921+1069911441+1068461906+1067593166+1067825357+1068053342
2213+1067016321+1065005234+1063431574+1062979045+1063125152+1063357279
2204+1063781581+1064501984+1065294899+1065953176+1066299550+1066039706
2196+1065144268+1064098645+1063248575+1062246217+1060753863+1059345617
2187+1058964835+1059673386+1060661152+1061322551+1061540469+1061285658
2179+1060888245+1061172558+1062266989+1062975030+1062451709+1061711426
2170+1062368620+1064588514+1067012434+1068134456+1067244052+1064551047
2162+1061013771+1058154333+1057619224+1059934696+1063640763+1066553788
2153+1067502239+1066667334+1065112217+1064195306+1064661981+1065911440
2145+1066668481+1066452284+1065820259+1065382002+1065228695+1065261446
2136+1065568634+1066317965+1067355623+1067994593+1067460822+1065741757
2128+1063784257+1062641017+1062539768+1062875183+1062909591+1062404749
2119+1061680650+1061054997+1060347338+1059284065+1058260043+1058030146
2111+1058559775+1058854155+1058121200+1056640634+1055358997+1054935587
2102+1055339053+1056234364+1057442278+1058795024+1059852371+1060250103
2094+1060115720+1059705946+1059014790+1058161343+1057666567+1057880598
2085+1058463305+1058740417+1058381044+1057617122+1057002237+1056974328
2077+1057487773+1058097624+1058487136+1058771831+1059185811+1059711235
2068+1060216715+1060758004+1061457507+1062114701+1062198109+1061387226
2060+1060086155+1059224297+1059381363+1060177910+1060754755+1060807323
2051+1060808151+1061178101+1061597561+1061575642+1061596669+1062825355
2043+1065400671+1067766035+1068273426+1067069717+1065792286+1065718882
2034+1066632608+1067306751+1067042573+1066639362+1067497206+1069867348
2026+1072453687+1073741823+1073351992+1072116361+1071102342+1070686769
2017+1070500838+1069940624+1068552577+1066474840+1064855941+1065036902
2009+1066706521+1067926542+1067674343+1066976433+1066882257+1066860019
2000+1065854157+1064081568+1062989367+1063333512+1064074432+1063846000
1992+1062873336+1062311337+1062308470+1062272214+1062159432+1062218945
1983+1062351098+1062589788+1063471462+1065296555+1067430365+1068805286
1975+1069029065+1068576982+1068013645+1067531486+1067135666+1066574878
1966+1065128274+1062519060+1059882701+1058642036+1058679056+1058682943
1958+1058175169+1057890666+1058237932+1058680012+1058694221+1058340583
1949+1057819492+1057273041+1056991532+1057150446+1057381809+1057160195
1941+1056610941+1056376201+1056782599+1057566848+1058234746+1058521735
1932+1058477068+1058262273+1058131522+1058457889+1059330006+1060194795
1924+1060311528+1059619097+1058806239+1058534797+1059017530+1059990959
1915+1060874801+1061242393+1061105653+1060756475+1060419850+1060093037
1907+1059704480+1059273424+1058867409+1058543845+1058358615+1058320448
1898+1058301524+1058115147+1057809361+1057745196+1058131267+1058653187
1890+1058866835+1058873462+1059127636+1059593355+1059745515+1059329879
1881+1058688168+1058266415+1058114191+1057969804+1057694604+1057482420
1873+1057577807+1057898185+1058081758+1057923608+1057602976+1057294578
1864+1056954830+1056559392+1056198936+1056034733+1056284574+1056991914
1856+1057675361+1057604824+1056646305+1055486498+1054873780+1054999751
1847+1055671983+1056620499+1057386843+1057429916+1056787123+1055983758
1839+1055426730+1055200975+1055123111+1055025366+1054948968+1054956932
1830+1054953555+1054898948+1055004275+1055394552+1055837715+1056051173
1822+1056145285+1056432083+1056937180+1057340710+1057405576+1057255837
1813+1057112598+1057001600+1056813885+1056526322+1056245132+1056077934
1805+1056033714+1056067421+1056215630+1056565000+1056975602+1057146241
1796+1057075322+1057102657+1057442214+1057809934+1057790245+1057483313
1788+1057221939+1057167141+1057273105+1057322996+1057134580+1056786868
1779+1056507398+1056376392+1056316561+1056303753+1056383210+1056490512
1771+1056449223+1056240672+1056005805+1055861801+1055874481+1056113872
1762+1056571053+1056968976+1056972671+1056587938+1056064999+1055611514
1754+1055309105+1055264311+1055597751+1056104951+1056348993+1056300631
1745+1056270874+1056420167+1056619606+1056621327+1056295852+1055755072
1737+1055185173+1054655926+1054233598+1054124512+1054405639+1054863075
1728+1055200019+1055288397+1055208111+1054966936+1054434312+1053665611
1720+1053051618+1053127188+1054011921+1054956805+1055392768+1055460118
1711+1055445591+1055560858+1055903982+1056394170+1056789671+1056933739
1703+1056917746+1056843896+1056651147+1056386205+1056358169+1056634580
1694+1056854473+1056821849+1056748063+1056840200+1057027278+1057141462
1686+1057228183+1057434249+1057615019+1057548688+1057275399+1056844661
1677+1056290181+1055803498+1055720473+1056121900+1056729011+1057173513
1669+1057194157+1056919403+1056653122+1056501345+1056396018+1056222384
1660+1055991914+1055805601+1055678355+1055556015+1055448522+1055378686
1652+1055088193+1054451962+1053619096+1052647578+1051425646+1049890536
1643+1048260423+1046859823+1045922076+1045456675+1045340771+1045559007
1635+1046125721+1046850074+1047631711+1048560028+1049695685+1050893531
1626+1051914622+1052724932+1053372760+1053696259+1053549643+1053019695
1618+1052141142+1050774569+1048953299+1046991338+1045241625+1044133239
1609+1043946352+1044377345+1044765901+1044765073+1044494141+1044253285
1601+1044235890+1044399392+1044525427+1044333634+1043488343+1041479039
1592+1037444885+1030112272+1018309542+1002361150+985480810+973298125+970785190
1582+978409507+991412632+1004119466+1014194593+1022164902+1028447241+1032817128
1572+1036054417+1039283486+1042709064+1045435839+1047043078+1048019885
1564+1048704032+1049108072+1049233597+1049100489+1048723084+1048243728
1555+1047689822+1047019184+1046317641+1045700718+1045168093+1044668539
1547+1044217029+1043860842+1043578568+1043315729+1043295594+1043933226
1538+1044797633+1045382953+1045975472+1046878302+1047752330+1048033202
1530+1047943550+1048055057+1048577359+1049301521+1050078315+1051075639
1521+1052247106+1053008799+1053025875+1052535051+1051912902+1051404364
1513+1051026130+1050690205+1050286548+1049431061+1046920611+1042020011
1504+1036371545+1031010960+1026472090+1024194786+1025874218+1031269658
1496+1037152735+1040794892+1042475280+1043454572+1044439280+1045269406
1487+1045401367+1044786037+1043613359+1041932461+1039991337+1038442910
1479+1037703455+1037390151+1036689692+1034990061+1032323755+1029677520
1470+1028162036+1027988275+1029118644+1031573978+1034619983+1036753729
1462+1037466741+1037456737+1037625528+1038626101+1039840706+1039984774
1453+1039116607+1037641648+1035745446+1033703582+1031903148+1030442845
1445+1028832292+1026222186+1022030965+1016381862+1009416842+1000047527
1436+986376311+968288630+946844506+921967094+894836911+870198826+852465102
1426+841708250+836864678+838398067+847241257+865009836+893264844+926121804
1417+952349860+969893957+982807431+993339356+1001711730+1007794884+1011724030
1407+1013721801+1013468200+1010135588+1003406837+993711664+982410336+972215673
1397+965218157+961296402+960272507+962955954+969567081+979433274+991063136
1387+1001338339+1006802403+1006249453+999892436+987860701+971233068+953749694
1377+941525211+940468119+951557773+967587279+979394597+983442514+980910272
1367+975043188+969447991+966316475+965773082+966760912+968946716+972837758
1357+977867707+981788442+982488965+980086836+976450860+972964558+969319406
1347+964267666+957293406+949362284+942010046+936078414+931350237+926648885
1337+919898979+908529089+890527619+866174357+839417947+816856517+804208304
1327+803181669+811410804+824857793+840033660+854569601+866843976+876012260
1317+882691757+889076937+897681820+909662198+924109315+939028651+952869294
1307+964906445+974817050+982461821+987877650+991229059+992710963+992423274
1298+990358599+986634053+981739124+976519612+971986923+969109326+968563958
1288+970465195+974246386+978856238+983176999+986377203+988038794+988071673
1278+986558037+983713446+979930789+975699808+971425817+967338713+963483034
1268+959694643+955640863+950941359+945240389+938239304+929809074+920028391
1258+909001754+896789632+883699212+870522453+858277962+847674416+838846263
1248+831504921+825205888+819472676+813853011+808070928+802229586+796872887
1238+792762462+790343257+789064169+787067354+782047600+773329043+763244868
1228+755639221+752547147+752645528+752834072+750701027+745528221+737879181
1218+728859044+719516363+710464685+701883760+693836033+686495327+680029606
1208+674432052+669634548+665700241+662812067+661153534+660814105+661724772
1198+663710181+666567261+669894011+672825450+674184186+673154939+670008322
1188+666215789+663685267+663673670+666334879+671124672+677455055+685111613
1179+694299076+705266327+717808894+731149410+744240021+756106661+766114947
1169+774278451+781343063+788146366+794528233+798873206+798844979+792667904
1159+780019372+762141262+741176875+719088938+696929700+674974616+653441349
1149+633219540+616199273+604936559+601717557+607376281+620239863+635968489
1139+649315440+657162964+660192594+661579876+664223116+669103071+675546236
1129+682341828+688458116+692877131+694185020+690948814+682767660+670858201
1119+657785877+646865268+641298617+642928093+651502264+665304740+682346034
1109+700911605+719590531+737395238+753910407+769218235+783627058+797287568
1099+809928071+821002497+830091387+837121145+842385324+846555963+850541882
1089+855091775+860467462+866463130+872641608+878547815+883833658+888276950
1079+891660983+893567954+893339778+890419807+884879154+877685447+870525512
1069+865292810+863382270+865123828+869886350+876832318+885515639+895690231
1060+906768671+917768100+927787218+936382289+943548787+949498961+954403830
1050+958255366+961038660+962988833+964465894+965533500+965775949+964478511
1040+960956909+954940277+946942569+938441165+931586187+928243444+928719167
1030+931257271+932872411+930644553+922369796+906688003+883547753+855139564
1020+826180847+802403155+787859058+783230855+786377664+794156944+804021863
1010+814837082+826697796+839749475+853148421+865537426+876517931+887138999
1000+898689594+911247709+923552860+933953589+941101099+944063825+942762499
990+938833290+935459515+935460089+939378530+945632386+952257468+958212548
980+963390133+968002470+972021969+974927729+976003364+975027640+972605185
970+969765182+967257726+964921546+961464428+955436645+947047832+938510937
960+931973214+927816656+925687180+926271862+930916695+939858140+951623467
950+963970928+974990237+983645968+989881856+994345474+997789975+1000548419
941+1002537077+1003692360+1004157060+1003925443+1002434618+998521657+990942771
931+979790608+968022095+960729752+961541082+969606777+980607163+990433277
921+997468770+1002022677+1004846751+1006596018+1007979796+1009639857+1011768251
911+1014113861+1016364212+1018325153+1019847646+1020899960+1021679876
902+1022404420+1022997004+1023185993+1022922262+1022539058+1022409518
894+1022515354+1022435196+1021701859+1020032303+1017223203+1013029052
885+1007377718+1000702873+993681589+986345280+977977303+968744155+961119392
875+958465319+961995587+969935120+979524902+988835532+996850253+1003153810
866+1007968135+1011818525+1014950678+1017370648+1019173185+1020354847
857+1020567922+1019632851+1018246142+1017668087+1018485406+1019946665
849+1020813430+1020756593+1020599335+1021256593+1022814577+1024651904
840+1026140307+1027130176+1027896266+1028713776+1029556646+1030175991
832+1030333822+1029938575+1029062954+1027838919+1026370778+1024851088
823+1023612207+1022807122+1022181724+1021416909+1020589204+1020138331
815+1020464124+1021591689+1023104242+1024416591+1025162736+1025234037
806+1024592391+1023421115+1022342741+1021972599+1022311072+1023031093
798+1024111379+1025628201+1027209697+1028279533+1028696126+1028858417
789+1029288581+1030147955+1031086020+1031623041+1031550466+1030837836
781+1029547534+1028043201+1026753281+1025548234+1023810945+1021142409
772+1017644893+1013391738+1007390908+996583272+975672664+938823031+884485627
762+822082528+772897732+758282971+783051615+831743292+882498179+922767847
752+951439703+971020503+982412184+985602640+981229056+970889242+958209617
742+949636465+951218408+963124999+979045100+991917921+998870962+1000778188
732+999665279+997537204+995926715+995263086+995028665+994460167+992163748
722+985099517+970160811+949231087+931126330+924606257+930308373+941095620
713+948316470+947047450+937320036+922401974+906073055+891771280+884299696
703+888857745+905617594+927569810+945878085+955956207+957852920+953276647
693+943535406+929185460+911080129+891872592+876313012+869871631+876001619
683+892588726+910833537+920273198+916467475+904013796+892923376+891489070
673+900382598+913900634+925533108+928578158+919048144+902238149+882165313
663+859280001+836760370+820050732+811763677+810626300+814156185+820395322
653+828261324+837162498+846793698+857076674+867587063+877396101+885810019
643+892634094+897776251+901513668+905232542+911021635+920163539+932236308
633+945562742+958138634+968198787+974722301+977953791+979005467+978435695
623+975675659+970448373+963795447+956302836+945392741+925844819+894720624
613+856236608+821530278+802393342+803177400+818561309+839069980+857744764
603+872144411+882352264+888990598+893211448+896990282+901989391+908291291
594+914681697+919807989+923012590+924590773+925386555+926150987+927461043
584+929762305+932690431+934558406+933474106+929242297+923841123+919937592
574+918782119+919752681+921796456+924126838+925164432+921849088+910960210
564+891547436+866643326+842245907+823385319+811488540+806122730+807395064
554+815121331+827355691+841473510+855847223+869660340+881925158+891486649
544+897831432+901365522+902650536+901739359+898448101+892703228+884454533
534+873999770+862674229+852554436+844906861+838924701+832459044+824802103
524+818618783+817719394+823712897+835457898+849744253+862060427+868673848
514+868680539+863422477+855122551+846509958+839686075+834331161+828682950
504+823124264+821237491+826362445+837669826+851085275+863412728+874500153
494+886408210+900630018+916293715+931492011+945186866+956677884+964600596
484+967905363+967149468+963191458+954924347+940589694+922292060+907228847
475+902671244+910325573+924599885+937441483+945774734+951599637+957590909
465+964414792+970625511+974513495+976453727+978886186+982834256+985303417
455+982495209+972519802+954317045+928508067+899082674+872885586+857474788
445+857519710+872412985+896487351+921675136+942862091+959519608+972448246
435+981953792+988977370+995309218+1001503880+1005744291+1006093469+1003310112
425+1000093595+998028729+996538796+994900399+994043320+995743715+999633738
415+1003652536+1006187964+1006959660+1007600288+1009854334+1013042815
407+1014916206+1014520322+1012735500+1010528541+1008689048+1009489481
398+1015664008+1024020962+1027169618+1023647061+1016912320+1010715874
390+1007756016+1008953544+1012934875+1016590541+1016320692+1010273412
381+1000122205+989580722+981118568+974526684+970328964+972801694
##END=
