##TITLE=X8442
##JCAMP-DX=5.0
##DATA TYPE=LINK
##BLOCKS=1


$$ === CHEMSPECTRA SPECTRUM ORIG ===
##TITLE=X8442
##JCAMP-DX=5.00
##DATA TYPE=INFRARED SPECTRUM
##DATA CLASS=XYDATA
##ORIGIN=ComPlat
##OWNER=
##XUNITS=1/CM
##YUNITS=TRANSMITTANCE
##XFACTOR=1
##YFACTOR=7.9601592e-010
##FIRSTX=3997.453
##LASTX=373.96442
##MAXX=3997.453
##MAXY=0.8547155850778222
##MINX=373.96442
##MINY=0.5502272242963995
##NPOINTS=2559
##XYDATA= (X++(Y..Y))
2559I82605074I82745696I82807246I82854869I82727051I82284144I81665945I81150630
2551I80896716I80903305I81076200I81260851I81343892I81345464I81329066I81275078
2543I81119256I80867289I80661822I80762234I81348984I82244308I82907584I82806947
2535I81861753I80626778I79942686I80160733I80803941I81148458I81025208I80901733
2527I81180357I81638090I81720379I81262723I80630373I80221984I80194953I80438683
2519I80598923I80463693I80250213I80238907I80361708I80335575I80048490I79720896
2511I79690043I79976681I80199970I80015768I79612621I79534822I79986116I80656877
2503I81123074I81287283I81410085I81639288I81819372I81817350I81675455I81410609
2495I80951974I80362906I79921643I79820934I79967172I80245421I80574738I80681515
2487I80312587I79663763I79402586I79979374I80853511I81305030I81375191I81337452
2479I81140746I80820265I80821613I81315438I81693800I81422065I80734304I80190984
2471I80047442I80060845I79924940I79662715I79457694I79376379I79413219I79531827
2463I79614265I79550921I79382444I79235232I79160878I79165071I79428195I80019437
2455I80536924I80730935I80636737I80356541I80049014I79964922I80203938I80467436
2447I80368671I79983346I79738492I79770990I79927636I80113635I80316930I80455007
2439I80339169I79861069I79227517I78862112I79035603I79510112I79796373I79908392
2431I80129659I80533476I81001846I81335802I81254487I80589189I79561778I78672369
2423I78208271I78235227I78765818I79286524I79133622I78696255I78866380I79877692
2415I81173019I82265649I83169734I84033835I84714632I84795576I84103621I83056443
2407I82163888I81479497I80890726I80495441I80320974I80158861I79974959I80085705
2399I80754746I81694549I82323530I82523231I82544946I82499944I82401703I82438918
2391I82854046I83431061I83505266I82847007I82036145I81974745I82872466I83579396
2383I83329900I82720013I82205219I81562385I80680466I79831941I78974804I77903290
2375I76892427I76708600I77410214I78157428I78739236I79477765I80278368I80756393
2367I80852762I80847371I80785371I80551675I80396002I80658527I81165231I81447973
2359I81377962I81269387I81344116I81240934I80580129I79633887I79007751I79175105
2351I80101879I81052688I81327493I81168301I81177511I81507427I81977515I82473737
2343I82951538I83186133I82866326I82127048I81417647I80959614I80787842I80902332
2335I81137002I81084212I80491248I79830518I79959085I80718580I81375416I81710498
2327I81935134I82234724I82482198I82505261I82384032I82319561I82308704I82275308
2319I82380438I82636373I82488188I81635544I80642425I80452086I81469388I82845435
2311I83819307I84568543I85225829I85604790I85530810I85023132I84200065I83271120
2303I82600653I82435474I82617129I82889984I83286620I83762699I83859592I83433757
2295I82841466I82518963I82645356I82987479I83118817I82825217I82132739I81266916
2287I80670957I80661297I81220042I82158797I83092759I83600287I83656218I83546374
2279I83418032I83182161I82861009I82646706I82541127I82356177I82161417I82289834
2271I82832855I83402607I83566292I83527355I83671122I83920917I84101899I84342634
2263I84808080I85234215I85183597I84737766I84461841I84605006I84803435I84698383
2255I84551546I84764052I85020736I84848515I84330654I83917847I83871423I84038252
2247I84226195I84518300I85014296I85501532I85733132I85801197I85870385I85799099
2239I85391535I84883633I84751547I85149977I85735977I85993410I85708871I85137397
2231I84695163I84580299I84702576I84862667I84920099I84801416I84538667I84401414
2223I84754168I85657804I86777316I87687841I88203228I88452873I88645464I88799640
2215I88794099I88616337I88352913I88017756I87611989I87214457I86841708I86423960
2207I86031524I85849868I85877046I85882066I85760612I85754847I86206063I87149762
2199I88189603I88831164I88935395I88732548I88451828I88136136I87835352I87753584
2191I88050251I88543555I88747749I88360027I87714572I87516144I87997611I88596045
2183I88698254I88411618I88239846I88292636I88255346I87951788I87507383I87115393
2175I86993415I87358973I88100572I88710983I88867405I88841871I89011621I89281933
2167I89368943I89255352I89096983I89031464I89290994I90087554I91129641I91681347
2159I91445778I90977712I90894297I91187372I91608190I92068095I92349265I92099844
2151I91435221I90990141I91170974I91780337I92364166I92665178I92764318I92865853
2143I92988205I92936988I92595466I92152484I91959596I92167981I92630360I93192025
2135I93772631I94052231I93585438I92497375I91609763I91629681I92512501I93624449
2127I94266010I94243097I94068181I94296935I94712961I94601991I93766644I92812465
2119I92427438I92748668I93456122I94174883I94734302I95226554I95783203I96230154
2111I96226110I95812255I95449019I95406859I95512816I95563883I95627305I95831799
2103I96069763I96046251I95693348I95462871I95921803I97006122I97992424I98284151
2095I97976325I97582463I97380815I97163442I96645880I95980957I95645351I95891852
2087I96515217I97082348I97278006I97126601I96913197I96801703I96658834I96413681
2079I96346287I96709677I97260335I97471717I97109829I96390918I95695070I95302254
2071I95300385I95576837I95914989I96160139I96329967I96553630I96876731I97164340
2063I97271716I97279279I97440568I97876437I98380895I98581869I98347873I98003057
2055I97999837I98358206I98595722I98275765I97511104I96899869I96947941I97493504
2047I97848133I97623422I97168384I96993617I97080925I97043561I96766809I96560818
2039I96680774I96932216I96936185I96667071I96447299I96428582I96444981I96400128
2031I96373846I96280619I95864745I95183948I94750775I95000046I95829178I96772126
2023I97411290I97536338I97173326I96639962I96340522I96345242I96387174I96335733
2015I96336107I96415403I96364411I96137154I96021242I96274482I96798782I97255842
2007I97380740I97159773I96827910I96681223I96755577I96678003I96045278I95028201
1999I94332353I94394202I94858001I95062345I94820337I94473197I94361480I94533177
1991I94866762I95204390I95388742I95386720I95371594I95518207I95743741I95798627
1983I95608511I95365155I95283762I95392111I95575863I95712667I95743142I95729589
1975I95876501I96320832I96867746I97111551I96841164I96185975I95436436I94886830
1967I94715654I94799521I94744485I94295437I93651555I93230737I93204679I93432161
1959I93759531I94122168I94352645I94213745I93707490I93116996I92698125I92534440
1951I92662929I93087045I93643244I94040101I94127784I94030891I93923964I93777576
1943I93516399I93331898I93518346I93975556I94200267I93859119I93151515I92548143
1935I92335113I92502392I92896104I93281277I93398091I93196068I92903892I92705313
1927I92547544I92379591I92284570I92321335I92494230I92813213I93121489I93050953
1919I92432006I91604746I91116986I91149930I91364460I91335183I91017547I90676325
1911I90498039I90492647I90642105I90899164I91101411I91067940I90786993I90457005
1903I90342965I90584299I91147537I91890408I92590899I93016809I93069673I92786706
1895I92244585I91583480I90945289I90224806I89120195I87521310I85614299I83661612
1887I81928916I80685633I80072077I80081736I80666314I81678674I82833676I83928031
1879I84996176I86149008I87369531I88463359I89126033I89120944I88465456I87369381
1871I85900561I83766589I80567175I76352998I71818269I67822145I64817711I62897671
1863I62224886I63065400I65365374I68544350I71823139I74696909I77064948I78998840
1855I80559987I81889383I83242741I84701977I85955896I86603223I86632949I86415502
1847I86254812I86069188I85506025I84294412I82428360I80001691I76939526I72933365
1839I67638168I61020537I53567260I45967221I38549811I31352020I24823121I20073340
1831I18171495I19335185I22822661I27376185I31721247I34884872I36280237I35713405
1823I33446752I30132246I26391830I22328012I17475722I11199913I03074001H93056577
1815H81656967H69914264H58908216H49206254H40900857H34048410H28872569H25615046
1807H24413991H25358287H28510081H33708757H40341142H47503437H54551099H61406545
1799H68228145H74896617H81004549H86335988H91131670H95730945I00129021I04104257
1791I07595174I10673291I13321152I15523260I17441053I19242036I20816061I21806332
1783I21906071I21115427I19838592I18758844I18466143I19118711I20508684I22371966
1775I24466099I26528633I28462975I30411993I32411554I34203851I35607152I36768970
1767I37850069I38720459I39155055I39170406I39015706I38818326I38292677I36922172
1759I34461883I31157260I27459001I23612032I19520360I14991921I10178043I05789174
1751I02808031I01956211I03389240I06757209I11442595I16782720I22205882I27283410
1743I31755466I35568215I38853594I41760685I44289489I46387665I48188573I49966043
1735I51809258I53509828I54848132I55858024I56706924I57446951I58039990I58532842
1727I59033331I59571709I60134497I60749851I61416571I62023238I62437841I62652444
1719I62821819I63151435I63690937I64263684I64654775I64810146I64814417I64793750
1711I64891688I65225722I65770992I66328090I66701360I66927419I67222887I67702710
1703I68258313I68706537I68905864I68772655I68355730I67872239I67560444I67516939
1695I67676281I67869318I67939929I67903987I67946818I68200207I68614212I69097629
1687I69626197I70107593I70349526I70338519I70354018I70603439I70930659I71057579
1679I70958814I70871430I71017968I71359340I71618795I71580307I71301833I70990038
1671I70800296I70811827I71026429I71341893I71594759I71670236I71640884I71789144
1663I72293976I72901916I73162869I72929846I72420521I71957097I71843880I72221943
1655I72870467I73379568I73585409I73626817I73641119I73647109I73666278I73730824
1647I73789903I73775826I73737937I73778821I73928728I74192451I74575755I74935098
1639I74996948I74675793I74197318I73835504I73712104I73866204I74296607I74853480
1631I75218589I75137046I74709039I74356061I74402261I74767295I75132853I75289349
1623I75233714I75058124I74842473I74612446I74387435I74263136I74348049I74604134
1615I74889946I75175159I75563405I76096017I76700363I77303287I77846008I78235449
1607I78427216I78481054I78444064I78294906I78088091I78027963I78263981I78657094
1599I78885998I78802883I78531522I78196814I77807969I77457762I77342673I77492056
1591I77695876I77756827I77705236I77750912I78046159I78520365I79033060I79576002
1583I80130932I80508770I80583271I80519103I80579605I80862571I81300163I81788219
1575I82249849I82612262I82804401I82847232I82860560I82891635I82909007I82982163
1567I83170630I83299574I83229413I83199162I83449556I83690441I83441469I82800358
1559I82370030I82380584I82359846I81895448I81291626I81065717I81146886
1552I81116785I81051940I81510572I82629110I83775503I84301825I84187411
1545I83684825I82883398I82015853I81638764I82037194I82837048I83469474
1538I83677337I83499275I83137312I82859212I82801481I82875012I82884970
1531I82704064I82453669I82524654I83155882I84030315I84599693I84729308
1524I84715156I84809054I85025977I85281389I85455407I85403516I85080190
1517I84650910I84424701I84660420I85395654I86410110I87350213I87889863
1510I87817228I87154180I86310668I85915462I86222764I86774470I86897870
1503I86460354I85911194I85704678I85918981I86302731I86510897I86404120
1496I86169151I86012355I85864469I85613176I85424407I85554022I85995058
1489I86492926I86791468I86806069I86679898I86654814I86808016I86946242
1482I86804422I86329463I85775364I85514336I85720552I86242831I86779637
1475I87099369I87088736I86766758I86416101I86517262I87203151I87872039
1468I87782487I87001128I86285138I86074726I86119057I86125347I86252715
1461I86752228I87468671I88025394I88327302I88516673I88563547I88348795
1454I88053099I87981590I88055720I87880129I87282298I86551332I86150730
1447I86246051I86519733I86514342I86109922I85574314I85275623I85430173
1440I85978435I86593863I86886039I86681543I86202097I85954024I86255710
1433I86856088I87213185I87101016I86777765I86662901I86967957I87477581
1426I87656092I87167209I86277350I85553198I85226503I85037509I84605608
1419I83717472I82328771I80571218I78754736I77098718I75479092I73699899
1412I71880870I70256077I68727204I66898740I64502098I61766254I59363546
1405I57824190I57149158I57205841I58004722I59370061I61026378I63190896
1398I66240257I69637205I72070014I72674734I71633396I69975132I68788080
1391I68178118I67531091I66728990I66310269I66781181I68005672I69137464
1384I69380967I68822000I68200881I68040641I68335738I68834430I69306390
1377I69738740I70413772I71618121I73275786I75055128I76780334I78504491
1370I80153770I81428876I82279501I83082276I84074494I85055180I85851665
1363I86599703I87397236I88116521I88666805I89128657I89568045I89909267
1356I90084930I90258124I90763933I91777042I93129501I94452159I95374515
1349I95689677I95491924I95067961I94652157I94450511I94743587I95614875
1342I96636820I97092831I96591818I95481591I94644297I94790236I95940598
1335I97591748I99235485A000631371A001692705A002289638A002344375A002069270
1328A001765937A001407417A000869638A000429426A000423583A000654512A000778885
1321A000940549A001392588A001855342A001866274A001488436A001163687A001096970
1314A001204047A001444407A001693529A001251891I98730054I92359147I80229020
1307I60599868I32954200H99645379H66566511H41178511H28461335H28229061
1300H36616900H49828349H65735504H82635333H98448440I11765846I22552945
1293I31402264I38885264I45509338I51415321I56265964I59830340I62174343
1286I63343050I63825194I64995249I67819674I71480793I74444493I76473181
1279I78345449I79918426I79951672I78177795I76231847I75894743I77209688
1272I78764170I79377577I79214117I79434560I80827753I82768834I83757083
1265I82960373I81009858I79345828I78886073I79267730I79788062I80699261
1258I82373998I84070675I84646642I84006429I83332521I83950719I85984125
1251I88272793I89662767I89850937I89028394I87684845I86693526I86575068
1244I86954251I87415058I88073691I88825997I89060293I88499747I87609068
1237I87020222I86965860I87268142I87616257I87805550I87796789I87717343
1230I87860586I88431611I89253929I90000470I90574861I90940572I90916760
1223I90546036I90268011I90317132I90281040I89680663I88807502I88522064
1216I89219485I90440008I91543570I92172551I92008791I90860901I89272574
1209I88403906I88914953I90271531I91424962I91970079I92337883I93002132
1202I93979075I95091847I96165084I96837794I96705034I95816898I94756615
1195I94252831I94765900I96106154I97385158I97740757I97199983I96435321
1188I95669237I94458149I92742753I91455063I91559519I92762518I93841146
1181I94209402I94110936I93576452I92616208I92103735I93136764I95775790
1174I98996248A001176416A000704755I97554908I93996671I92437772I93159527
1167I94826627I96021691I95921878I94840779I94042198I94106144I94390833
1160I94591508I95072753I95301807I94128233I91871763I90293769I90298637
1153I91161015I92165060I93593899I95824161I98411595A000411303A001302587
1146A001312396A000862375A000078545I99223655I99151397A000324596A001643061
1139A001325126I99015791I96237492I94669681I94655529I95314312I95553175
1132I95117905I94900982I95824985I97431133I98258169I97793621I97223045
1125I97731322I99093890A000655336A002187204A003223900A003156659A002276684
1118A001376043A000612804I99783373I99113059I99076144I99881764A001333587
1111A002882004A003988786A004492495A004369694A003518623A002101618A000563459
1104I99210027I98115525I97267074I96560590I95929441I95566504I95630675
1097I95815026I95624535I94927339I93979899I93104117I92512051I92097897
1090I91181678I89039701I85852563I82708481I80760287I80377507I81054560
1083I82018399I82690960I82863930I82856367I83298975I84405907I85720702
1076I86821868I87873465I89174632I90583550I91702313I92249523I92273563
1069I92300594I92968886I94338642I95787546I96713571I97040790I96974523
1062I96714394I96450971I96297619I96200052I96096720I96159468I96706008
1055I97667750I98480555I98765023I98748175I98994676I99693968A000332459
1048A000362635I99934553I99565476I99392356I99210176I99005907I98993777
1041I99250836I99587415I99688427I99478916I99347204I99646869A000244625
1034A000684089A000660128A000248370I99715233I99390335I99600744A000306251
1027A001001200A001262000A001082144A000786373A000661251A000656159A000541969
1020A000236012I99886481I99666412I99585166I99454506I99033912I98360453
1013I97772805I97447382I97138208I96509526I95626107I94976010I94895515
1006I95192556I95445050I95330860I94785818I94211498I94161255I94528310
999I94808432I94807683I94729734I94796975I94926216I94897163I94678742
992I94412173I94146953I93764098I93173605I92568884I92248775I92114592
985I91883519I91510174I91060977I90484186I89815070I89437531I89639776
978I90148804I90484710I90487031I90352250I90281936I90345810I90550753
971I90855884I91219944I91689958I92334139I93058666I93562899I93589256
964I93251029I92908085I92854771I93185286I93649159I93988959I94228571
957I94385517I94416142I94375558I94408055I94545457I94625278I94464064
950I94113033I94056874I94654328I95487581I96052167I96255385I96289158
943I96407991I96776618I97365614I97966890I98416687I98627545I98425448
936I97732146I96766207I95862050I95301658I95051413I94901506I94764103
929I94679341I94694841I94867882I95333406I96084739I96823867I97300170
922I97367337I96989349I96401099I96091029I96285115I96730793I97137684
915I97500471I97996467I98667306I99445969A000293147A001205170A002128724
908A002893161A003303047A003303867A003115625A003285750A003888673A004308218
901A004444573A004606460A005194034A006160568A007070045A007644964A007796066
894A007621676A007458590A007795095A008687949A009492671A009875750A009985822
887A010066616A010238163A010419145A010598629A010980585A011568683A012034653
880A012254048A012475015A012984115A013656301A014184795A014529836A014805390
873A015102134A015408538A015614080A015557996A015077948A014033166A012221251
866A009265114A004686581I98206278I90196352I81771674I73681553I64794199
859I52396457I34940208I14859161H98133953H90443460H93155941I02711886
852I14338379I25971011I37920156I49145448I57415951I63169930I68181862
845I73187279I77430431I80310416I82198183I83459440I84119046I84186362
838I83952891I83448430I81017495I75555094I68347269I62562365I60950376
831I63265925I66630225I68065051I65731905I58562419I46279839I30009669
824I16068601I12402315I16817164I25328552I37146584I50258819I60687477
817I67576018I72789523I77698047I82340899I86273307I89685679I93121112
810I96467819I99362105A001966761A004378005A006340049A007791723A008933102
803A009911916A010994438A012847761A015158518A016418053A016621798A016519064
796A016729473A017682754A019232369A020378013A020254838A018711438A015498542
789A010192562A003249056I95814652I88077135I79477989I69347124I56671731
782I39995269I18188343H92466233H68409950H54676818H56790796H69984051
775H83653608H93750328I01863586I09765458I17632069I24218176I28681171
768I31199866I31497509I27493370I17754645I05116467H91579145H77248780
761H63116849H51184103H43505591H41215950H43760254H49506371H56637370
754H63329505H67965920H69061245H65860031H60479921H56471588H56336432
747H62373004H75026907H90642413I05115044I17074672I26358808I32954200
740I37563359I41340016I44751790I47336153I48759598I49074687I48368356
733I46514135I42872334I36212397I25559178I12581051I02703501I00492407
726I05655144I14636022I22612099I25253823I20083823I06870052H88296238
719H68577903H52001255H43534345H46533009H57940035H71058560H81904292
712H89740648H95437795I00430333I05875737I12378953I19887565I27443052
705I33953231I39130567I43156873I46236709I48733839I51248488I54312154
698I57881696I61348431I64267727I66670285I68780143I70747057I72615056
691I74362500I75949105I77396062I78751666I79985442I81048196I81993539
684I82955955I84107291I85573263I87244259I88826821I90121548I91121853
677I91925152I92580715I92943877I92627963I90912867I86681995I79059492
670I68747421I58629510I52462874I52287583I57070086I64059340I70870083
663I76362286I80409705I83264306I85122047I86086859I86268215I85788467
656I84741438I83247830I81560366I80026700I78931449I78411567I78466453
649I78952041I79552568I79858598I79604384I78823250I77663903I76140346
642I74271373I72388773I71051064I70624930I71061173I72031152I73175373
635I74237378I75085978I75720426I76240908I76728967I77153152I77417851
628I77458660I77263451I76817923I75993658I74542434I72329543I69555138
621I66606414I63704564I60805036I57837967I54896582I52107350I49438748
614I46815597I44327901I42112465I40122114I38221243I36431567I34883824
607I33579961I32366552I31149398I30008097I29075183I28464547I28364734
600I28960244I30154036I31620460I33210584I35043391I37123821I39125254
593I40646040I41524817I41809356I41488800I40392875I38392191I35577500
586I32179205I28436018I24616830I21076340I18189316I16177700I14943324
579I14042309I12921075I11370636I09843785I09219970I10179241I12905276
572I17292569I23054036I29599409I36212472I42468738I48279176I53570405
565I58149538I61853188I64696932I66836816I68316716I68811143I67805222
558I65087574I60592231I53418701I41994905I26801566I12735001I06648635
551I11462887I23644979I36863168I46923197I52990020I55904225I56787943
544I56842754I57366681I59354561I62973449I67550035I72155223I76156220
537I79280905I81422589I82489236I82295900I80513187I76900290I71847549
530I66683314I63125827I62165507I63496776I66076048I69137764I72638193
523I76846227I81704058I86726248I91422042I95533482I98872249A001273160
516A002816110A003865910A004768570A005594707A006186251A006350835A005984528
509A005136524A004159584A003778901A004722972A007127102A010425584A013856003
502A016931646A019490925A021560947A023262116A024714539A025972875A027072919
495A028093291A029108721A030173944A031430635A033076768A035115716A037323065
488A039551306A041828367A044117110A046305141A048469061A050814861A053337450
481A055846860A058327591A060969086A063818971A066682857A069420049A071967048
474A073741823A072764955A064770455A043250239A002742055I45144154H82871425
467H33151064H07523676H06411277H22178263H45481116H69409581H90496100
460I07969870I22408582I34599360I45032959I53921811I61419266I67772949
453I73301469I78247957I82687440I86603522I90042177I93146499I96085787
446I99002837A001985481A005001371A007892734A010476053A012648958A014402168
439A015723627A016527675A016719290A016225839A014843503A012265354A008623703
432A004988417A002986160A003665684A006672439A010522927A013528483A014268435
425A011583134A005202794I96882572I90131882I87878332I90262395I94906073
418I99174759A001985331A003687249A004719452A004477969A001211085I93359379
411I81855688I70886855I65182520I66274848I71995435I79280309I86555899
404I93651403A000564208A006895952A012194744A016370355A019601970A021969710
397A023277317A023084654A020826387A016036543A008604157I99051508I88941235
390I80929139I77719163I80363202I87469569I96040860A003068152A006649077
383A006002424A000374615I87837748I65921798I34829013I00459910H73018585
376H60937055H65435094H80673061H98305500I11473145I16003083I10586357
369H97291268H81187703H68211297H62631111H65712070H75784305H89311593
362I02525140I12866488I19387672I22000493I20237024I12166747H94063396
355H62252524H17810962G70421275G35441536G24430173G37726834G66130650
348G98695850H28593796H53535744H73408404H88644199H99874433I07765526
341I12929386I16305368I19326050I23198103I28107900I33223613I36871255
334I36226324I27394231I07067656H75258956H37032851H01374711G77237259
327G69267170G76302099G93302259H14539361H35610006H53874420H68298456
320H79136176H87347001H93944788H99608389I04570302I08744640I12056450
313I14722432I17182797I19742226I22294841I24399157I25543978I25316422
306I23544642I20615312I17632743I15929851I16249056I18407737I21617713
299I25053522I28308126I31413193I34355255I36767772I38345467I39348242
292I40415039I42037736I44288590I46789539I48946645I50441073I51344935
285I51717681I51501806I50880313I50320669I50209324I50643471I51420338
278I52139173I52607989I53195859I54518669I56835267I59954788I63551662
271I67372798I71342789I75586917I80093792I84329980I87522883I89294663
264I89741614I89115253I87711727I85746685I83181266I80076420I77012608
257I74515999I72052867I67952958I60359433I48482546I33624589I19242560
250I09465947I06822054I10936565I19078351I27633394I33531440I35077011
243I30865308I17470181H90756078H52549666H14647861G92328614G93049247
236H12367729H39776556H66604100H89204217I07480538I22058524I32616347
229I37897767I37138497I32087479I27263343I27049864I32348431I40507290
222I48244732I54039895I58167808I61750679I66079567I71698615I77260456
215I78924561I70366823I45483130I04917065H57459987H14749097G91503900
208G97467165H18634403H39420808H57623373H73708817H85607493H89422788
201H80950711H58136292H24377825G89400482G65416158G60230657G73188490
194G97425683H25347205H51940004H74789017H93278143I07900907I19544995
187I29127149I37488779I45182941I52232619I58330819I63574725I68574152
180I73412065I77345815I80023481I81811509I82519787I80793383I74624726
173I62635521I46748056I33234318I28520407I34045033I46292045I60615518
166I73708585I83760976I90495118I95123293I99161955A003010795A005922678
159A007276635A007452825A007428339A007988208A009359386A011261231A013314180
152A015435419A017657595A019674450A020871164A020857761A019791788A017952617
145A015072033A010751531A005831102A002349916A001573723A002975527A005282840
138A007730775A010114538A012217731A013869556A015475030A017757183A020740426
131A023713336A026359321A028819914A030305732A028838633A023118574A014380977
124A006297896A002875190A005728889A013043868A021416431A028538370A034040532
117A038588815A042678612A046122287A048415522A049214179A048319153A045647331
110A041437051A036206099A030641039A025665349A022202882A020690033A020908753
103A022267877A024247146A026592796A029185469A031637300A032575006A029005912
96A016154405I87682824I37037186H62383562G76406106G10039308F91226407
89G19375560G72433341H28252873H74763034I09525400I35054023I54592125
82I69897483I81044602I87380314I87978969I81560213I66864446I43049272
75I10792273H75114740H45546707H30987144H34839653H53663337H79930040
68I07358785I32317731I52769128I68803505I82034498I93406403A002974176
61A011137007A018127384A022982519A025240038A026407397A028226051A030133810
54A029403968A024558267A018158530A015210708A018258422A024716560A029735680
47A031386756A031675488A033449290A037115127A040424017A041719715A042103544
40A043992437A048139894A052700007A055517019A056848288A058349756A059585853
33A058615650A057101827A058117781A059622993A058458854A054847229A051260838
26A047494289A038295814A017962576I88161149I59568714I43920187I46419114
19I65431642I92774276A016436922A032975457A046251827A056741660A062411326
12A063568724A062543787A060328725A055624770A047190357A037047661A029663722
5A027798044A030507006A035449824A044043429A059178962
##END=


$$ === CHEMSPECTRA PEAK TABLE EDIT ===
##TITLE=X8442
##JCAMP-DX=5.00
##DATA TYPE=INFRAREDPEAKTABLE
##DATA CLASS=PEAKTABLE
##$CSTHRESHOLD=0.93
##MAXX=3997.453
##MAXY=0.8547155850778222
##MINX=373.96442
##MINY=0.5502272242963995
##$CSSOLVENTNAME=- - -
##$CSSOLVENTVALUE=0
##$CSSOLVENTX=0
##NPOINTS=32
##PEAKTABLE= (XY..XY)
402.29505784206367, 0.7513754960613771
474.5381843393275, 0.6614789959393325
500.03575839718496, 0.5502272242963995
613.3583097654414, 0.7391170260168795
650.1881389601249, 0.6051557058440594
668.6030535574664, 0.630049705142088
709.6824784284595, 0.6307061906155349
835.7538168256447, 0.6123489140533465
869.7505822361218, 0.5766579506363542
890.9985606176697, 0.6866680974432872
905.1638795387021, 0.6853196018979156
951.9094319781075, 0.7683006516257185
1031.2352179358872, 0.6419162145595299
1120.476727138389, 0.7658990612468715
1154.473492548866, 0.7217067473062693
1187.05372606724, 0.7237535709019224
1223.883555261923, 0.7389931078305653
1317.3746601407347, 0.7580360764863214
1388.2012547458949, 0.6714667676867724
1402.3665736669273, 0.7168062918111194
1432.1137434010943, 0.6816574327479975
1446.2790623221263, 0.669621288357924
1474.6097001641906, 0.6803363559709903
1538.3536353088348, 0.7262867681848548
1583.6826558561374, 0.7088071700198832
1903.8188634714793, 0.7823753354737656
2215.455879734167, 0.6592835179626512
2361.3586646207973, 0.7619059675825954
2851.4786992885065, 0.7179715030988791
2932.2210171383895, 0.6562466615067367
2966.217782548866, 0.7308791273102004
3011.546803096169, 0.7659463278761851
##END=


$$ === CHEMSPECTRA PEAK TABLE AUTO ===
##TITLE=X8442
##JCAMP-DX=5.00
##DATA TYPE=INFRAREDPEAKTABLE
##DATA CLASS=PEAKTABLE
##$CSTHRESHOLD=0.93
##MAXX=3997.453
##MAXY=0.8547155850778222
##MINX=373.96442
##MINY=0.5502272242963995
##NPOINTS=201
##PEAKTABLE= (XY..XY)
3986.1207448631744, 0.7808094018117188
3971.9554259421425, 0.7806224224482062
3960.6231708053165, 0.7800499787435612
3953.5405113448005, 0.7808133954235894
3943.624788100078, 0.7802507872916518
3936.542128639562, 0.7802857753753994
3929.459469179046, 0.7798488716895005
3922.3768097185302, 0.7797253125063662
3902.545363229085, 0.7799530622132693
3892.6296399843627, 0.7796200505451691
3882.7139167396404, 0.7807485455986188
3872.798193494918, 0.7801333661872767
3865.715534034402, 0.7795991893559537
3855.799810789679, 0.7794276471291778
3843.0510237607505, 0.7800676797495741
3835.9683643002345, 0.7798874370687927
3823.2195772713058, 0.7791898246368231
3804.8046626739642, 0.7786693567916744
3797.722003213448, 0.7790577998243796
3773.6409610476935, 0.7800756685653473
3762.308705910868, 0.7820073954231118
3752.392982666145, 0.7816675300579404
3735.394599960907, 0.777475594800912
3719.8127491477717, 0.7804108254963519
3712.7300896872557, 0.781106053860641
3705.6474302267397, 0.779305755599396
3698.564770766224, 0.7810255877953519
3682.982919953088, 0.7807227363744447
3675.900260492572, 0.7799606912298466
3658.901877787334, 0.7819067829909034
3650.4026864347147, 0.7804554692532092
3633.404303729476, 0.7820342776767462
3622.0720485926504, 0.782100736249891
3610.739793455825, 0.7806220045398483
3592.3248788584833, 0.7818161239417587
3585.2422193979673, 0.7829034323354916
3572.493432369038, 0.7836472980685087
3566.8273048006254, 0.7837187046766123
3558.328113448006, 0.7831773159410542
3541.329730742768, 0.7838779086566283
3531.414007498045, 0.7837415925223601
3522.914816145426, 0.7835991972145109
3497.4172420875684, 0.7847521896578986
3491.7511145191556, 0.7846765514291643
3477.5857955981237, 0.7862675779010573
3469.086604245504, 0.7860785718810125
3462.003944784988, 0.7866546501943483
3453.504753432369, 0.7856624712751669
3446.422093971853, 0.7871338716785864
3437.922902619234, 0.7872847907249069
3428.007179374511, 0.7887676354492082
3418.0914561297886, 0.7888439287990447
3402.5096053166535, 0.7896156304127684
3391.177350179828, 0.789337157775427
3382.678158827209, 0.7912940976414415
3374.1789674745896, 0.789988040092813
3358.597116661454, 0.7923597074372112
3347.2648615246285, 0.7924042930849063
3331.6830107114934, 0.792549550069988
3317.517691790461, 0.7931075070809049
3306.1854366536354, 0.7922749516421292
3283.5209263799843, 0.794423758409405
3276.4382669194683, 0.7935481663699145
3267.939075566849, 0.7936227912703827
3262.2729479984364, 0.7932782763762226
3253.7737566458172, 0.7931730144150255
3243.8580334010944, 0.791837453332338
3232.525778264269, 0.7931029180491261
3228.2761825879593, 0.7930991051328694
3221.1935231274433, 0.7928487652901727
3211.277799882721, 0.7933741206730702
3204.1951404222045, 0.7915043827590598
3195.6959490695854, 0.7915275683147617
3187.196757716966, 0.7923316351397766
3178.697566364347, 0.7922617194694911
3171.614906903831, 0.7926166048590569
3158.8661198749023, 0.7918094972532276
3150.366928522283, 0.7906067363024897
3137.618141493354, 0.7900732153882848
3123.452822572322, 0.7907080046518162
3113.5370993275997, 0.789914547922999
3099.3717804065673, 0.7898743148903544
3088.0395252697417, 0.7889448994384172
3078.1238020250194, 0.7884479156549403
3068.208078780297, 0.7883287664000028
3042.7105047224395, 0.7801529760394659
3011.546803096169, 0.7659463278761851
2966.217782548866, 0.7308791273102004
2932.2210171383895, 0.6562466615067367
2892.5581241594996, 0.7311136718089966
2851.4786992885065, 0.7179715030988791
2797.6504873885847, 0.7679911845165001
2774.985977114933, 0.7701588863136689
2769.3198495465203, 0.770466982683473
2757.987594409695, 0.7724049089132226
2749.4884030570756, 0.7728291145531656
2739.5726798123533, 0.7727724907567124
2731.073488459734, 0.7734416121868734
2719.7412333229086, 0.7736032002345696
2702.7428506176702, 0.7751108997599571
2688.577531696638, 0.7750903362806957
2678.6618084519155, 0.7756029363044912
2664.496489530883, 0.7755289665251252
2641.831979257232, 0.778525828753171
2629.0831922283032, 0.7779803270033542
2623.4170646598905, 0.7782689329233572
2610.6682776309617, 0.7805088158521198
2588.0037673573106, 0.7826421854826591
2580.921107896794, 0.7819821832108776
2573.838448436278, 0.7809439292982147
2569.5888527599686, 0.7809329625868848
2556.8400657310394, 0.7814000838331229
2545.507810594214, 0.7823256250755776
2539.841683025801, 0.7820487611864105
2531.342491673182, 0.7838489408412835
2520.0102365363564, 0.78361773403724
2507.2614495074276, 0.7848044035261551
2498.7622581548085, 0.7846366161064738
2486.0134711258797, 0.7844135159285595
2476.097747881157, 0.7853929394886389
2467.5985565285378, 0.7844851008442292
2457.6828332838154, 0.785202920140328
2447.7671100390926, 0.7849311810016538
2430.7687273338543, 0.7864490743069128
2423.6860678733383, 0.7849916805996217
2415.186876520719, 0.7842950814959182
2405.2711532759968, 0.7848350994920621
2396.7719619233776, 0.785399376869384
2361.3586646207973, 0.7619059675825954
2338.6941543471457, 0.7691983577834826
2328.7784311024234, 0.7705757614430048
2277.7832829867084, 0.7915984384081352
2267.867559741986, 0.7917526951492083
2215.455879734167, 0.6592835179626512
2177.2095186473807, 0.7768277516723086
2171.543391078968, 0.7794700262207427
2160.2111359421424, 0.7792088979742822
2148.8788808053164, 0.7827483413697344
2136.1300937763876, 0.7853294604030826
2123.381306747459, 0.7856405370564913
2116.2986472869425, 0.7862387294881006
2103.5498602580137, 0.7882691018227351
2096.4672007974978, 0.7868793002152589
2085.134945660672, 0.7867852445661836
2065.3034991712275, 0.7914410819810695
2051.1381802501955, 0.789214014112603
2039.8059251133695, 0.7897303681474771
2028.473669976544, 0.7899962661213302
2019.9744786239248, 0.7912734147597922
2008.642223487099, 0.7882896056008025
1980.311585645035, 0.7917616360000217
1974.6454580766222, 0.7919570204956334
1967.5627986161062, 0.7938054196108765
1929.3164375293195, 0.7924867866027437
1909.4849910398748, 0.7803961031819114
1902.4023315793588, 0.7823693152053627
1871.238629953088, 0.7929088469797825
1798.9955034558247, 0.7919526686765989
1790.4963121032056, 0.7913681860271796
1784.8301845347928, 0.7918207043613653
1760.749142369038, 0.7876080265214935
1752.249951016419, 0.788280187140437
1735.2515683111806, 0.7903282039639543
1725.3358450664578, 0.7915387746268834
1716.8366537138386, 0.7912850970894341
1688.5060158717747, 0.7917805907311087
1674.3406969507428, 0.7929043168531817
1583.6826558561374, 0.7088071700198832
1551.1024223377635, 0.764931797625986
1538.3536353088348, 0.7262867681848548
1474.6097001641906, 0.6803363543789585
1446.2790623221263, 0.669621288357924
1432.1137434010943, 0.6816574327479975
1402.3665736669273, 0.7168062918111194
1388.2012547458949, 0.6714667676867724
1317.3746601407347, 0.7580360764863214
1294.7101498670836, 0.7788311836441467
1277.7117671618448, 0.7726328966288857
1223.883555261923, 0.7389931078305653
1187.05372606724, 0.7237535709019224
1154.473492548866, 0.7217067473062693
1120.476727138389, 0.7658990612468715
1031.2352179358872, 0.6419162145595299
968.9078146833463, 0.7863668792950455
951.9094319781075, 0.7683006516257185
923.5787941360436, 0.778280019037075
905.1638795387021, 0.6853196018979156
890.9985606176697, 0.6866680974432872
869.7505822361218, 0.5766579506363542
835.7538168256447, 0.6123489140533465
801.757051415168, 0.7290947429992279
770.5933497888973, 0.7563817492364381
725.2643292415946, 0.7218447915910997
709.6824784284595, 0.6307061906155349
691.267563831118, 0.7379464503778349
668.6030535574664, 0.630049705142088
650.1881389601249, 0.6051557058440594
613.3583097654414, 0.7391170260168795
500.03575839718496, 0.5502272242963995
474.5381843393275, 0.6614789959393325
402.29505784206367, 0.7513754960613771
##END=

##END=

