##TITLE=X9424
##JCAMP-DX=4.24
##DATA TYPE=INFRARED SPECTRUM
##DATE=5/11/2018
##SAMPLING PROCEDURE=ATR platinum Diamond 1 Refl
##ORIGIN=ComPlat
##XUNITS=1/CM
##YUNITS=TRANSMITTANCE
##RESOLUTION=4
##FIRSTX=3997.453
##LASTX=373.96442
##DELTAX=-1.4165319
##MAXY=1.051433
##MINY=0.19625919
##XFACTOR=1
##YFACTOR=9.7922326e-010
##NPOINTS=2559
##FIRSTY=1.0016305
##XYDATA=(X++(Y..Y))
3997+1022882714+1022162265+1021025774+1020210429+1020138543+1020740723
3989+1021696371+1022586280+1022996296+1022756349+1022117587+1021595571
3980+1021516807+1021661554+1021500128+1020854366+1020127160+1019809301
3972+1020003291+1020460907+1020880601+1021188782+1021498424+1021727049
3963+1021636597+1021387155+1021403833+1021623328+1021658632+1021532024
3955+1021404077+1020890644+1019393198+1017030617+1015017364+1014740348
3946+1016020917+1017213164+1017455850+1017647162+1018713105+1020153578
3938+1021045374+1020921383+1019467580+1016738870+1013985264+1013139424
3929+1014576914+1016498497+1017007486+1015963456+1014893130+1014800000
3921+1014810774+1013852934+1012621122+1013071677+1015803126+1019199755
3912+1021559293+1022506176+1022244682+1020419394+1016327941+1010214228
3904+1004100332+1000467895+999951845+1001911349+1005748855+1010156828
3895+1013086346+1013272485+1011541240+1010687243+1012094176+1013557596
3887+1012710417+1009919559+1007524230+1006358644+1005940898+1007306318
3878+1010881477+1013837413+1013382658+1009792890+1005585482+1002586573
3870+1001599455+1002970536+1004863146+1004784259+1003161544+1003339830
3861+1006766225+1010851529+1012837999+1011913334+1007887742+1000578738
3853+994068217+995576619+1003100675+1010843434+1015834900+1017029338+1014571314
3843+1009618074+1003795620+998589042+995677176+996581998+1000442756+1004715416
3833+1008138767+1010779643+1012654844+1013426301+1013130720+1012366080
3825+1011087520+1007927490+1002499225+998410086+998901788+1001842263+1005232014
3815+1009691726+1014850765+1018661975+1019790492+1018058030+1014433993
3806+1011156485+1009255475+1007086884+1003940550+1002547677+1004672564
3798+1008252227+1011803952+1015485145+1019011730+1021560267+1022951861
3789+1023440399+1022875410+1021123347+1019102486+1017949743+1017218581
3781+1015865091+1014731157+1015865822+1019046304+1021846840+1022423759
3772+1020475028+1017085277+1014258567+1013178381+1013380528+1014332645
3764+1015608710+1015880856+1013954647+1010801191+1009155224+1009652465
3755+1009718143+1006690990+1000080583+993270220+991515419+994026948+996354286
3745+997083439+998182130+1001359143+1004751633+1005613664+1002197861+994818979
3735+988067233+988342484+995626350+1004101184+1009493170+1010815373+1008992946
3725+1006209331+1004890659+1005962506+1008845460+1012584905+1016159394
3717+1018430428+1018270403+1014792878+1008349314+1002622790+1002766563
3708+1008437757+1015170633+1019646110+1020457255+1018210994+1015965099
3700+1016460941+1018701662+1020246890+1020154064+1018349168+1014319680
3691+1007911055+1001658924+1000532416+1005480848+1012088637+1017096782
3683+1019589441+1019265981+1016104673+1010360984+1002491921+995292116+994056956
3673+997780149+1000509955+1001081031+1003816437+1010655043+1017927404
3665+1022427777+1023774084+1023255599+1022015691+1020020517+1017053930
3656+1014153446+1012239471+1009630978+1003533760+993597089+985917147+988487658
3646+998312817+1007917020+1014365271+1018046647+1020173725+1021196938
3638+1020686123+1018522280+1015536762+1012638287+1009476370+1004963458
3629+1000533999+1001100205+1006813338+1012529392+1015192668+1014109011
3621+1009879690+1005038997+1002818241+1003086797+1003514708+1003668464
3612+1004564338+1005840707+1006243053+1006473565+1008443418+1011661152
3604+1013658761+1013249354+1011625361+1010581148+1010247706+1009737256
3595+1009226441+1009764769+1010996520+1010686148+1007102223+1001902889
3587+1000246696+1004071175+1009402109+1012780478+1013846665+1013673918
3578+1013178989+1012784313+1012736713+1013064312+1013117329+1011471483
3570+1006726903+999323125+993427628+993638054+998569929+1003771820+1007113119
3560+1009072989+1010725043+1011967933+1011795917+1010010316+1007913368
3551+1006753260+1005941567+1004120236+1001531768+1000280295+1001831367
3543+1005111797+1007947759+1009120589+1008888616+1008352114+1008270245
3534+1008358140+1007856029+1006437957+1004504626+1002911371+1002226226
3526+1002206200+1002439695+1003092092+1004353974+1005737290+1006674069
3517+1007253484+1007806603+1008148445+1007751942+1006591043+1005494300
3509+1005344683+1005821837+1005572456+1003919245+1002000706+1001662516
3500+1003091118+1004612912+1004826685+1004073671+1003717403+1004273870
3492+1004844398+1004396887+1002976015+1001505169+1000669920+1000259356
3483+999685298+998982866+998893449+999736915+1000822276+1001355917+1001238622
3473+1000679111+999712020+998515451+997616472+997449933+998032818+999073014
3463+1000141574+1000925206+1001536577+1002364521+1003545386+1004792903
3455+1005735525+1006220775+1006193688+1005472813+1004030028+1002505495
3446+1001857784+1002260618+1003036640+1003739377+1004493973+1005383700
3438+1006144506+1006446417+1006208662+1005727247+1005512074+1005831394
3429+1006493469+1007185980+1007774586+1008119410+1007916533+1007082137
3421+1006148827+1005822568+1006144445+1006591530+1006918459+1007332492
3412+1007911542+1008400079+1008690425+1009085041+1009825882+1010587296
3404+1010757547+1010169976+1009209762+1008281992+1007602204+1007341318
3395+1007486004+1007758395+1008017333+1008414992+1008944981+1009237032
3387+1008998181+1008442687+1008157758+1008511652+1009226075+1009735369
3378+1009920959+1010151472+1010658391+1011284371+1011778873+1011963003
3370+1011741317+1011275302+1010955494+1010968155+1011126050+1011227032
3361+1011258015+1011253876+1011339154+1011800969+1012724296+1013697778
3353+1014213341+1014187472+1013896517+1013655779+1013666066+1013936204
3344+1014259359+1014370080+1014159107+1013755300+1013395562+1013209363
3336+1013150198+1013129624+1013090607+1012994312+1012887182+1012933747
3327+1013277171+1013919099+1014741626+1015545771+1016109968+1016320515
3319+1016249542+1016089090+1015983421+1015896987+1015677675+1015286102
3310+1014909565+1014785026+1014934643+1015117738+1015108303+1014955764
3302+1014844982+1014838043+1014957164+1015306189+1015831187+1016212655
3293+1016261776+1016197681+1016357463+1016813678+1017352433+1017693666
3285+1017697988+1017446780+1017155825+1016994886+1016957147+1016905591
3276+1016781479+1016698635+1016793165+1017077364+1017455119+1017761474
3268+1017848883+1017783022+1017824596+1018096195+1018431950+1018622227
3259+1018603236+1018397254+1018112569+1018024856+1018413993+1019212903
3251+1019974987+1020296438+1020177377+1019898779+1019642641+1019349555
3242+1018933878+1018488254+1018197786+1018152316+1018349350+1018739340
3234+1019130364+1019229155+1018972835+1018648706+1018550706+1018688392
3225+1018889139+1018988417+1018923957+1018785479+1018691618+1018598975
3217+1018432985+1018343629+1018533723+1018922252+1019279007+1019595771
3208+1019997752+1020377516+1020424202+1020005543+1019333059+1018733070
3200+1018384107+1018301690+1018451854+1018740679+1018997730+1019178877
3191+1019498867+1020091917+1020657454+1020800192+1020615636+1020542654
3183+1020723740+1020876157+1020735427+1020395168+1020235568+1020522506
3174+1021038617+1021305225+1021199495+1021037522+1020997226+1020894479
3166+1020627871+1020415863+1020448002+1020606323+1020656054+1020547280
3157+1020454455+1020571811+1020883583+1021173443+1021276495+1021239121
3149+1021220008+1021319712+1021473955+1021443155+1021026139+1020360229
3140+1019825979+1019622432+1019667962+1019844909+1020069578+1020223273
3132+1020246403+1020180238+1020005726+1019629493+1019066086+1018473280
3123+1018008421+1017715214+1017476302+1017098364+1016544088+1016043256
3115+1015877387+1016069429+1016371037+1016604105+1016871991+1017224607
3106+1017318163+1016845087+1016122386+1015687292+1015432554+1014660061
3098+1012897347+1010297680+1007483448+1005325935+1004585034+1005348274
3089+1006847059+1008075645+1008650860+1008906329+1009202458+1009509605
3081+1009706943+1009858203+1010019203+1010050855+1009749673+1008997694
3072+1007796560+1006295583+1004759546+1003485186+1002801076+1002978997
3064+1003903176+1004984458+1005689325+1006041393+1006395165+1006899103
3055+1007390257+1007678473+1007717186+1007547178+1007200953+1006682590
3047+1006018324+1005234936+1004195836+1002603494+1000313956+997433986+993926513
3037+989479219+984176102+979083654+975755868+975117531+976885541+979962728
3027+983260323+986214311+988764126+990996873+992870735+994282112+995220351
3017+995689593+995613263+995050709+994418946+994238529+994646597+995304534
3007+995775601+995843288+995436011+994342068+992137990+988393371+982805568
2997+975269643+966319724+957572622+951053945+947668089+946728572+947186613
2987+948927414+952679703+958867799+966676236+974226161+979715660+982387518
2978+982428544+980332448+976793689+973096122+971100644+972381577+977069792
2968+983517861+989360402+993108491+994762979+995079378+994584206+993364324
2958+991479019+989294846+987371315+986049233+985130715+983998546+982139232
2948+979596599+976939532+974844958+973670059+973321095+973497129+974003988
2938+974753472+975627677+976567073+977631860+978782533+979797590+980531004
2928+980991359+981108167+980677030+979537373+977519921+974147396+968506576
2918+959589283+947177970+932977586+920932462+915627641+919383703+930589622
2908+945020822+958740521+969792136+977933406+983738878+987968930+991143812
2898+993439559+994991970+996113608+997115883+998082670+998888458+999350821
2888+999405299+999241865+999232795+999608176+1000195504+1000601990+1000657016
2878+1000475077+1000077053+999262743+997974627+996477790+995096117+994120565
2868+993997913+995149560+997442264+1000178887+1002729494+1004923650+1006794894
2859+1008209923+1008899998+1008786234+1008185393+1007647369+1007553691
2850+1007933272+1008661513+1009652587+1010803077+1011960081+1013059746
2842+1014134577+1015159068+1016064499+1016916548+1017888387+1019006800
2833+1020012909+1020575341+1020693427+1020802688+1021327990+1022197325
2825+1022984731+1023433459+1023596467+1023572728+1023397668+1023143113
2816+1022914366+1022786175+1022829758+1023091130+1023493964+1023905197
2808+1024311438+1024758097+1025155331+1025368251+1025453468+1025556946
2799+1025631937+1025519086+1025256252+1025046496+1024938514+1024760654
2791+1024394829+1023934536+1023560433+1023407164+1023546189+1023953405
2782+1024495142+1025039801+1025527607+1025910232+1026165639+1026349708
2774+1026478386+1026468525+1026383551+1026484473+1026832037+1027138209
2765+1027221844+1027286730+1027566486+1027984293+1028312622+1028445439
2757+1028416708+1028312865+1028227648+1028184187+1028078397+1027839424
2748+1027632955+1027715372+1028104692+1028597125+1029035871+1029345574
2740+1029434443+1029333035+1029281661+1029466460+1029798198+1030063345
2731+1030127988+1029943310+1029535973+1029049019+1028676620+1028501317
2723+1028455908+1028460291+1028527977+1028691594+1028891245+1029016149
2714+1029001662+1028827820+1028519943+1028205005+1028065371+1028159231
2706+1028335995+1028383960+1028261491+1028145596+1028209996+1028417560
2697+1028614290+1028753802+1028900132+1029065819+1029167592+1029120723
2689+1028933489+1028705716+1028512151+1028297648+1027992449+1027696137
2680+1027613112+1027802902+1028119666+1028396378+1028579960+1028700724
2672+1028798481+1028895506+1028976584+1029002636+1028993262+1029051940
2663+1029214096+1029334130+1029255366+1029055714+1028976462+1029116097
2655+1029301626+1029304061+1029116462+1028933854+1028873471+1028842428
2646+1028730794+1028594568+1028565838+1028715090+1029041349+1029468286
2638+1029838859+1030064075+1030252405+1030534960+1030804368+1030824698
2629+1030607273+1030474821+1030667290+1031029097+1031205131+1031038715
2621+1030687742+1030458630+1030603377+1031139027+1031786798+1032225179
2612+1032408031+1032468535+1032424222+1032239910+1032062415+1032099788
2604+1032369074+1032741229+1033081245+1033252775+1033198114+1033016602
2595+1032771907+1032385752+1031946398+1031838416+1032273996+1032946237
2587+1033417122+1033644530+1033912963+1034378248+1034868977+1035132297
2578+1035155063+1035156402+1035293358+1035469757+1035444679+1035074228
2570+1034481118+1033999033+1033885451+1034103484+1034457622+1034821986
2561+1035108437+1035199497+1035094193+1034931429+1034752960+1034510457
2553+1034347692+1034520561+1034966855+1035330610+1035485218+1035661617
2544+1036003094+1036328014+1036435509+1036395579+1036393997+1036409823
2536+1036216136+1035760225+1035390383+1035531235+1036209076+1037047368
2527+1037571818+1037438270+1036696395+1035976433+1036021720+1036883386
2519+1037899051+1038463431+1038477188+1038165537+1037858756+1037832704
2510+1038030407+1038092859+1037896495+1037834408+1038293971+1039027325
2502+1039357602+1039002368+1038445536+1038373954+1038921899+1039646487
2493+1040092051+1040138311+1039932695+1039798295+1040064781+1040677857
2485+1041153611+1041186481+1041022864+1041012638+1041128046+1041137907
2476+1040943978+1040571579+1040027042+1039311219+1038559848+1038078250
2468+1038064372+1038295797+1038293484+1037850234+1037287923+1037179454
2459+1037824182+1038948682+1039940243+1040384589+1040324937+1040112381
2451+1040100451+1040294502+1040261633+1039654279+1038797239+1038389414
2442+1038665152+1039212002+1039573809+1039678870+1039652696+1039541427
2434+1039350054+1039136402+1038971812+1038947464+1039171463+1039566140
2425+1039791600+1039629444+1039322297+1039305497+1039669131+1040039703
2417+1040012190+1039630053+1039304524+1039256437+1039285776+1039168298
2408+1038991655+1038951238+1039056542+1039209446+1039417132+1039741565
2400+1040105685+1040327493+1040349163+1040255667+1040069407+1039739009
2391+1039369775+1039218089+1039344332+1039448906+1039225637+1038770091
2383+1038476336+1038650178+1039399480+1040687474+1042227224+1043598488
2374+1044770222+1046130286+1047753549+1049229021+1050371173+1051449290
2366+1052727667+1054289087+1055962263+1057154936+1057368222+1056804937
2357+1055817515+1054207400+1051677428+1048556659+1045719175+1043947269
2349+1043539810+1044372868+1045987243+1047609532+1048500781+1048519528
2340+1048143478+1047900853+1047898053+1047945653+1047896835+1047605271
2332+1046838440+1045566880+1044120503+1042854787+1041926773+1041416567
2323+1041375541+1041663331+1041896582+1041735035+1041259281+1040877143
2315+1040712552+1040342467+1039425653+1038319293+1037666409+1037666774
2306+1038077885+1038609153+1039067255+1039377810+1039559201+1039513792
2298+1039044003+1038326354+1038000581+1038376632+1038907899+1038889882
2289+1038381136+1038033451+1038267919+1038974003+1039869269+1040839648
2281+1041890617+1042911639+1043664471+1044090921+1044465876+1045023317
2272+1045594636+1045863557+1045844809+1045807314+1045795505+1045564567
2264+1045048273+1044531128+1044181129+1043864244+1043683583+1044095912
2255+1045122777+1046139660+1046809223+1047407568+1047975479+1047965496
2247+1046928161+1045036952+1042988212+1041643122+1041522358+1042527554
2238+1044200851+1045962287+1047110039+1047188560+1046431468+1045465837
2230+1044729196+1044396485+1044552432+1045186690+1046085852+1046835518
2221+1047069865+1046742266+1046028391+1045187421+1044687075+1044923613
2213+1045610949+1046076600+1046162182+1046146356+1046065278+1045900931
2204+1046112878+1047157395+1048646502+1049645489+1049882636+1050135852
2196+1051171848+1052825910+1054450634+1055650855+1056186627+1055907115
2187+1055334943+1055601186+1057193649+1059288527+1060737947+1061199336
2179+1061065546+1060890851+1060945755+1060845077+1059916090+1058234514
2170+1056603338+1055464108+1054810250+1055084649+1056992050+1060259392
2162+1063313936+1064364297+1063073502+1061140780+1060204245+1059908542
2153+1059067571+1057454900+1055768576+1054567503+1053571803+1051928332
2145+1049430499+1047230925+1046646336+1047502768+1048358347+1048227721
2136+1047489863+1046982457+1046802283+1046530928+1046051400+1045278725
2128+1043758209+1041551818+1039877912+1039803774+1040808726+1041531245
2119+1041521140+1041430932+1041703627+1041904860+1041556688+1041001316
2111+1040918169+1041396845+1042010043+1042471432+1042772857+1042983465
2102+1043272837+1043899548+1044872361+1045777001+1046211973+1046302546
2094+1046515954+1047111256+1048016626+1048934414+1049330064+1048797701
2085+1047691097+1046937048+1047070595+1047832192+1048695928+1049406029
2077+1049975766+1050465399+1050935797+1051532316+1052329095+1052925614
2068+1052490764+1050581416+1047987044+1046345885+1046579502+1048081391
2060+1049734723+1051077500+1052043375+1052342608+1051807202+1050800423
2051+1049833697+1049335177+1049975157+1052338226+1055827254+1058668756
2043+1059596160+1059137815+1058697608+1058794146+1059056371+1059339048
2034+1059740299+1060003133+1059935446+1059918281+1060323670+1061139441
2026+1062303140+1063369571+1062985729+1060147880+1056002436+1053070970
2017+1052488086+1052971266+1052904188+1052347721+1052484799+1054025401
2009+1056505947+1058625051+1059044198+1057279231+1054120844+1051121083
2000+1049683837+1050405868+1052663755+1054793450+1055429656+1054808911
1992+1054057418+1053423160+1052570746+1052091948+1052777945+1053927036
1983+1054098201+1053209387+1052430016+1052366225+1052733024+1053492308
1975+1054782128+1055892385+1055757985+1054239296+1052168400+1050736145
1966+1050933362+1052577198+1054053644+1053873106+1052274556+1050778389
1958+1050290095+1050384077+1050400999+1050308234+1050268912+1050223017
1949+1050203174+1050194408+1049576950+1047828784+1045805488+1045138482
1941+1046185434+1047720923+1048449651+1047970000+1046858770+1046006965
1932+1045692271+1045589402+1045439176+1045028552+1043818713+1041541471
1924+1039160385+1038133155+1038380771+1038543779+1038374562+1039067498
1915+1040844030+1042263868+1042147486+1040798013+1039620679+1039820817
1907+1041329645+1043099603+1044159703+1044098347+1043066977+1041616218
1898+1040197720+1039014177+1038430197+1038559118+1038550231+1037723017
1890+1036996846+1037715104+1039566870+1041197924+1041773383+1041199994
1881+1039831895+1038215328+1036879977+1036142606+1035819877+1035230054
1873+1033652565+1030696994+1026986279+1025107852+1027403356+1032363840
1864+1036746308+1039016125+1039362958+1038600144+1037671278+1037223280
1856+1037279036+1037538218+1037528966+1036554083+1034256997+1030972611
1847+1027177531+1023524033+1021674093+1022984731+1026047675+1028404534
1839+1029099297+1028916810+1029133992+1029573347+1028630238+1025510564
1830+1021732406+1019655545+1019293920+1019015930+1018477663+1018469628
1822+1018698131+1017956865+1016131881+1014272263+1012808843+1011102494
1813+1008729382+1006294488+1005091710+1005721768+1007227979+1008173706
1805+1007693812+1005487908+1002252765+999939610+999660889+1000185035+999788045
1795+997640819+994132069+991945522+993625393+997117952+998934231+998098678
1785+995530298+992275738+988799796+985270106+981643512+977259461+970778462
1775+960987390+948053879+934528901+923423295+914226855+904127602+891470255
1765+875262340+852302010+818796680+776400171+728705779+673754183+612835568
1755+556162831+509118980+466696966+424515690+385702678+354157463+327790429
1745+303257175+280817278+263652497+254911497+255592914+263762306+277979155
1735+302568135+343380490+392012604+436235924+477380625+517134829+552724202
1725+583467464+610559847+633022144+649593571+661967388+674872595+693808186
1715+718083475+741961897+763099861+781609245+797319127+810286299+821784451
1706+833165307+843908375+853062328+861930987+872954054+885654801+899102049
1696+914661036+930098467+940988778+947035535+950596938+953026232+953574239
1686+951673960+950709424+955946194+965086695+973224374+978536925+980878568
1676+981287366+981444713+981507896+980536726+980143206+984145789+991478471
1666+996987874+998578450+998247808+999418082+1002323252+1004065940+1002300487
1656+995916514+985230967+976928758+978487682+982028024+981462670+979441930
1646+982541761+990781822+997957644+1001387995+1001145553+997532898+991805948
1636+988997377+994681110+1004512173+1011566561+1014354315+1014248646+1013302189
1626+1012392984+1011291554+1011043876+1013022799+1015512353+1015619605
1618+1013237850+1012203619+1015172277+1019010087+1020323829+1018775557
1609+1016336889+1015328528+1016316802+1018275333+1020264603+1022179795
1601+1024091700+1025491816+1025675885+1024617489+1023048035+1021718284
1592+1020854305+1020297838+1019891231+1019733397+1020181273+1021531659
1584+1023632502+1025692685+1026406925+1024535437+1019998117+1015748100
1575+1016306576+1019975474+1021407120+1019124521+1016323559+1016838817
1567+1019536484+1021361955+1021041296+1017567241+1008689939+994417242+986916317
1557+993329385+1002304322+1008547322+1011941455+1013212954+1013694796
1548+1013762361+1011672839+1005661142+996305225+986164337+979289088+982458370
1538+993986896+1003158744+1006109080+1005199875+1005224649+1007689004
1530+1009124667+1007169241+1002978145+998958092+995327907+991385220+988948438
1520+989587444+991369150+993520819+997440681+1002147827+1004114149+1000912606
1510+992327111+980460274+973506016+979518869+986451823+982843673+969368181
1500+952808077+943625150+949527890+966132490+981311410+988905221+989528219
1490+987336619+988761022+995939157+1004402487+1010083420+1012142202+1011693961
1480+1009916638+1006537661+1000340800+990683640+977860302+963680492+952633686
1470+947218143+944475494+940977517+935660461+928918576+920079257+906518548
1460+885852870+859349946+839984314+846855485+870791611+892772797+908649644
1451+919533381+926836298+932505666+937774939+942023861+944145704+943703367
1441+940636284+934544970+925074497+914501924+907128520+903039015+899723220
1431+897253813+897717272+901225597+905761699+910545784+916106621+921912214
1421+926692829+931307149+938681466+948669024+957832595+964094768+967561945
1411+969289538+969749893+968099543+963216607+955668143+948094540+942119608
1401+936487919+929152802+919076922+906280184+892405329+881163254+874621812
1391+870603159+866269812+861223625+856388349+850550800+840251834+823336496
1381+800548426+774514257+747206032+716804490+677453819+626940935+575787827
1371+539190580+523410333+526457633+543395858+571315941+612563725+668870394
1361+731331011+785795592+826139589+853270988+869831337+879543096+887046517
1351+896118722+907943621+920884923+932496475+941977965+949996523+956881573
1341+962469314+967433024+973118096+979373939+984347510+986890812+987637922
1332+987924434+988393919+988621022+987575288+984055398+976946836+966016352
1322+953281214+943290612+940556302+945493898+953839264+960578227+963031564
1312+960884399+955513048+949595516+945847732+945010292+945474846+945442951
1302+944894762+945119735+946913979+949604890+951542786+951232231+948090705
1292+942660128+936639483+932477301+932050546+935274550+940203260+944530215
1282+946859988+946903753+945004509+941621210+937074029+931524148+925056845
1272+917786614+909865265+901340579+892058131+881760321+870185900+856973425
1262+841516151+823047732+801152615+776562570+751275754+726951404+702612688
1252+674578840+639506126+597464423+552153917+508969606+473086052+448433373
1242+437366236+440501341+456221418+480154410+505610899+525198186+532719990
1232+524632406+500920310+465205698+423739880+383309632+348759816+321291383
1222+298631321+277285580+255427775+234188479+216500908+204924219+200423329
1213+202653140+210982268+225227132+245511723+271585625+302453548+336639184
1203+372682429+409495275+446526520+483697673+521135525+558889593+596715305
1193+633870175+669025550+700483540+726585762+745877133+756986452+758944800
1183+751973255+737425368+717048271+694051906+675569184+671396714+687372839
1173+720138423+759757832+796999380+827479566+850607165+866891045+876582960
1163+879839286+877232314+869829328+859259859+848272157+840714137+839678506
1153+845133918+853738404+861132929+864256377+861648858+852162558+833831218
1143+804076046+761217173+706542959+645742552+588234384+543924691+519043812
1133+513719513+522709971+538769425+556768420+575994113+598925895+627709166
1123+661614407+697387423+731369542+761048991+785120673+802999938+814781558
1113+821364574+824119580+824248318+822318274+818150857+810988670+799738682
1103+783150760+760075996+729857487+692580330+649005330+600302820+547832622
1094+493347620+439663444+391000256+352177536+327027646+317262960+322274605
1084+339043795+361928708+383913912+400116896+410740295+419738301+430050536
1074+440661944+448557576+452623951+454545412+455966741+455773938+450697894
1064+438316984+419318455+397348073+377192084+362803279+356068850+356537026
1054+361980752+369301686+375308148+377510795+374989649+368599102+360090303
1044+351057419+342880479+337575780+338176773+347596816+366732697+393189604
1034+420785619+440709422+446530263+440289120+431086654+425087801+419385198
1024+408337419+393210056+382010468+380977942+388929634+399655537+408266932
1014+415276581+425529621+443688519+470630767+503453995+537744690+569442871
1004+595651796+615093332+628285964+637232657+644816912+653810109+665312461
994+677758288+687773298+691857446+686864945+669461801+636413113+586725190
984+524944909+462798286+415678653+394769619+401282696+427861098+464526579
975+503439508+540612426+575470272+608931228+641300492+671730643+699232920
965+723583505+745205136+764551716+781772192+796666121+808517436+815808606
955+816245648+807635501+790080427+768510047+752312419+750240671+764414030
945+789392664+816863775+840798441+859005182+871680120+879605365+883351506
935+883135481+878565657+868160717+849648412+822237623+789673820+759957118
925+739506429+726389823+710524420+682673363+644481827+609622399+594248576
915+604887618+633839254+665342226+687333700+699287276+709328643+723499992
905+738147765+742885102+730444511+704044091+676450267+661808824+666564056
895+686345547+710045318+725941156+725699991+707397929+678400520+653948222
885+648715044+667331009+702919956+744171210+782790535+815527390+842363512
875+864441420+882878125+898292304+910979173+921390625+930277484+938282346
866+945490855+951555325+956328453+960274732+964125447+968097960+971522407
856+973286095+972599063+969427407+964533332+959050103+953139693+944500450
846+929517348+908111559+887455559+878226371+885606349+905036807+927212957
836+945578750+958508061+966569958+970012544+969013252+965266137+962264185
826+963393432+969615067+979017184+988532336+996098026+1001331082+1004603295
816+1006195575+1006368079+1005433065+1003434482+1000039983+994504224+985090542
806+968416916+940712858+902697173+864587872+842828858+847653968+874305231
796+908355158+937972217+959541135+974752315+986177241+995451837+1003322361
786+1009992359+1015392684+1019533258+1022667845+1025035175+1026718454
778+1027867545+1028719837+1029399382+1029937467+1030287100+1030160979
769+1029162601+1027178992+1024354047+1020622880+1015514484+1008586035+999857254
759+989508314+977383209+963277354+947384682+929665625+908543183+879929920
749+836957465+772070293+683422542+582047323+491182468+434800899+424306117
739+454298100+509008563+572462110+634461703+690640182+739977132+782721083
730+819489799+851109884+878398083+901812559+921554120+938040756+951954202
720+963669840+972979679+979654486+983862929+985741052+984870742+980150023
710+969770284+951268022+921184339+874714090+809327729+733262516+668583578
700+639423283+654288907+701456719+761068348+818148666+865580285+901264796
690+925649286+940223773+946853597+948450990+949147883+952384183+958649278
680+965383554+969176747+968063448+961538379+949331648+931975494+911259233
670+889116499+870686429+867086618+880837908+903709795+929551556+954096436
660+973980979+988541284+998708102+1005193118+1008488705+1008723904+1005239075
650+997081004+984726726+971665876+962814017+960062785+959871169+955329101
640+939877913+910029003+867933127+823697451+793230231+788926710+810590097
630+846670686+883931895+915367790+940349103+959927777+974012997+982720351
620+987998695+992167573+995593845+997092935+996084269+993072699+988349667
611+980938889+968317151+946575729+911009547+858235063+791174187+723798982
601+677991843+669808086+696069785+736950649+772348040+795323831+813079043
591+836591641+868720715+903304284+933185819+955392648+970431812+979981111
581+985991468+990313920+993580471+994466789+990257372+977421313+951107023
571+906379949+845222300+784199538+748605843+753194050+791264091+843374430
561+892764093+932175206+961178520+981879625+996754745+1007649134+1015575840
551+1021140391+1024809593+1027038018+1028463943+1029796250+1031412574
543+1033237558+1034981707+1036234641+1036301962+1034436440+1030481882
534+1024699419+1016563140+1003909263+983146497+951410274+911923074+876427622
524+853701943+837210621+815733006+792652216+786563946+809880239+852598504
514+894506538+923669390+937807018+937497984+922138709+890402181+844512625
504+794393504+756920530+746711043+761532537+781885713+788191287+775547392
494+756656601+751947690+772969333+813490885+858113446+896510295+926475404
484+949241378+966526863+980080449+990865030+998534137+1002586329+1003287483
475+1000753189+994054704+981411174+960560270+931304775+900753616+883022751
465+888203581+913081295+944724510+971378634+990203625+1005273466+1019108999
455+1030306213+1039009429+1047402455+1055260074+1059725447+1060022124
446+1059212440+1060629356+1064499914+1068862174+1072155569+1073741823
438+1072628158+1067028182+1055006127+1034568404+1004130705+964928617+921519425
428+878118389+838810997+813720423+815038244+842445382+884676631+930593274
418+968618271+990646205+996940518+989282246+971309243+952085558+941176316
408+941417298+949407856+960632218+971831623+980514752+985991833+990978491
398+998973553+1006909816+1007593195+1000646790+991531610+985638791+984865569
388+987832704+993733984+1004481739+1020433029+1036374031+1046924266+1051017362
378+1049029857+1037309471+1008015628+966618593
##END=
