##TITLE=JPK-160, X12306
##JCAMP-DX=4.24
##DATA TYPE=INFRARED SPECTRUM
##DATE=17/4/2019
##SAMPLING PROCEDURE=Diamant-ATR
##ORIGIN=Angelika Moesle
##XUNITS=1/CM
##YUNITS=TRANSMITTANCE
##RESOLUTION=4
##FIRSTX=3997.453
##LASTX=373.96442
##DELTAX=-1.4165319
##MAXY=0.94890773
##MINY=0.51651627
##XFACTOR=1
##YFACTOR=8.8373919e-010
##NPOINTS=2559
##FIRSTY=0.92239976
##XYDATA=(X++(Y..Y))
3997+1043746578+1044223219+1044545745+1044489023+1043889563+1043062406
3989+1042609641+1042771714+1043138080+1043158382+1042848535+1042750536
3980+1043200873+1043928345+1044433650+1044500354+1044235022+1043827648
3972+1043472478+1043410764+1043735921+1044142081+1044225714+1044081312
3963+1044192261+1044670723+1045072498+1045098667+1044987651+1045003973
3955+1044953793+1044469261+1043587810+1042811507+1042579560+1042829178
3946+1043194600+1043491565+1043783876+1044184707+1044715237+1045253253
3938+1045623599+1045735290+1045562021+1045096779+1044565439+1044424477
3929+1044710516+1044877984+1044568002+1044029784+1043718318+1043825490
3921+1044301591+1044922229+1045271734+1045146554+1044912449+1044997633
3912+1045349499+1045677489+1045866135+1045954287+1045913887+1045722070
3904+1045595946+1045766989+1045983761+1045853927+1045514472+1045336482
3895+1045330007+1045257165+1044988595+1044642058+1044497993+1044733987
3887+1045266270+1045778050+1045995361+1045935807+1045613954+1045009639
3878+1044441474+1044232054+1044287427+1044394059+1044461370+1044268677
3870+1043513620+1042561148+1042225874+1042662317+1043418656+1044178839
3861+1045027242+1046029152+1046990999+1047625935+1047582298+1046444012
3853+1044644823+1043792778+1044119554+1044870025+1045660829+1046267776
3844+1046433625+1046146373+1045778050+1045650105+1045703927+1045781288
3836+1045964943+1046401319+1046925239+1047074834+1046599745+1045776702
3827+1044996284+1044419689+1044125489+1044142958+1044303412+1044453277
3819+1044740125+1045100691+1045062381+1044582436+1044378816+1044860853
3810+1045714921+1046383715+1046467686+1046048104+1045534908+1044983200
3802+1044247567+1043760404+1044112675+1045062179+1045999880+1046563054
3793+1046654443+1046334547+1045887515+1045793833+1046301634+1047018382
3785+1047158669+1046458715+1045640461+1045575780+1046277151+1046939942
3776+1047051228+1046867640+1046784007+1046912627+1047194483+1047610895
3768+1048136029+1048532004+1048497135+1048101834+1047741470+1047631803
3759+1047689739+1047814716+1047984343+1048113502+1048145134+1048245359
3751+1048626766+1049011478+1048899585+1048321370+1047651699+1047289717
3742+1047386097+1047790233+1048410534+1049243492+1050177483+1050853022
3734+1050830900+1050146323+1049404620+1049221235+1049864264+1051182698
3725+1052589823+1053420218+1053458258+1052851514+1051843804+1050877505
3717+1050445042+1050629439+1051060081+1051325481+1051257631+1050844457
3708+1050156980+1049491693+1049141446+1049020246+1048861882+1048841514
3700+1049422493+1050350550+1050737285+1050164939+1049188726+1048732589
3691+1049219414+1050250595+1050948930+1050975369+1050776673+1050743355
3683+1050933013+1051237262+1051510890+1051640791+1051542657+1051264847
3674+1051144254+1051372693+1051637351+1051546367+1051116331+1050659587
3666+1050204057+1049633599+1049167008+1049371572+1050539803+1052106775
3657+1052879234+1052144343+1050701404+1049816715+1049779148+1050097897
3649+1050109363+1049760195+1049652417+1050004687+1050458463+1050504124
3640+1049939939+1049141851+1048789715+1049300349+1050496098+1051700346
3632+1052254684+1051967095+1051209272+1050699853+1050601921+1050484025
3623+1050194682+1049911004+1049792704+1049909251+1050413477+1051344973
3615+1052277751+1052516105+1051789510+1050654799+1049856036+1049638725
3606+1049890029+1050551404+1051533350+1052477054+1052986945+1053107539
3598+1053195488+1053330920+1053333887+1053230830+1053246140+1053486045
3589+1053949602+1054567879+1055011538+1054945509+1054538944+1054227681
3581+1054199826+1054243868+1054080649+1053754818+1053494409+1053323973
3572+1053086765+1052772400+1052579572+1052728020+1053236630+1053721499
3564+1053641036+1052894140+1052031708+1051869231+1052631640+1053650816
3555+1054199826+1054260393+1054280761+1054500433+1054776219+1054883728
3547+1054721251+1054409111+1054276377+1054497600+1054848049+1054991237
3538+1054835504+1054556548+1054375118+1054365743+1054464417+1054650905
3530+1055012617+1055483390+1055647014+1055166731+1054357650+1053967475
3521+1054338900+1055067721+1055560683+1055709267+1055890831+1056398969
3513+1057041055+1057382736+1057251554+1056891257+1056595102+1056362076
3504+1056055602+1055727477+1055589550+1055702927+1055863313+1055724240
3496+1055013831+1053829480+1052595556+1051450796+1049886117+1047323507
3488+1043813552+1039747774+1034964169+1028467234+1019006385+1005883761
3479+989265951+969969390+949529283+930500415+915845620+907502487+905609683
3469+908941109+915792945+924676995+934680379+945365236+956240831+966470226
3459+975316507+982706561+989114872+995019025+1000544064+1005484616+1009603945
3449+1012940632+1015817608+1018575676+1021283024+1023691047+1025523419
3441+1026873620+1028213165+1029886499+1031755427+1033454593+1034786988
3432+1035826735+1036820349+1037979543+1039225068+1040258138+1040937858
3424+1041368366+1041656495+1041865982+1042114993+1042435698+1042668926
3415+1042673040+1042510833+1042394826+1042550896+1043060383+1043759393
3407+1044389136+1044803254+1044943744+1044800758+1044539473+1044428457
3398+1044546892+1044777152+1045094823+1045609570+1046279241+1046794259
3390+1046853544+1046490145+1046029489+1045723824+1045547183+1045458559
3381+1045663864+1046341696+1047251070+1047923304+1048189986+1048285287
3373+1048487760+1048830992+1049118379+1049160803+1049003856+1048815480
3364+1048572472+1048135827+1047612851+1047278926+1047179510+1047134052
3356+1047044753+1046950261+1046867303+1046723845+1046421350+1045991112
3347+1045635740+1045423554+1045076545+1044344284+1043409753+1042621309
3339+1041989003+1041191455+1039976146+1038395482+1036715943+1035183975
3330+1033863788+1032591352+1031068490+1029136095+1026947069+1024702130
3322+1022305640+1019528080+1016379500+1013013137+1009377394+1005296779
3313+1000889859+996642854+992979324+989881733+987061143+984430480+982267758
3303+980937791+980627742+981376257+983154402+985759098+988776091+991848322
3293+994907334+998034669+1001243208+1004456334+1007533489+1010333374+1012913721
3284+1015504658+1018104768+1020374864+1022076661+1023284483+1024100714
3275+1024559010+1024844711+1025247026+1025820519+1026255006+1026119170
3267+1025290326+1024193925+1023392262+1022845477+1021915735+1020289680
3258+1018569943+1017657466+1017764435+1018362074+1018944403+1019462590
3250+1020012005+1020521424+1020892444+1021164656+1021380753+1021463037
3241+1021299751+1020826954+1020026910+1018971853+1017853532+1016877791
3233+1016159559+1015751578+1015685548+1015946092+1016489032+1017260884
3224+1018100114+1018781858+1019335994+1020076753+1021080889+1021923963
3216+1022211890+1022060339+1021813824+1021576954+1021232372+1020661712
3207+1019743030+1018356409+1016604230+1014863652+1013384157+1011976223
3199+1010331148+1008472674+1006593158+1004634729+1002421017+1000043480
3190+997725766+995380738+992629347+989292255+985687268+982344579+979486691
3180+976856096+974042452+970904933+967624159+964388911+961138150+957707713
3170+954194386+950974650+948296168+946049678+944012135+942106045+940375314
3160+938901754+937757803+936888560+936064707+935106840+934185258+933788743
3150+934277052+935471183+936799464+937842381+938590559+939223269+939883026
3140+940684688+941730843+943030729+944464900+945865011+947124025+948258871
3131+949404440+950697987+952080022+953266329+954039057+954502411+954910190
3121+955388584+956025274+957036289+958598810+960599729+962702424+964605345
3111+966175285+967394843+968264626+968845943+969360825+970058824+970946075
3101+971828606+972592229+973225816+973688496+974013923+974371454+974793531
3091+975107222+975300050+975592091+976014235+976306074+976331636+976219743
3081+976068664+975834424+975487077+975058121+974604547+974246544+974166890
3071+974522735+975356232+976512526+977695393+978746808+979791546+980983114
3061+982298783+983671308+985035336+986185357+986943787+987508174+988227351
3051+989065367+989685398+989982430+990130339+990219300+990236027+990282092
3041+990496098+990876224+991356776+991911857+992492027+992975682+993220443
3031+993147332+992857719+992626716+992674873+992996523+993466149+994014417
3021+994640451+995304052+995879028+996249172+996391685+996258817+995722014
3012+994842384+993995397+993450299+992980403+992069748+990388927+988102239
3002+985980995+985136774+986280725+989123910+992639396+995885908+998511444
2992+1000609351+1002355797+1003831987+1004980592+1005638258+1005728163
2983+1005360717+1004551433+1002960248+1000161712+996123453+991369254+986874250
2973+983767082+982739677+983590845+985475825+987555319+989313029+990499875
2963+991074852+991171637+990947109+990423189+989507206+988209747+986825689
2953+985789988+985277129+985044980+984731289+984175130+983377311+982292780
2944+980742062+978471629+975327972+971441061+967238368+963328121+960405282
2934+959066682+959452878+961060587+963012474+964541136+965286549+965319733
2924+964994441+964767755+965016158+965815393+966886233+967936501+969048416
2914+970532429+972471029+974650680+976840448+978851822+980449010+981568276
2904+982517510+983592599+984614473+985218923+985478253+985853523+986636570
2894+987731960+988883195+989876675+990604147+991102370+991503067+991877054
2884+992164981+992289891+992214622+991783642+990628562+988504014+985751274
2874+983251659+981891612+982113711+983783876+986314583+989028002+991523975
2864+993657898+995252186+996014999+995756951+994590473+992945803+991431979
2854+990587555+990652640+991540567+993013114+994822150+996660727+998077295
2844+998565806+997742291+995362527+991201583+985086460+977325654+969283667
2834+963299861+961473087+964231492+970157564+977148811+983652558+989075214
2825+993501491+997207579+1000305777+1002754133+1004619351+1006175667+1007674519
2815+1009113613+1010302821+1011139420+1011748390+1012343668+1013029526
2806+1013790047+1014581390+1015334155+1015944001+1016366078+1016661087
2798+1016908411+1017174351+1017559062+1018118527+1018741727+1019271920
2789+1019715850+1020163219+1020578146+1020842602+1020932035+1020886374
2781+1020699616+1020362791+1019930800+1019444177+1018873922+1018223945
2772+1017614705+1017177251+1016898699+1016655893+1016382198+1016101623
2764+1015837909+1015625859+1015604276+1015911492+1016451465+1016900115
2755+1017008636+1016834895+1016651914+1016673699+1016911042+1017266482
2747+1017682623+1018173832+1018764727+1019399528+1019897077+1020093075
2738+1020055710+1020031159+1020160791+1020396042+1020675741+1021026864
2730+1021487453+1022031539+1022562542+1022982460+1023326637+1023753098
2721+1024303996+1024783065+1025027354+1025184504+1025501500+1025905906
2713+1026065685+1025836504+1025418204+1025091833+1025049274+1025421374
2704+1026171440+1026938301+1027264267+1027065841+1026718292+1026605860
2696+1026771035+1027085670+1027504712+1027935759+1028100058+1027823529
2687+1027325306+1027002442+1027073463+1027538907+1028264828+1028970988
2679+1029337961+1029280902+1029028384+1028863141+1028896864+1029098730
2670+1029355025+1029444256+1029183307+1028719616+1028475732+1028700529
2662+1029214872+1029660016+1029888792+1030041895+1030252866+1030419187
2653+1030426674+1030444547+1030677168+1030975212+1031039893+1030847267
2645+1030569322+1030297313+1030095649+1030107317+1030382497+1030751426
2636+1030984452+1030999627+1030811251+1030338859+1029492750+1028497989
2628+1027886119+1027978655+1028556397+1029167660+1029619683+1030028068
2619+1030485622+1030872154+1031028629+1030989578+1030948638+1031084272
2611+1031474784+1032073097+1032689284+1033061720+1033040812+1032772445
2602+1032646253+1032926289+1033451086+1033815092+1033785618+1033459382
2594+1033129908+1033046478+1033216846+1033484674+1033819611+1034350006
2585+1035099870+1035866528+1036399082+1036633794+1036740696+1036886716
2577+1037024036+1037049666+1037014391+1036991932+1036942224+1036827296
2568+1036628600+1036294743+1035892630+1035599847+1035412415+1035224915
2560+1035225792+1035719091+1036544293+1037127093+1037105915+1036612144
2551+1036031097+1035726713+1035886223+1036404140+1036976419+1037405241
2543+1037712457+1037924912+1037967403+1037844921+1037694247+1037574665
2534+1037419876+1037231298+1037143685+1037289368+1037666257+1038084826
2526+1038293504+1038278598+1038341795+1038750248+1039396920+1039902090
2517+1039984779+1039669065+1039143998+1038528149+1037924844+1037601441
2509+1037783478+1038262884+1038569493+1038569088+1038566121+1038772168
2500+1038998449+1039009443+1038907734+1038904497+1038896741+1038680509
2492+1038492065+1038757397+1039298247+1039449123+1039052001+1038677474
2483+1038777024+1039211983+1039675404+1040077180+1040410026+1040522998
2475+1040183408+1039381880+1038543391+1038301395+1038966412+1040210723
2466+1041261801+1041536981+1041221199+1041020412+1041219850+1041354539
2458+1040962813+1040198920+1039534038+1039266817+1039410814+1039760521
2449+1040066052+1040265894+1040476595+1040793186+1041198065+1041511419
2441+1041464072+1041091163+1040906293+1041320547+1042067915+1042543477
2432+1042491206+1042106966+1041695748+1041479045+1041585609+1041976593
2424+1042388014+1042556426+1042549210+1042663666+1042969398+1043256313
2415+1043455346+1043718048+1044034168+1044200287+1044224702+1044365395
2407+1044676456+1044857480+1044668767+1044264900+1044012045+1044088057
2398+1044288102+1044211213+1043726344+1043191700+1043017352+1043109686
2390+1043036237+1042639722+1042141499+1041722524+1041359126+1041106001
2381+1041243793+1041960474+1042977154+1043758044+1044164743+1044600849
2373+1045327377+1046001162+1046193113+1045991450+1045794305+1045777309
2364+1045782097+1045565056+1045058132+1044424612+1043861708+1043418723
2356+1043069218+1042807325+1042642015+1042615104+1042776772+1043063418
2347+1043291925+1043360180+1043416835+1043597725+1043672387+1043330099
2339+1042602222+1041838599+1041506900+1041879471+1042682281+1043304874
2330+1043463237+1043299007+1042925288+1042419309+1042129831+1042474884
2322+1043398220+1044293700+1044572791+1044207166+1043657347+1043318971
2313+1043164115+1042982145+1042786754+1042798288+1043135990+1043682976
2305+1044255660+1044855727+1045615168+1046376296+1046623486+1046172542
2296+1045613078+1045579490+1045878410+1045875308+1045433199+1044889585
2288+1044411595+1043929357+1043461214+1043162294+1043248017+1043853008
2279+1044679356+1045086527+1044877647+1044531177+1044439450+1044506896
2271+1044562067+1044646442+1044996082+1045973104+1047603476+1049151226
2262+1049715344+1049190884+1048253722+1047743291+1048245764+1049675213
2254+1051161655+1051929258+1052119320+1052153650+1051797873+1050645963
2245+1049104823+1048053205+1047723057+1047614469+1047411794+1047333557
2237+1047508916+1047640369+1047519708+1047301385+1047062694+1046705635
2228+1046392011+1046306422+1046084862+1045376410+1044643744+1044447139
2220+1044555795+1044664315+1045108649+1046071643+1047067010+1047859568
2211+1048924877+1050494345+1051922446+1052466262+1052340273+1052520219
2203+1053439305+1054408369+1054750995+1054733863+1054611112+1053753873
2194+1051843938+1050064444+1050028495+1052030696+1054783436+1056465808
2186+1056213560+1055031435+1054731435+1055692743+1056523070+1056065516
2177+1054597218+1053052166+1052158439+1052179684+1052721208+1052944859
2169+1052503223+1052040678+1052258057+1052734562+1052496208+1051749177
2160+1052072985+1054422870+1057747821+1060236712+1060966747+1060012252
2152+1057949147+1055467675+1053359517+1052523187+1053173096+1054256818
2143+1054790450+1055360841+1057017651+1059259488+1060522346+1060246290
2135+1059304204+1058724709+1058823584+1059197302+1059075832+1058088895
2126+1056885052+1056473902+1056883434+1057096900+1056454815+1055436515
2118+1054785325+1054480671+1054033100+1053448006+1053293420+1053762979
2109+1054275770+1054366485+1054417137+1054880963+1055280580+1054796925
2101+1053549714+1052552863+1052580516+1053561450+1054840765+1055685863
2092+1055797958+1055571272+1055665967+1056256051+1056922283+1057248451
2084+1057211289+1057047800+1057054544+1057396832+1057865784+1058008702
2075+1057592561+1056627948+1055115068+1053294836+1051874694+1051426313
2067+1051826133+1052583349+1053299355+1053715497+1053840541+1054040316
2058+1054572600+1055090248+1054895059+1053666126+1051921434+1050759812
2050+1050990882+1052296366+1053483415+1053911562+1054274556+1055687010
2041+1058350383+1061289679+1063292891+1063858561+1063173107+1061533698
2033+1059331115+1057585276+1057596270+1059286399+1060597548+1059781924
2024+1057802925+1056884445+1057308478+1057499283+1056759535+1056040494
2016+1056373070+1058100564+1061153033+1064664068+1066844663+1066500284
2007+1064500579+1062916543+1062898535+1063928637+1064795183+1064735426
1999+1063813102+1062595433+1061574031+1060741815+1059774033+1058754385
1990+1058439952+1059346021+1061048020+1062745837+1063851209+1063719555
1982+1061725042+1058281791+1055156817+1053922016+1054339237+1055048229
1973+1055562370+1056504320+1057971067+1058835387+1058387546+1057852767
1965+1058857645+1060979292+1062295500+1061817039+1060429743+1059643592
1956+1060137837+1061399278+1062247546+1061910721+1060809194+1060032418
1948+1059991074+1059945413+1058980801+1057130893+1055422082+1054911583
1939+1055785751+1057385704+1058822033+1059697414+1060338691+1061194310
1931+1062172277+1062741588+1062565082+1061897232+1061340128+1061253123
1922+1061534710+1062032326+1062800468+1063687450+1064123354+1063739519
1914+1062804650+1061848334+1061223514+1060972952+1060925066+1060839140
1905+1060456181+1059632464+1058665289+1058280577+1058980801+1060512836
1897+1062110766+1063072545+1063181943+1062884574+1062941970+1063619937
1888+1064362247+1064753097+1065228321+1066152466+1066980904+1066998710
1880+1066381782+1065871553+1065830478+1066112470+1066494079+1066817955
1871+1066928229+1066771822+1066551341+1066516471+1066612245+1066639223
1863+1066565235+1066500217+1066427443+1066059053+1065105772+1063736349
1854+1062633472+1062429988+1063139182+1064257976+1065274117+1065923891
1846+1066162110+1066178500+1066306175+1066596934+1066787739+1066740864
1837+1066650824+1066821192+1067307478+1067911052+1068379059+1068517593
1829+1068331712+1068006016+1067589334+1066975846+1066221463+1065558806
1820+1065138281+1064992193+1065111909+1065458244+1066026881+1066864020
1812+1067885422+1068766401+1069210128+1069230767+1069055677+1068948506
1803+1069117188+1069584521+1070137308+1070545694+1070805900+1071036835
1795+1071263453+1071386745+1071331776+1071168220+1071006080+1070907069
1786+1070926696+1071081821+1071296569+1071459519+1071493916+1071413453
1778+1071364353+1071511250+1071906821+1072493533+1073093532+1073481347
1769+1073638293+1073707830+1073741823+1073670398+1073406751+1072949131
1761+1072493870+1072294905+1072361541+1072514779+1072657090+1072833258
1752+1073055290+1073212237+1073168870+1072934697+1072660664+1072457854
1744+1072264082+1071905067+1071329888+1070731237+1070328585+1070123077
1735+1070012870+1069965456+1069972807+1069908936+1069603069+1068945875
1727+1067960355+1066854848+1066006715+1065725802+1065991607+1066604556
1718+1067366358+1067917864+1067932297+1067599114+1067298305+1067202734
1710+1067203611+1066974362+1066236773+1065145767+1064220543+1063753885
1701+1063722927+1063992576+1064325354+1064570385+1064733672+1064848870
1693+1064943227+1064990372+1064922116+1064725511+1064399747+1063819510
1684+1062983584+1062375694+1062240060+1062344803+1062505257+1062515374
1676+1062141117+1061480551+1060879607+1060362769+1059741929+1059035230
1667+1058329745+1057330533+1055318755+1051516960+1045891360+1039111354
1659+1031642320+1023730503+1014232695+996876015+964239720+930239129+908067347
1649+889128991+865128951+839788691+823891677+818400159+818632240+821825402
1639+827022519+834701714+846288459+860709621+874296139+886417731+898550586
1629+911329236+923884168+935170104+945379872+954911606+962980707+968963029
1619+973828581+979303170+986096935+992394432+995481300+992814958+981860991
1609+963328188+944117823+932936833+933156909+941822165+953598433+964613843
1599+973753581+981542579+988580363+994901197+1000089680+1003560382+1004599859
1589+1002070905+994126782+978709983+955361403+927541965+902944286+889309611
1579+889494616+902300986+923096062+939096134+938478868+920880394+890222425
1570+857428172+840933991+846370608+864160157+883733718+899617918+912390903
1560+926234053+941539161+952708551+960377495+967295023+973916261+980077180
1550+985796463+990874403+995096116+998624754+1001786014+1004916451+1008488524
1540+1012399446+1015435256+1017358546+1018976170+1020927651+1023215891
1531+1025303950+1026986660+1028455228+1029806171+1030995715+1032055359
1523+1033130043+1034271431+1035196318+1035594856+1035573273+1035398453
1514+1035054411+1034390473+1033485079+1032453021+1030801606+1027035558
1506+1020714927+1013697376+1006111661+996983389+987038009+980338668+982530932
1496+993671320+1006757928+1016990358+1024417373+1030004395+1033241531
1487+1032878402+1028463929+1020141164+1008858195+997439256+989569391+986314111
1477+985373240+984218632+982232416+979441772+974736471+967581398+959554654
1468+953312597+952070917+957159445+964402063+968170809+966211908+956731298
1458+937491864+914776467+900183048+894204098+892120962+889865096+883637338
1448+871500976+856119249+842060406+830698391+820882845+812086677+804463933
1438+797493055+791314330+788502778+790888746+797838109+808005319+819644065
1428+831045536+841767151+852161182+862054359+870963836+879250383+887764222
1418+896243394+903664541+910083846+916122284+922026369+927696281+932858865
1408+937280286+941058002+944523443+947847653+951030495+954178198+957420259
1398+960611060+963338642+965124072+965416585+963692936+959565513+952709495
1388+943611709+935020104+930772087+932194792+937790987+945307705+952915070
1378+959574888+965031334+969494840+973237147+976420867+979212388+981727785
1368+983780166+984785246+983619914+978246966+966537874+949195965+930229080
1358+913047827+898802159+888229127+883145994+885325038+894264597+907002038
1349+920020053+930918378+938447910+941748581+940318727+934848994+928067234
1339+924036663+925242260+931010239+939160342+947732657+955497239+961970771
1329+967143067+971152055+974221926+976715268+979087276+981721783+984657301
1319+987266178+987989401+984478771+974798656+959670054+943525580+931957045
1309+927795090+930104642+936157513+943623444+951216106+958218347+964139091
1299+968743695+972025548+974198927+975841034+977729319+980273785+983242150
1289+986135312+988673304+990873863+992860754+994737640+996563065+998314772
1279+999868997+1001073919+1001880371+1002344871+1002356539+1001358609+998713175
1269+994683549+990798189+988801046+989289153+991521547+994352524+997086311
1259+999590175+1001966499+1004259729+1006396080+1008272157+1009829080
1251+1011050054+1011857585+1011981079+1010986183+1008529531+1004615979
1242+999733700+994892564+991426920+990435869+992204302+996085953+1000903348
1232+1005537089+1009353586+1012228943+1014241598+1015406727+1015666596
1224+1014910931+1012769859+1008277014+999659442+984511685+960910183+929690186
1214+896244406+868993335+854452591+853413047+862168342+876514167+893604166
1204+911170198+927076318+940045705+949904687+956907737+961232507+962893904
1194+961422840+955473836+943358112+924950421+903744735+886603140+880129608
1184+886384884+902028437+921295457+939510657+954496341+966018136+974706255
1174+981324998+986407861+990149359+992561496+993682920+993539935+992013633
1164+989070560+985310650+982157349+981144243+982735630+985891764+988787490
1154+989555160+986492506+979065153+969758352+963643903+964357414+970807339
1145+978735275+984788348+988207589+989575258+989423573+987941110+984928096
1135+979192896+967932792+948218268+921415645+896030535+883182550+887604780
1125+904190890+923614721+939640557+951011003+959022235+965152264+970195334
1115+974135056+976219810+975169002+969389962+957088964+936663223+907974541
1105+873837844+839670189+810662420+788960264+773762934+763939361+759927540
1095+763045365+773660483+790418311+810851201+832417252+853204099+872063070
1085+888394370+901957214+912683888+920341433+924296667+923582010+916967449
1075+902974502+880250336+848283646+807876092+761134283+711420198+663514474
1065+623306561+596141348+584466856+586780792+598889030+616294878+635798835
1055+655583638+674626737+692424446+708974472+724551928+739422482+753783887
1045+767738390+781175178+793840384+805594058+816477611+826534615+835746587
1035+844236146+852394545+860626797+869004261+877277251+885165866+892523344
1026+898989996+903158629+902690554+896926217+889576428+886671800+890775415
1016+898669223+905150376+907198440+903854469+894113990+876723519+852135890
1006+824304716+800114613+786211503+785597206+796682894+814993395+835652770
996+855098117+871584474+884714450+894766192+902546287+909407768+916588875
986+924273129+931645108+937903419+942842218+946517416+948881802+949794818
976+948873371+945020587+936105040+919129632+891101920+850932451+801880348
966+752391870+713236113+692169770+690412870+703543858+724987157+748881982
956+771361520+790828315+807401475+821754314+834249219+844979738+854247421
946+862666498+870768715+878646539+886032412+892662418+898553688+903969734
936+909123416+913938990+918156993+921661014+924645565+927437559+930160892
926+932656055+934734740+936324576+937291482+937129409+934520262+927492392
916+915679501+903179942+897101981+901349593+912880426+925285290+934675523
907+941017939+945590371+949097561+951739083+953720578+955312437+956710053
897+958046427+959430486+960828438+962087655+963239294+964484482+965780524
887+966811840+967444888+967877688+968385557+969120785+969984700+970655788
877+970997874+971205338+971132496+969983284+967435108+964669149+963384438
867+963988012+965471891+966788031+967640414+968145854+968401137+968418740
857+968140930+967462626+966367371+965034504+963669465+962115712+959730553
847+955732626+949394189+939706520+925286639+905388730+881688892+859264726
837+844940417+843268499+853572152+870961273+889881148+906637222+919812792
827+929600551+936820102+942208360+946363437+949841490+952960799+955661268
817+957718842+959100203+960041951+960691658+960763016+959538197+955871564
807+948739760+939265963+931849537+930961745+936324172+943049277+946666876
798+946140056+941915847+933028425+916898384+891416084+857612300+821316455
788+791840207+777449261+780851707+798334174+822640622+846417686+863330302
778+867100599+851432765+812957269+755270936+689904260+632622940+597110412
768+589275349+605197116+634478985+666814943+696332333+721300560+741851009
758+758475496+771389847+780339995+785335313+788008736+791620063+798699664
748+808754576+819076507+827610985+834255829+839787342+844734504+849339580
738+853668060+857468910+860363488+862317398+863708673+864837989+865384773
728+864421173+861263150+856513470+851932877+848942188+847480702+846485132
718+845094800+843075198+840495188+837547259+834542272+831760328+829315884
708+827165909+825163843+823232325+821618276+820863892+821373919+823003683
698+825135650+827220675+829220448+831507810+834452771+838096607+842094534
688+846030006+849824314+853668667+857584580+861340308+864820857+868166650
679+871466106+874641462+877753487+880995749+884276389+887342550+890345851
669+893617857+896641393+898865558+901069288+904039271+907528858+910660846
659+913114126+915301331+917481522+919466255+921087318+922511845+924082864
649+925974318+928076609+930294367+932762755+935510706+938130510+940144716
639+941621311+943129200+945068609+947258445+949329103+951349380+953744791
629+956758884+960349100+964475242+968960601+972006731+967896236+948496820
619+912295332+872800390+851138229+856174352+877729678+900561555+917730263
609+929973797+939183206+945854827+949596392+948198034+936499666+910553675
599+876055939+848885399+842207506+855218710+876860974+896913132+911392568
589+920787589+926897316+931193085+934519722+937514391+940726370+944219801
579+947605589+950518378+952696073+953846904+953854323+952941239+951494119
569+950006665+949228406+949887016+952023367+955021543+958385208+961861238
560+964710021+965597273+963342487+957149868+946352713+931279146+915095621
550+903790463+902536035+911508372+925928792+939996874+950251764+956169203
540+959193750+961245052+963284686+965085088+966158895+966389156+965870834
530+964569194+962000919+957076149+948913434+938621381+929661320+925647273
520+927787738+934118014+941370344+947610850+952591802+956551959+959705058
510+962348873+964838168+967410895+970153046+973115272+976188583+978751597
500+979936083+979420796+977553150+975132177+973444948+973645802+975286561
490+976171047+974740383+971845265+969516693+968848910+969490996+970507272
480+971085621+970448189+966915235+957572214+941326639+923876209+915831996
470+921026550+932581663+942560631+948552328+952126762+955052703+957454117
460+958337119+957394764+955976780+955519631+955771340+955806209+955139911
450+953530515+950963724+947988615+945581468+944415125+944200310+943884595
441+942639677+940381789+937391707+934080649+930841489+927400261+922594668
431+915174803+904958425+893607066+884066901+878310118+875077298+870751449
421+862376548+849539759+835874937+825634750+818632308+812578830+805398465
411+795648948+783151075+769221662+755715877+743712788+733311068+724142868
401+715351826+705927331+696518821+690117120+688414851+689599067+690518625
391+688727058+683427626+674979749+664234527+654319026+650801516+654557380
381+659514928+660752966+658763041+658303734+666199161+683583291
##END=
