##TITLE=LL- 178
##JCAMP-DX=4.24
##DATA TYPE=INFRARED SPECTRUM
##DATE=26/7/2019
##SAMPLING PROCEDURE=Diamant-ATR
##ORIGIN=Rieke
##XUNITS=1/CM
##YUNITS=TRANSMITTANCE
##RESOLUTION=4
##FIRSTX=3997.453
##LASTX=373.96442
##DELTAX=-1.4165319
##MAXY=1.0004208
##MINY=0.41591451
##XFACTOR=1
##YFACTOR=9.3171448e-010
##NPOINTS=2559
##FIRSTY=0.99850655
##XYDATA=(X++(Y..Y))
3997+1071687264+1071670247+1072010647+1072680446+1073290173+1073288382
3989+1072556914+1071656748+1071289607+1071608833+1072197193+1072586981
3980+1072666180+1072612378+1072600543+1072629971+1072623765+1072616473
3972+1072633042+1072386425+1071513705+1070274418+1069543206+1069868061
3963+1070897004+1071877967+1072478355+1072937170+1073457655+1073741823
3955+1073343015+1072358981+1071409109+1070969422+1071059048+1071462782
3946+1071911617+1072193035+1072334991+1072475668+1072470294+1072075708
3938+1071473913+1071086045+1071047469+1071216166+1071547994+1072059843
3929+1072511557+1072629907+1072492813+1072377021+1072281254+1071926331
3921+1071368358+1071071267+1071305728+1071871890+1072469782+1072912412
3912+1072951180+1072440419+1071658476+1071123021+1071095321+1071317243
3904+1071084701+1069998630+1068733371+1068153071+1068239179+1068517781
3895+1068802398+1069058994+1069002889+1068296626+1067338566+1066956966
3887+1067420451+1068336610+1068988815+1069164165+1069277142+1069568539
3878+1069727704+1069421785+1068721472+1067920976+1067169293+1066393875
3870+1065918043+1066348454+1067391599+1068243657+1068640546+1068812505
3861+1068933670+1068965593+1068931559+1068885627+1068680337+1068165865
3853+1068128697+1069404384+1070790105+1071272846+1070964432+1070451432
3844+1070184408+1070063691+1069730007+1069298125+1069306825+1069807159
3836+1070153445+1070027290+1069698916+1069553633+1069717724+1069888596
3827+1069633600+1068918509+1068215892+1068025764+1068517589+1069198135
3819+1069120792+1068180387+1067128478+1066763512+1067097963+1067612690
3810+1068005229+1068242249+1068507738+1068977300+1069346297+1069191866
3802+1068718273+1068643808+1068947297+1068913071+1068500956+1068252549
3793+1068334498+1068436472+1068413889+1068357145+1068186849+1067733983
3785+1067285980+1067376054+1067867431+1068107266+1067945030+1067940936
3776+1068351579+1068761071+1068848074+1068686926+1068464876+1068283064
3768+1068242505+1068402822+1068560387+1068339041+1067635337+1066840663
3759+1066681178+1067487047+1068499293+1068869377+1068630950+1068363030
3751+1068376593+1068229263+1068004014+1068694027+1070794199+1072999607
3742+1073290173+1072099122+1070662671+1069463687+1068625320+1068198492
3734+1067806145+1066965411+1066030380+1065624855+1065868720+1066444670
3725+1067032518+1067707242+1068718849+1069824431+1070386243+1070219209
3717+1069862687+1069955128+1070661711+1071602307+1072181712+1072332496
3708+1072474068+1072604574+1072453405+1071854553+1070779614+1069510196
3700+1068648606+1068450226+1068605360+1068712323+1068546313+1068036960
3691+1067237104+1066411724+1065974340+1066014963+1066349350+1066879367
3683+1067448599+1067738013+1067494404+1066861454+1066475185+1067170380
3674+1068711492+1069510580+1068814488+1066864141+1064819178+1064039538
3666+1064444040+1065258865+1065874861+1066049764+1066006966+1066071771
3657+1066203299+1066098703+1065664710+1065007067+1064117649+1063177053
3649+1063065676+1064096922+1064846942+1064652016+1063929120+1063249598
3640+1063028443+1063234437+1063329117+1062817780+1061865477+1061194527
3632+1061319850+1062198265+1063407164+1064108821+1063937245+1063330972
3623+1062534187+1061482150+1060197698+1059288769+1059441793+1060047490
3615+1059922230+1058766173+1057298375+1056348630+1056113401+1056404223
3606+1056872570+1057016829+1056536199+1055683182+1055212916+1055613771
3598+1056434802+1056994119+1057234018+1057427536+1057572499+1057523560
3589+1057358701+1057328890+1057457923+1057411863+1057156162+1056994758
3581+1056979213+1056764775+1056174048+1055594580+1055474694+1055775048
3572+1056192472+1056581684+1056957590+1057280654+1057386785+1057284748
3564+1057278415+1057504880+1057735503+1057525799+1056650135+1055505017
3555+1054817371+1054896377+1055271452+1055273627+1054888125+1054553418
3547+1054502303+1054675030+1054925933+1055136532+1055310027+1055550502
3538+1055828721+1055921482+1055743637+1055499771+1055341566+1055237098
3530+1055279832+1055686125+1056303657+1056574071+1056251519+1055695017
3521+1055278489+1054962142+1054613041+1054301236+1054132155+1054067926
3513+1054047455+1054132859+1054422209+1054802465+1054975704+1054885182
3504+1054848078+1055097893+1055411489+1055487681+1055404068+1055363445
3496+1055423388+1055629061+1056051091+1056541893+1056756075+1056553728
3488+1056214607+1056075337+1056101502+1056030748+1055783940+1055569502
3479+1055649085+1056095937+1056702977+1057061162+1056881398+1056268920
3471+1055549990+1054954529+1054613680+1054731327+1055514549+1056805526
3462+1057916482+1058146530+1057507311+1056630815+1056046293+1055860260
3454+1055977266+1056316132+1056824462+1057429455+1057949748+1058098934
3445+1057761476+1057225189+1056939230+1057036021+1057221607+1057218984
3437+1057067880+1056857024+1056567034+1056339418+1056424502+1056738354
3428+1056977614+1057145159+1057453957+1057844769+1058050314+1058027412
3420+1058060742+1058428587+1059028782+1059391894+1059160119+1058506122
3411+1057908934+1057582799+1057338038+1057002883+1056773667+1056951065
3403+1057413142+1057699422+1057597897+1057269075+1056903149+1056625378
3394+1056540485+1056583795+1056618149+1056827981+1057630907+1059031597
3386+1060307860+1060555244+1059631025+1058409395+1057899146+1058253813
3377+1058821574+1058956493+1058515334+1057779644+1057196210+1057056172
3369+1057210667+1057203311+1056808213+1056304041+1056086277+1056181213
3360+1056356499+1056524556+1056739250+1056952728+1057111957+1057353711
3352+1057769216+1058146722+1058253301+1058189008+1058165658+1058113008
3343+1057833957+1057404634+1057085408+1056943196+1056894257+1057014910
3335+1057441354+1058029843+1058466907+1058641681+1058652813+1058594661
3326+1058570799+1058722607+1058975557+1058961867+1058505291+1057963311
3318+1057799668+1058022166+1058302944+1058425900+1058387068+1058222658
3309+1057903752+1057360876+1056638044+1056005543+1055735896+1055811576
3301+1056086660+1056591344+1057337014+1058001823+1058182610+1057867543
3292+1057429903+1057239072+1057363499+1057565014+1057558745+1057331769
3284+1057180984+1057385826+1057896011+1058401079+1058605025+1058380927
3275+1057829031+1057272721+1057038004+1057194738+1057630843+1058242105
3267+1058864372+1059228186+1059245459+1059138048+1059087318+1059012725
3258+1058838462+1058676994+1058610590+1058535678+1058332116+1057975274
3250+1057436173+1056688007+1055934916+1055622472+1056005735+1056864381
3241+1057851678+1058835776+1059654823+1059881224+1059232984+1058049163
3233+1057067048+1056767206+1057037684+1057440651+1057721620+1057986661
3224+1058417200+1058991038+1059545365+1059954601+1060149911+1060051520
3216+1059630513+1059038442+1058518405+1058151903+1057900489+1057856220
3207+1058105523+1058392954+1058331668+1057913028+1057461634+1057226981
3199+1057287883+1057663853+1058285863+1058954126+1059407695+1059464183
3190+1059201510+1058938516+1058900644+1059054052+1059336941+1059751166
3182+1060150486+1060292826+1060162961+1059953769+1059726345+1059339692
3173+1058759648+1058212870+1057946166+1057889422+1057658607+1056957910
3165+1055966839+1055223920+1055091559+1055445586+1055922058+1056267448
3156+1056355219+1056110267+1055622856+1055194492+1055145297+1055612812
3148+1056495512+1057469055+1058117486+1058192974+1057779452+1057187445
3139+1056724536+1056545092+1056622371+1056820048+1057020284+1057217768
3131+1057448647+1057607748+1057475004+1057043186+1056675725+1056730677
3122+1057134987+1057525159+1057639543+1057409240+1056912745+1056437233
3114+1056306472+1056482526+1056609448+1056483230+1056177246+1055719455
3105+1054999950+1053978108+1052745283+1051454946+1050316800+1049522383
3097+1049122871+1049034780+1049047383+1048792450+1047946406+1046555183
3088+1044987651+1043584977+1042490654+1041636933+1040691731+1039247858
3080+1037300582+1035294514+1033508833+1031691422+1029435412+1026614007
3071+1023282737+1019387480+1014806496+1009691080+1004623517+1000296633
3063+997043091+994794309+993398096+992773143+992880106+993805925+995816087
3053+999073980+1003319873+1007959841+1012467960+1016613607+1020297689
3044+1023359185+1025692283+1027417509+1028759920+1029825455+1030598442
3036+1031020345+1030971341+1030293035+1028961435+1027163855+1025107953
3027+1022804922+1020126113+1017034230+1013651270+1010105562+1006355076
3019+1002083785+996764488+990028123+982099363+973702960+965413904+957200913
3009+948634213+939417164+929677839+919885991+910577332+902113694+894650978
2999+888325512+883463750+880533079+879849655+881402793+884949269+890030586
2989+895831026+901360667+905981954+909566622+912130982+913583107+913790444
2979+912687484+910418679+907511358+904771072+902930374+902497660+903856320
2969+907238193+912479892+918884173+925495215+931687553+937423571+942795582
2959+947528311+951227938+953891649+955853192+957416950+958749957+959902944
2949+960813984+961487557+962150446+963003463+963858847+964210699+963695332
2939+962447985+960977755+959666819+958510314+957391744+956337020+955285878
2929+953810659+951226659+946913530+940626511+932725580+924167133+916296334
2919+910607591+908340513+909917642+914769744+921793412+929890869+938136679
2910+945787603+952381948+957770017+962027745+965411729+968310669+971021849
2900+973489738+975401510+976586675+977100954+976786271+974988116+970929919
2890+964309153+955538444+945767260+936848901+930891664+929303532+932122698
2880+938312477+946573193+955797343+965054632+973601819+981032100+987296728
2870+992527679+996862814+1000380950+1003125267+1005162746+1006650120+1007852686
2860+1009036252+1010252828+1011281387+1011910754+1012234458+1012500522
2851+1012748801+1012825569+1012708690+1012529758+1012232987+1011411060
2843+1009543046+1006303450+1001658556+995776232+988951264+981732989+975118429
2833+970409306+968656252+970156805+974381459+980259561+986614391+992558578
2823+997675017+1001961661+1005634035+1008906194+1011871795+1014521879
2815+1016751533+1018379584+1019390742+1020176396+1021246346+1022673329
2806+1024073508+1025115437+1025789458+1026232855+1026567115+1026921206
2798+1027383987+1027872805+1028170664+1028168937+1028044765+1028134327
2789+1028596788+1029218799+1029622405+1029679341+1029607115+1029646459
2781+1029845735+1030183513+1030600361+1030857341+1030709180+1030302695
2772+1030082499+1030268213+1030690947+1031082846+1031278732+1031226914
2764+1031036274+1030948375+1031115153+1031470459+1031887180+1032331985
2755+1032756126+1032930901+1032630483+1032021843+1031629560+1031755587
2747+1032150557+1032422123+1032521793+1032607005+1032648651+1032489550
2738+1032186254+1032014294+1032104177+1032271786+1032291234+1032169813
2730+1032044170+1031972136+1031978725+1032162008+1032586534+1033164978
2721+1033725190+1034113635+1034237935+1034126046+1033915510+1033722887
2713+1033573702+1033480685+1033471793+1033535894+1033625136+1033711180
2704+1033787116+1033835224+1033823325+1033733251+1033607032+1033552079
2696+1033647655+1033845460+1034020810+1034096170+1034054204+1033876103
2687+1033569416+1033251022+1033087955+1033119941+1033218140+1033263625
2679+1033274500+1033313460+1033387668+1033509089+1033706830+1033876871
2670+1033799719+1033462709+1033184490+1033240658+1033536470+1033855887
2662+1034231857+1034798531+1035432248+1035845258+1035960218+1035940514
2653+1035917676+1035914861+1035949214+1036010757+1036024639+1035987726
2645+1036035770+1036237541+1036450827+1036530794+1036537127+1036555040
2636+1036465221+1036147339+1035806682+1035802652+1036177215+1036616326
2628+1036882838+1037061770+1037320605+1037595882+1037648148+1037406009
2619+1037087040+1036879127+1036689831+1036387942+1036090851+1035993676
2611+1036103262+1036292430+1036464646+1036578262+1036637885+1036680555
2602+1036724056+1036764104+1036786750+1036738386+1036561373+1036291087
2594+1036048565+1035957851+1036088612+1036382184+1036645434+1036725336
2585+1036639036+1036493242+1036397794+1036428757+1036526891+1036492154
2577+1036213359+1035818581+1035529039+1035399238+1035249349+1034898904
2568+1034494211+1034445911+1034929100+1035629029+1036110683+1036234151
2560+1036059952+1035595124+1034914770+1034370615+1034350655+1034866982
2551+1035633827+1036456265+1037256632+1037850686+1038055464+1037962063
2543+1037803026+1037620383+1037353296+1037204366+1037551164+1038397784
2534+1039227195+1039562158+1039407727+1039070333+1038873552+1039059330
2526+1039527485+1039699892+1039130404+1038246040+1038001791+1038746309
2517+1039788751+1040171566+1039628242+1038703320+1038144771+1038311612
2509+1039007384+1039695990+1039928148+1039662852+1039188491+1038810666
2500+1038689309+1038834081+1039100592+1039262316+1039211266+1039084471
2492+1039128101+1039410670+1039720364+1039846327+1039882983+1040035559
2483+1040239057+1040292411+1040223768+1040174700+1040102987+1039938384
2475+1039801098+1039844599+1040136061+1040719815+1041440408+1041824182
2466+1041550505+1040890751+1040385172+1040286205+1040458357+1040580674
2458+1040413832+1040036327+1039763289+1039766168+1039952010+1040243855
2449+1040726404+1041375539+1041811771+1041605778+1040879556+1040301623
2441+1040311923+1040654818+1040843219+1040736128+1040479148+1040228118
2432+1040086993+1040032296+1039839353+1039345481+1038765118+1038445828
2424+1038387932+1038351148+1038353003+1038626168+1039091444+1039296030
2415+1038960747+1038343983+1037988101+1038189808+1038718161+1039062912
2407+1038959916+1038570064+1038140548+1037699966+1037140521+1036425430
2398+1035661847+1035059349+1034806975+1034921615+1035239305+1035565504
2390+1035764012+1035749555+1035543817+1035288373+1035052760+1034772750
2381+1034525174+1034653184+1035402245+1036574999+1037647380+1038116303
2373+1037846464+1037255545+1036914568+1036915656+1037084161+1037544319
2364+1038322808+1038764606+1038175798+1036758986+1035401541+1034745113
2356+1034603285+1034293399+1033569480+1032854645+1032436901+1032070271
2347+1031434442+1030634011+1030192405+1030409850+1030926304+1031187570
2339+1030956819+1030394048+1029940607+1029958136+1030287085+1030373065
2330+1029959095+1029360691+1028936613+1028706182+1028558852+1028487650
2322+1028542091+1028693388+1028808603+1028828051+1028945058+1029389607
2313+1030001253+1030309092+1030141291+1029883927+1030015903+1030553917
2305+1031005567+1030823244+1029893331+1028621354+1027633546+1027425825
2296+1028091657+1029219311+1030190486+1030661903+1030605415+1030063755
2288+1029239142+1028615597+1028521364+1028741432+1028926826+1029172738
2279+1029868253+1031103318+1032460635+1033387668+1033695251+1033592894
2271+1033290173+1032858419+1032552436+1032892901+1034072372+1035458029
2262+1036015043+1035266238+1033662945+1032052998+1031018617+1030693890
2254+1030876405+1031321530+1032169621+1033806628+1035931558+1037236353
2245+1036744272+1035149103+1034055355+1034186756+1035050521+1036009541
2237+1036847972+1037420595+1037500114+1037008865+1036064494+1034968251
2228+1034190786+1033962467+1033928305+1033626288+1033152951+1033065820
2220+1033767541+1034970938+1035694985+1035243975+1034179975+1033633389
2211+1033858702+1034396844+1035234443+1036671023+1038448131+1040024300
2203+1041305616+1042362388+1042854789+1042437364+1041488771+1040772273
2194+1040303286+1039354310+1038000063+1037644949+1039112044+1041254502
2186+1042605677+1043389092+1044618079+1045947759+1045777974+1043350708
2177+1039879848+1037438700+1036934080+1037505040+1037970700+1038257683
2169+1039209411+1041523189+1044769439+1047082577+1046641035+1044284651
2160+1043469570+1046140766+1049992521+1051969929+1052014390+1051322073
2152+1049821585+1046878695+1043138189+1040371673+1039653576+1040411401
2143+1041248680+1041216182+1040346660+1039406576+1039067454+1039013589
2135+1038160316+1036063215+1033688278+1032443618+1032846008+1034357948
2126+1036093474+1037333400+1037667595+1037180312+1036452427+1035930662
2118+1035448113+1034790278+1034356989+1034626443+1035282807+1035551046
2109+1035194908+1034688625+1034555241+1034851628+1035190686+1035092295
2101+1034382706+1033286079+1032146143+1031177718+1030555580+1030471903
2092+1030795031+1030934621+1030451880+1029533418+1028553223+1027705643
2084+1027356159+1027882209+1028773354+1028875583+1027948357+1027057660
2075+1027108455+1027855277+1028584506+1029014661+1029195449+1029110684
2067+1028881597+1028945442+1029408671+1029579351+1028935782+1028104835
2058+1028144371+1029261149+1030641560+1031128203+1029972977+1027433054
2050+1024655407+1022578137+1021046430+1019596288+1018751204+1019552338
2041+1022049208+1025205192+1028309805+1031359402+1033880261+1034679349
2033+1033362591+1031309247+1030407610+1031094937+1032150365+1032466520
2024+1032385466+1032890214+1034308113+1036258268+1037967949+1038498734
2016+1037654481+1036450380+1035827666+1035470184+1034461840+1032872365
2007+1032266412+1033922739+1036606666+1037526535+1035662295+1032701813
1999+1030665550+1029986604+1030082947+1030536580+1031211240+1031889867
1990+1032253810+1032213443+1031988001+1031670951+1031006143+1029924550
1982+1028798815+1027798980+1026742785+1026003384+1026506980+1028253701
1973+1029887893+1030289068+1030144361+1031238365+1033812578+1035595827
1965+1035127480+1034147285+1034553258+1035530127+1035390730+1034261797
1956+1033128066+1032114284+1031102998+1030471200+1030352658+1030374856
1948+1030547392+1031372964+1032704564+1033459126+1033106443+1032553012
1939+1032555059+1032653066+1032195402+1031237853+1030301799+1029859809
1931+1030055695+1030590446+1031101271+1031598341+1032061315+1031895688
1922+1030596075+1028720384+1027251754+1026457593+1025879340+1025190862
1914+1024615552+1024489269+1024869077+1025526273+1026102670+1026301498
1905+1026071451+1025628246+1025314458+1025435943+1026040936+1026833115
1897+1027508862+1028142324+1028971479+1029954937+1030813967+1031245082
1888+1031057385+1030337624+1029391206+1028574206+1028228943+1028447219
1880+1028880573+1029098401+1029131731+1029347065+1029832556+1030304550
1871+1030634971+1031155072+1032080890+1032698295+1032262510+1031177207
1863+1030394176+1030369738+1030715065+1030836038+1030728883+1030833351
1854+1031314493+1031887500+1032283813+1032500490+1032616857+1032732072
1846+1032950924+1033023981+1032463257+1031467325+1030629789+1030081284
1837+1029612489+1029218159+1029174593+1029605452+1030242944+1030492375
1829+1029929923+1028877438+1027906135+1027242926+1026846037+1026649960
1820+1026662243+1026921845+1027445913+1028178213+1028985489+1029733462
1812+1030304934+1030586543+1030609573+1030601833+1030682631+1030680264
1803+1030439469+1030184152+1030247870+1030458661+1030406843+1030102907
1795+1029837674+1029784449+1029867230+1029822577+1029494843+1028994381
1786+1028545034+1028268479+1028076943+1027844145+1027538034+1027103209
1778+1026499687+1025920922+1025782165+1026428485+1027558249+1028187361
1769+1028003694+1027601495+1027494404+1027779213+1028380304+1029153354
1761+1029765513+1030000422+1030075526+1030283439+1030586415+1030733745
1752+1030644375+1030533765+1030631004+1030717752+1030479068+1029992873
1744+1029463752+1028910768+1028228943+1027446616+1026780465+1026355620
1735+1025982912+1025175380+1023846212+1022594962+1021652831+1020926160
1727+1020432928+1020297625+1020537012+1020957315+1021407686+1022081130
1718+1023442158+1025542138+1027375990+1028388620+1028988752+1029548708
1710+1030179418+1030898220+1031709399+1032436261+1032724587+1032543991
1701+1032340621+1032604510+1033120261+1033283712+1032928534+1032202375
1693+1031398298+1030759462+1030308068+1029821041+1029198711+1028922475
1684+1029798075+1031284042+1031970921+1031951409+1031866133+1032242102
1676+1033310197+1034499968+1034891803+1034454292+1033919413+1033861581
1667+1033993557+1033955685+1033961443+1034378547+1035146160+1035797854
1659+1036103582+1036084837+1035872575+1035968406+1037099642+1038180787
1650+1038023861+1037147942+1036254622+1036027006+1036308679+1036448716
1642+1036276501+1035871999+1035433975+1035306733+1035673554+1036002760
1633+1035875965+1035601457+1035450864+1035539467+1035773033+1035821268
1625+1035569406+1035274618+1035065298+1034776524+1034345154+1033826268
1616+1033267207+1032729321+1032265836+1031974823+1031986530+1032159257
1608+1032044682+1031385695+1030154213+1028167785+1025191054+1021076241
1599+1015333378+1006676349+993121221+973093361+947287964+919073469+893186251
1589+874681078+867086258+869790592+878028917+885801454+889055445+887466481
1579+883932417+883409117+892460348+911424528+930158916+944728657+958810859
1570+974650210+989027456+999220478+1006715564+1012650987+1016794267+1019635951
1560+1023498326+1029929284+1034894746+1037413174+1039029774+1040303606
1551+1041539118+1042868159+1044055499+1044939415+1045709203+1046676476
1543+1048001295+1049501016+1050536548+1050678312+1050270228+1049724410
1534+1049472676+1049636575+1049600878+1048952830+1047787817+1046352325
1526+1045195947+1044724850+1044596136+1044290856+1043773122+1043158405
1517+1042535563+1041945091+1041024327+1039409199+1037064457+1033398800
1509+1024360619+999436771+960634092+924634585+887048929+837271668+769257985
1499+682695371+587869483+510025025+466009275+450568956+457842343+491008547
1489+548219032+610586515+664281168+709166920+747853680+780439711+804114037
1479+817841572+825429547+832378879+842695114+856890292+868889275+872662087
1469+869874460+863570233+855255332+847499748+843591249+843359346+844020636
1459+840345830+820107627+778770142+738057034+708919152+689618282+677841606
1449+669007179+659265934+653973122+663821713+691912101+729944352+764428657
1439+787810882+802343646+814702925+828636326+843746447+860084404+877824651
1429+894814749+908271295+918468412+927523289+936161190+943471778+949377965
1419+954980727+960021742+963085348+964581807+965676962+966848117+968084141
1409+969272121+970540259+972384923+975090408+978085500+980745821+983350613
1400+986454394+990031001+993625649+997005538+1000029802+1002460267+1004370631
1390+1006200005+1008306383+1010505202+1012375838+1013988472+1015581913
1381+1017099930+1018343631+1019214880+1019840601+1020594844+1021721218
1373+1022886935+1023694851+1024223973+1024680740+1025104306+1025468057
1364+1025765340+1025923673+1025715761+1024927229+1023606632+1021907188
1356+1019734662+1016762664+1012800684+1007842258+1001857832+994814780+986653351
1346+977297672+966905565+955608367+942767818+927234963+909040635+889820691
1336+870600555+851011998+830540037+809283126+787843508+766948940+747164946
1326+728786120+711965102+696899698+683739988+672428971+662912208+655349055
1316+649918252+646688955+645685217+646770777+649641696+653887078+658499281
1306+661482026+660777235+655825526+647918837+638882128+629431065+619016120
1296+607292541+595397003+585631449+580185548+580278117+586222176+597953112
1286+615311951+637935583+664978603+694659425+723907405+748714566+765067876
1276+769807194+761196417+739317624+706440451+667158229+627439583+592751716
1266+566956171+552403319+550188763+560292991+581531350+611143401+645095322
1256+679494862+711480122+739017782+760563340+774776750+780190920+775282266
1247+758982053+731245757+693599647+649308205+602666264+557943900+518829000
1237+488199425+467852467+458354704+459095864+468513629+484554655+505176953
1227+528580448+553226589+577894544+601765587+624286094+644771810+662129497
1217+674970046+681869799+681478219+672600675+654440189+626983711+591548319
1207+551342198+511442860+477736308+455204222+446396952+450765609+465150660
1197+485109557+506485650+526792625+545825671+564979467+585644051+607743552
1187+629284439+647220635+659113679+664394528+664554333+662507642+661485608
1177+663918249+671026362+683083560+699482675+718468222+737366061+753587523
1167+765624826+773304154+777417687+779270923+780419752+782441045+786533595
1157+793072475+801532979+810841574+819728266+826886854+831121040+831396380
1147+826696406+816120633+799564975+778495186+756164423+737079206+725774587
1137+725213223+735476041+753446718+773773397+790570424+798830756+795127611
1128+778086206+748985044+711988964+673362850+639887977+617379113+609731451
1118+618129133+640168627+669767883+699108240+721980152+735921997+741623470
1108+740947594+735787398+728244780+720987481+716608588+715797921+715571265
1098+709681455+692195949+662487235+628003378+601987510+596639040+616099076
1088+654479085+700134689+742291157+775109219+797598571+811275887+818054795
1078+819412815+816474020+810221611+801730080+792881708+787066043+788176040
1068+797789786+813291935+829151245+839946830+842262912+834846129+818361226
1058+795225937+768941318+743043352+720553552+704107225+695982388+697451338
1048+707897630+724745516+744611396+764747435+783432564+799205830+809991820
1038+812986016+805433930+785871154+755160621+716958713+677441198+643772102
1028+621278976+610762313+607851090+605160063+596426266+580357700+561580194
1018+547971648+546365924+559357641+584709533+617176254+651218505+682941859
1009+710571768+733763993+752475991+765756482+770765254+764026906+746572491
999+728293527+723407135+738805200+768280412+799311898+823516752+839768153
989+850474752+857964912+863765159+868921837+873888131+878443654+882227662
979+885318521+888095721+890778752+893410796+896080521+898832323+901504030
969+903885044+905973382+907946823+909926342+911828838+913468979+914771919
959+915841933+916825007+917750122+918490162+918817896+918508843+917432943
949+915560579+912906848+909552483+905740775+901879168+898418481+895757393
939+894182247+893749278+894223382+895222194+896408127+897526184+898338131
929+898610848+898245242+897454790+896744433+896622117+897383972+899229787
919+902399717+906967715+912558131+918479991+924165278+929344091+933915031
909+937911750+941523542+944849246+947650627+949549284+950338712+949885079
899+947871782+943890610+937870999+930558044+923624962+918960620+917337048
890+917540162+916604492+910478238+894621551+865731500+825435561+782836399
880+750973391+738524742+745186514+765155071+792876654+824288204+855188800
870+881610962+901772205+916275542+926552818+933767957+938771292+942307468
860+944987556+947100395+948610927+949455436+949744082+949692456+949586709
850+949779843+950521227+951836322+953641770+955860613+958462334+961497792
840+964953682+968503164+971676549+974344674+976720315+978856376+980529272
830+981691407+982630787+983463397+983753003+982906255+980733282+977238816
820+971974920+964126830+953384918+940213629+924868598+906504806+883950777
810+857840420+832187791+813691767+808686513+819610748+843479424+873505700
800+902773192+927202016+945901731+959636688+969415740+976116665+980465683
790+982748050+982572380+978885164+969879737+953151609+927090383+893065341
781+856307881+824427793+804668364+801187205+812854487+832771610+850968944
771+859204582+854404874+838494769+815741528+790328222+765403863+742828403
761+722865603+704367787+685698715+665584236+643565341+620244019+597005990
751+575315726+556444883+541672859+532341234+529788452+535267042+549631686
741+572821031+603277975+637652566+671426065+700537655+723137745+740118247
731+753930995+766843449+779848792+792112943+800917110+803098848+797882163
721+788843087+782771466+785526403+798409621+818363849+840648743+861135482
711+877064779+886270953+886115370+873876168+849038236+815834353+783006119
701+759808265+751223782+755246537+763103455+762969943+746543127+714861483
691+678956273+654802085+655611792+684987719+734914037+790902381+840235925
681+877038806+901913330+918162876+928745943+935667254+940207424+942937603
671+943930273+943226121+941607538+941055003+942445394+945043916+948547786
662+952814918+957122546+960652452+963141133+964514187+964069190+959935442
652+949101537+928399912+896566780+856034588+812383197+772028787+740376187
642+721113508+715953376+723738196+739864018+758028726+773515777+785656204
632+797376776+811782234+828855945+844743660+853420392+850622530+838642931
622+826587460+824138507+834487112+852595396+870318753+883807797+895227504
612+907751002+921321611+933623762+942942273+948998796+952437285+954237807
602+954738077+953149945+948725247+941910131+933518590+923420951+910781982
592+895346110+878207658+861114243+845353067+831978791+822547432+818492562
582+819475125+822591765+823748015+820248815+811656655+798813036+783261436
572+767301944+753919607+746157050+745320986+749374448+754318991+757408891
562+758283723+757832201+757687302+760707663+770028796+786337965+806383930
552+825056904+839096948+848506940+854922672+859736902+863781025+867469904
543+870864444+874341637+878928506+885297602+892904257+900648582+907949894
533+914736990+920649510+924734959+925868370+923065261+915689933+903798233
523+887779886+867809217+844556794+820707054+801236784+790748781+790586737
513+799027409+812548824+827175820+840623154+853072187+865557301+878845725
503+893602459+909471238+924089086+934962015+941539535+945021014+947228533
493+949474372+951973032+954011407+954564134+953110922+950362894+948032803
483+947303190+948078479+950177564+953691925+957708539+960305206+960465011
473+959071997+957905832+958006845+959456347+962270907+966601885+972260303
463+978317211+983527754+987467216+990770146+994093484+997382276+1000169583
453+1002011624+1003095008+1004517705+1006851251+1009302828+1011218949
445+1013049411+1015008203+1016243203+1016136560+1014935017+1013027212
436+1010980969+1009949915+1011106293+1014640038+1019179056+1022354935
428+1023047444+1022544295+1022487423+1022529582+1021676948+1021183268
419+1023395137+1026792428+1028677714+1030940890+1034876706+1038379104
411+1039345609+1039474003+1041629128+1045570702+1049451053+1053272613
402+1058222658+1063969039+1068078222+1068649694+1067738845+1066396498
394+1062071918+1054887933+1048371379+1045286853+1045185328+1046022096
385+1047726467+1053042501+1061983443+1070073095+1073290173+1073690900
377+1069618118+1068169448+1073290173
##END=
