##TITLE=LSH-R373B
##JCAMP-DX=4.24
##DATA TYPE=INFRARED SPECTRUM
##DATE=8/7/2021
##SAMPLING PROCEDURE=Diamant-ATR
##ORIGIN=Lara
##XUNITS=1/CM
##YUNITS=TRANSMITTANCE
##RESOLUTION=4
##FIRSTX=3997.453
##LASTX=373.96442
##DELTAX=-1.4165319
##MAXY=0.87953389
##MINY=0.42396539
##XFACTOR=1
##YFACTOR=8.1912976e-010
##NPOINTS=2559
##FIRSTY=0.83197653
##XYDATA=(X++(Y..Y))
3997+1015683435+1015470958+1015422788+1015539795+1015538703+1015174802
3989+1014568444+1014070435+1013941712+1014196829+1014618944+1014907678
3980+1014907678+1014637499+1014143928+1013543174+1013147328+1013202484
3972+1013509774+1013678518+1013691034+1013837657+1014221060+1014692583
3963+1015099707+1015268306+1015023230+1014546396+1014414981+1014981608
3955+1015890599+1016441654+1016327849+1015863530+1015573267+1015642031
3946+1015807209+1015758820+1015517310+1015392080+1015548454+1015711086
3938+1015582145+1015330812+1015377818+1015744340+1015917886+1015565700
3929+1015075185+1014923905+1015026068+1015002492+1014788852+1014743955
3921+1015100362+1015644432+1015970132+1015934986+1015843811+1016059779
3912+1016537196+1016883125+1016842521+1016620804+1016542144+1016557789
3904+1016376020+1016017648+1015791783+1015828020+1016117264+1016501031
3895+1016581729+1016113262+1015468557+1015516364+1016537705+1017842760
3887+1018737998+1018852895+1018319449+1017762863+1017471436+1017184448
3878+1016801700+1016681636+1017154541+1018204843+1019332058+1019759703
3870+1019122929+1018121599+1017822313+1018394471+1019187909+1019348576
3861+1018718279+1018062513+1018231111+1019586666+1021862198+1023807811
3853+1023268034+1020717592+1018978344+1018628413+1018917730+1019087783
3844+1018816367+1018386757+1018194074+1018131349+1017960059+1017892387
3836+1018086817+1018301476+1018489867+1018761429+1018930827+1018785078
3827+1018554119+1018672582+1019249542+1020037959+1020667820+1020813861
3819+1020540262+1020038905+1019279012+1018603309+1018652062+1019313867
3810+1019809475+1019450885+1018315010+1017486935+1017843270+1019001410
3802+1020110216+1020591052+1020471498+1020024716+1019477080+1019180705
3793+1019347412+1019772291+1020160424+1020417142+1020570751+1020646427
3785+1020773040+1021207088+1021975422+1022654472+1022731823+1022290061
3776+1021945370+1021976804+1022159738+1022203761+1021989975+1021612539
3768+1021397734+1021600969+1022032907+1022264884+1022193501+1022025558
3759+1021834183+1021634732+1021798092+1022680886+1024038842+1025030276
3751+1024662009+1023080225+1021653433+1021116058+1021525365+1022545469
3742+1023457516+1024028291+1024393284+1024456300+1024091888+1023722675
3734+1024107897+1025049705+1025695501+1025855295+1025882364+1025925369
3725+1025663484+1024921128+1024238439+1024172731+1024555116+1024904246
3717+1025041046+1024986544+1024738049+1024442692+1024624098+1025608765
3708+1026766250+1027355653+1027267461+1026705564+1025792280+1024645855
3700+1023746687+1023731407+1024777342+1026422286+1027873528+1028560801
3691+1028370955+1027536695+1026602236+1026089819+1026072719+1026535801
3683+1027517994+1028699929+1029308251+1028868091+1027861230+1027261422
3674+1027221619+1026883913+1025956440+1025064986+1025225798+1026458524
3666+1027631145+1028004142+1027750845+1027549283+1027800398+1028371392
3657+1029014423+1029491039+1029540447+1029281255+1029324260+1030294083
3649+1031736519+1032143644+1031746707+1031682600+1031937207+1031892093
3640+1031350642+1030742757+1030410799+1030156337+1029601425+1028667476
3632+1027681353+1027240902+1027986388+1029690563+1031144861+1031901043
3623+1032148083+1032122105+1032191160+1032665593+1033273988+1033516517
3615+1033487920+1033589355+1033900939+1034084236+1033824825+1033247574
3606+1032828443+1032824805+1033073810+1033409988+1033922113+1034630707
3598+1035104412+1034856936+1034053456+1033463470+1033560395+1034099808
3589+1034585083+1034627723+1034162241+1033551954+1033159164+1033035244
3581+1033018435+1032978850+1033074974+1033514043+1034005794+1034059714
3572+1033843599+1033961989+1034488595+1034877892+1034790210+1034490123
3564+1034149798+1033777309+1033684606+1034237335+1035267189+1036080784
3555+1036155587+1035620176+1035067229+1034947529+1035187365+1035432513
3547+1035395621+1035032811+1034585447+1034312356+1034283323+1034535384
3538+1035122386+1035886135+1036404155+1036391567+1036056116+1035931541
3530+1036395278+1037251295+1037832621+1037696840+1037032998+1036337647
3521+1036008164+1036226898+1036888121+1037568554+1037844700+1037762548
3513+1037768151+1038125431+1038545071+1038477690+1037736643+1036651996
3504+1035648119+1034945492+1034689356+1035067957+1036046511+1037184496
3496+1037984920+1038405142+1038747797+1039129017+1039427502+1039612618
3488+1039761497+1039826259+1039668721+1039285391+1038846249+1038595934
3479+1038717599+1039107478+1039313333+1038985377+1038413438+1038220681
3471+1038536266+1038941499+1039175223+1039415278+1039862860+1040473074
3462+1041163476+1041944108+1042716663+1043163663+1043007362+1042345630
3454+1041628013+1041237261+1041173300+1041283685+1041664760+1042473552
3445+1043386836+1043836965+1043782973+1043628636+1043480631+1043154349
3437+1042876092+1043210670+1044192499+1045125575+1045433010+1045284277
3428+1045117862+1044917610+1044419674+1043809605+1043558345+1043609426
3420+1043405318+1042793940+1042261076+1042253654+1042714552+1043194952
3411+1043228061+1042704147+1041911727+1041178320+1040595976+1040115648
3403+1039747599+1039588024+1039613855+1039519042+1038991271+1038118009
3394+1037207344+1036385600+1035730271+1035464894+1035654013+1036031522
3386+1036326369+1036456110+1036372721+1035998850+1035361567+1034668982
3377+1034198260+1034013289+1033864847+1033551226+1033202168+1032994786
3369+1032865627+1032699429+1032475092+1032106461+1031461392+1030586019
3360+1029625801+1028558472+1027252763+1025698267+1023971461+1022039456
3352+1019788955+1017240478+1014564733+1011808801+1008715526+1005017858
3343+1000855435+996586338+992191865+987293197+981799160+975985026+969803424
3333+962723165+954480763+945545776+936639022+928059132+919619243+911142389
3323+902886380+895346605+888695736+882654136+876923465+871428627+866057127
3313+860560907+854963033+849783708+845594871+842583457+840779738+840394516
3303+841596316+844168661+847703915+851971121+856849923+862093719+867431310
3293+872823766+878437430+884366752+890449756+896356958+901773063+906488142
3284+910494119+914061754+917537340+921013290+924352223+927438439+930154787
3274+932253135+933558044+934244808+934703451+935208082+935813930+936432076
3264+936902288+937105669+937120804+937225005+937684448+938558948+939727639
3254+941056052+942502782+944069357+945712118+947370960+949033441+950649352
3244+952007598+952890684+953390294+953847700+954375471+954654819+954424151
3234+953963252+953776462+953939603+954094595+953998907+953723853+953374941
3224+952980041+952635058+952435097+952243214+951787482+951028170+950221707
3214+949593738+949068296+948330669+947138401+945606826+944112362+942817931
3204+941409621+939462626+936955189+934254267+931640883+929022478+926137968
3194+922899526+919471528+916142565+913199697+910760878+908646959+906545773
3184+904328089+902134127+900200594+898606659+897038774+894860456+891591525
3174+887196251+881891551+876031719+870129029+864538577+859157181+853761742
3165+848459661+843513841+838882515+834111406+828665394+822431984+815901616
3155+809685523+803948885+798492758+793159097+787932037+782885510+778232427
3145+774290775+771325496+769469313+768691519+768775127+769424489+770454416
3135+771868038+773779377+776270952+779316929+782807141+786564622+790392686
3125+794248910+798265438+802437830+806488484+810230830+813767467+817123790
3115+820018487+822260984+824141689+826237563+828931499+832138143+835425266
3105+838435806+841193194+843912743+846665183+849433049+852332985+855466863
3095+858598413+861266808+863323898+865111972+866956367+868713589+870088644
3085+871158884+872193032+873159944+873882799+874565052+875711477+877480705
3075+879445382+881092582+882327418+883357345+884319455+885246564+886165887
3065+886995854+887583947+887980594+888389974+888846362+889248684+889635798
3055+890156728+890890863+891860322+893033889+894220117+895134056+895670776
3046+896032859+896558301+897516772+899081892+901250677+903614839+905502529
3036+906704475+907796617+909396155+911377860+913136464+914332370+915099540
3026+915783175+916673028+917787873+918792696+919316246+919468618+919850857
3016+920873143+922289021+923659710+924974807+926430050+927875980+928920097
3006+929424364+929664636+930082385+930902601+931936749+932831186+933437908
2996+933786311+933942830+934151449+934801757+935928827+936993828+937342303
2986+936684864+935102790+932810157+929879368+926049412+920912000+914462402
2976+907483579+901367685+897484028+896471419+897902722+900575847+903188431
2966+904909706+905573039+905460907+904802449+903314025+900006236+893278018
2956+881641527+865419626+848200105+835790477+832658346+838958046+850860933
2946+863543578+873876323+880852309+884403208+884481577+881195691+875103446
2936+866888477+857076516+846464931+836528323+828927861+824598731+823348105
2927+824142344+825748431+827387481+829079286+831432678+835021125+839865145
2917+845481429+851319139+857029582+862434481+867468566+872115099+876224040
2907+879470050+881645748+882957060+883943328+885121771+886717016+888707306
2897+891083328+893961871+897386158+901099397+904630868+907651668+910200872
2887+912510605+914685211+916645377+918239603+919195309+919061202+917385041
2877+913877584+908476323+901673156+894869843+889907505+887830260+888078027
2867+888800228+887829387+883808930+877242397+870622091+866906450+867453066
2857+871427099+876936490+882388104+887009534+890730851+893916393+897120635
2847+900824779+905108211+909491042+913251143+916009840+918012283+919853040
2837+921950150+924257336+926465124+928381266+930006272+931378926+932559479
2827+933684511+934861353+936038558+937040980+937724542+938119660+938434009
2817+938875843+939461244+939999856+940271054+940278185+940356118+940928785
2808+942113630+943621702+945022298+946034762+946621982+946929781+947178859
2798+947554476+948144025+948918253+949723261+950359816+950815912+951380284
2788+952302154+953374140+954126975+954409307+954498590+954704590+955100218
2778+955536231+955759404+955655858+955449712+955483112+955814342+956236675
2768+956643217+957072754+957404420+957379098+957031496+956738395+956680255
2758+956624007+956396905+956178607+956136549+956106133+955830059+955311603
2748+954796348+954471376+954239762+953834166+953150167+952358548+951676441
2738+951177122+950853823+950725392+950811547+951095697+951535857+952061227
2728+952578592+953051206+953517707+953967473+954313765+954573248+954927108
2718+955509016+956268328+957066787+957747366+958143867+958230240+958235697
2708+958477207+959096808+959990736+960903728+961599079+962023885+962296903
2698+962517456+962657385+962663060+962601573+962662260+962977118+963441291
2689+963807376+963976192+964046848+964078792+964016432+963897751+963914196
2679+964194781+964672852+965210446+965758009+966341809+966927283+967352817
2669+967497330+967503442+967663382+968083386+968657508+969322224+970028925
2659+970542143+970641395+970487059+970462028+970719473+971139696+971597756
2649+972048250+972470582+972850857+973159384+973361090+973481227+973547225
2639+973518556+973440769+973528597+973870015+974240029+974451559+974681863
2629+975207377+975983789+976700241+977152408+977407234+977680105+978139621
2619+978744742+979228635+979362233+979231473+979090089+979029038+979018560
2609+979111118+979283209+979310278+979151576+979177480+979624262+980146066
2599+980335475+980353158+980551226+980770615+980585644+980105026+979951417
2589+980420539+981128477+981584501+981749534+981887789+982152220+982514084
2580+982957373+983540664+984268613+984997800+985472524+985482274+985106148
2570+984808681+985068964+985842829+986621932+987066313+987267511+987390485
2560+987471182+987615113+987966936+988402949+988600872+988500164+988495798
2550+989035793+990041562+990885209+991115513+990972237+990896997+990900271
2540+990775623+990539135+990304829+990077508+989857537+989650300+989402023
2530+989146615+989017747+989001884+988976998+989017165+989319070+989814678
2520+990158788+990121823+989833597+989642805+989860230+990580247+991577212
2510+992403468+992792619+992945136+993216844+993624623+993891092+993844376
2500+993562918+993254755+993103402+993147644+993317479+993609925+994015740
2490+994293705+994194598+993946903+994095637+994794698+995660465+996328892
2480+996761776+997009253+997055532+996929938+996745695+996626141+996648407
2470+996784406+996902942+996879366+996644987+996164296+995529414+995016197
2461+994840759+994892859+994895478+994837921+995072008+995828773+996765705
2451+997289692+997297478+997237082+997427656+997702929+997806839+997812296
2441+997953025+998210616+998337956+998284765+998284546+998405701+998387583
2431+998125553+997920863+997996030+998109836+997895031+997345722+996815623
2421+996694249+997155803+998055334+998965198+999435410+999351366+999018608
2411+998866891+999098650+999606483+1000122683+1000425535+1000474070+1000375690
2401+1000236198+1000083535+999953066+999956341+1000170854+1000508197+1000776848
2391+1000851506+1000710850+1000406543+1000064689+999794510+999542449+999214784
2381+998961050+999082860+999602117+1000170418+1000546472+1001002568+1002042391
2371+1003717242+1005427893+1006575192+1007172963+1007545160+1007758219
2363+1007705973+1007409016+1007017608+1006760599+1006785849+1006865673
2354+1006605317+1005968034+1005190531+1004399931+1003697886+1003355086
2346+1003599070+1004162860+1004470077+1004521741+1004832524+1005454599
2337+1005842149+1005704622+1005441865+1005594236+1006172215+1006642355
2329+1006501917+1005806349+1005065520+1004735891+1004898013+1005325221
2320+1005743115+1006041819+1006289514+1006576356+1006865528+1007035145
2312+1007045478+1007014043+1007123846+1007427498+1007725183+1007797221
2303+1007755745+1007859581+1007983938+1007739591+1007174637+1006856359
2295+1007177548+1007944426+1008642178+1008878667+1008682126+1008467976
2286+1008572468+1008879613+1009034531+1008849124+1008452841+1008234253
2278+1008492499+1008982722+1009147973+1008890018+1008637666+1008692750
2269+1009020997+1009533486+1010165312+1010880090+1011793083+1013052150
2261+1014513506+1015683799+1016026089+1015450511+1014554036+1014151860
2252+1014521510+1015352496+1016297505+1017192598+1017812853+1017862116
2244+1017388410+1016940319+1016972990+1017240332+1017202858+1016919871
2235+1017040735+1017851783+1018732031+1018779256+1017907376+1017059946
2227+1017222432+1018517227+1020280997+1021516925+1021406466+1020121931
2218+1018915401+1018646168+1018717624+1018208918+1017294470+1016758695
2210+1016859840+1017415188+1018428598+1019925100+1021369647+1021748393
2201+1020468151+1018201059+1016535959+1016434669+1017315135+1018053053
2193+1018398546+1018862428+1019758029+1021013967+1022419002+1023588858
2184+1024135693+1023883924+1022626894+1020391674+1018284012+1017988074
2176+1019855826+1022300831+1023708704+1024287483+1025250175+1026514481
2167+1026257763+1023380821+1019737364+1018631178+1021463660+1026857863
2159+1032368563+1036056116+1036814409+1034456506+1030126066+1026133042
2150+1024600303+1025900046+1028331370+1029528222+1028538680+1026564616
2142+1025487973+1025941814+1027178178+1028411704+1029458586+1030190901
2133+1030290153+1029685615+1028701166+1027794140+1027350705+1027480883
2125+1027839692+1027888008+1027411392+1026592413+1025738360+1025237804
2116+1025497578+1026510988+1027686883+1028420072+1028634731+1028564148
2108+1028272212+1027649627+1026755481+1025970411+1025778163+1026355269
2099+1027350924+1028234592+1028975493+1030067708+1031622277+1032868610
2091+1032939047+1031798880+1030199924+1029079403+1029046877+1030031180
2082+1031318116+1032055816+1031763079+1030699898+1029974350+1030648307
2074+1032362596+1033578513+1033411952+1032372056+1031320808+1030740719
2065+1030848413+1031471434+1032074153+1032553679+1033423231+1034780896
2057+1035842039+1035856229+1034794794+1033017343+1031094507+1029955431
2048+1030214259+1031226649+1031803973+1031833371+1032418262+1034696123
2040+1038662588+1042667109+1044347199+1042767235+1039433323+1036772132
2031+1036070015+1037065960+1038595571+1039409383+1039021833+1037914846
2023+1037005055+1037324279+1039800136+1044328498+1048983546+1051255876
2014+1050391273+1047783710+1045415401+1044511504+1045074857+1046153246
2006+1046875738+1047275950+1047663064+1047716474+1047100002+1046533666
1997+1047103568+1048464798+1048861808+1047411950+1045624384+1045567336
1989+1047031384+1048086852+1047654842+1046208985+1044716558+1044128683
1980+1045274454+1047816964+1049701890+1049334059+1047820166+1047168038
1972+1047335691+1046933369+1045926872+1045781850+1047020397+1048370348
1963+1048720497+1048198039+1047398342+1047041572+1047984180+1050245159
1955+1052288060+1052457895+1051071270+1049996227+1050161188+1050632128
1946+1050409901+1049808564+1049391034+1048759354+1047277406+1044904731
1938+1041870251+1038845812+1037140691+1037494624+1039163290+1041010231
1929+1042714261+1044336284+1045631297+1046316897+1046523770+1046725186
1921+1047255357+1047954200+1048416845+1048630268+1049103464+1050130335
1912+1051277197+1051779281+1051442375+1050864542+1050459091+1049849168
1904+1048541202+1046623314+1044596204+1042934742+1042025315+1042255400
1895+1043787775+1046141167+1048418373+1050088931+1051173797+1051809843
1887+1052108910+1052334630+1052715631+1053123920+1053262830+1053095178
1878+1052847410+1052757326+1052962817+1053452385+1054017266+1054358756
1870+1054298142+1053916413+1053465920+1053141748+1053108276+1053555931
1861+1054502250+1055650277+1056584372+1057131570+1057503331+1058001559
1853+1058607043+1059053170+1059263027+1059468663+1059940767+1060717979
1844+1061437269+1061647708+1061564682+1061687947+1061966641+1061972826
1836+1061682053+1061621367+1062127307+1062944613+1063507602+1063542966
1827+1063336093+1063105717+1062633103+1061698499+1060477998+1059384473
1819+1058850372+1059170832+1060297902+1061892565+1063549079+1064882803
1810+1065678134+1066079655+1066343359+1066530149+1066674298+1066955101
1802+1067482508+1068000964+1068094832+1067787542+1067588164+1067930891
1793+1068668736+1069019394+1068405178+1067097285+1065465730+1063656627
1785+1062019177+1061179242+1061542416+1062971609+1064918531+1066837366
1776+1068520949+1070057908+1071579296+1072860192+1073376248+1073182618
1768+1072857646+1072747114+1072833415+1073013655+1073203938+1073348160
1759+1073511737+1073721012+1073741823+1073361403+1072766834+1072339480
1751+1072264313+1072319106+1072151744+1071703871+1070996514+1069951670
1742+1068571666+1066988064+1065390418+1064074739+1063363599+1063386229
1734+1063747802+1063705525+1063387466+1063368838+1063731575+1064202807
1725+1064565472+1064809746+1065069957+1065526708+1066333608+1067433100
1717+1068162286+1067834549+1066863125+1065820245+1064724101+1063343952
1708+1061304835+1057919843+1052881101+1047314953+1042453178+1038321462
1700+1034952259+1032964515+1031792913+1030141202+1028000577+1026306225
1691+1025577621+1025897790+1027014818+1028693380+1031657277+1037080586
1683+1043302209+1047725861+1050851953+1053606867+1056133878+1058188421
1674+1059452509+1059859852+1059458840+1057849842+1054566794+1050122476
1666+1044685051+1036403719+1022165050+1000898949+974835326+946185169+916609067
1656+885278581+840527314+768346318+703247910+671354216+653456446+638182028
1646+630909667+637770755+654262254+675911176+700254833+725475610+753006411
1636+785993556+818341744+840482272+855079312+867756718+880823785+893951320
1626+906229169+918163490+930489146+941557045+949191488+953154751+952371864
1616+943592668+927307606+908182931+888758970+870827799+857212151+849697698
1606+847730911+850058180+855791180+863953322+873269311+882532836+890862557
1596+897614497+902145770+904218285+905193857+908051225+915356330+927332201
1587+941971009+956671450+969741864+980649678+989324018+996004211+1001526045
1577+1006523456+1010156143+1011803052+1012371135+1012607333+1012674859
1568+1012384087+1011489359+1010234221+1009227288+1008767553+1008965113
1560+1010496833+1012659069+1011480991+1005797762+995601889+980021709+957807106
1550+929145016+897367821+864944756+830371753+793490181+758968842+729100949
1540+704276600+690959583+689486220+697408599+715502473+738810164+754462164
1530+757168979+748668622+730371440+705937698+679617648+649773986+615824367
1520+588354108+576198688+577525973+587045597+599964731+613769679+627296262
1510+639495960+650851502+663767725+676981997+687139377+695847190+704966202
1500+715075192+726329954+738561742+750534120+760843216+769882550+779517690
1490+791434911+804670503+816393440+826178259+835091780+843701359+852045269
1480+859467237+864797987+866895098+863488712+848228484+813160164+766659970
1470+733145418+721362304+725573917+739744914+758716926+777227895+792615754
1460+804204729+809746210+804344949+789339474+775424176+765505031+758377547
1451+755872438+760977688+772800750+784726339+789968971+786182893+774762880
1441+759019632+739859083+712229176+672659926+632624320+605450473+592834663
1431+593927387+607293376+627279962+648457507+669196637+688468809+704814121
1421+718992395+733460640+747994374+759659025+768104008+774759242+780261502
1411+784635091+788068182+791228984+795244929+800865360+807192130+812563557
1401+816552069+819737102+822764523+826225848+830577753+835664374+840866766
1391+846041944+851707345+858276279+864889963+868987115+867112522+855468100
1381+832306887+802718051+777979202+766929567+770138758+781635902+794321094
1371+805042628+814193656+822337825+829111376+834165544+837742129+840454330
1361+843186759+846789976+851597177+857389409+863575231+869509865+874887768
1351+879734408+884020533+887394465+889147976+888440183+884970854+879485476
1341+872904609+864310748+850687677+831335900+811365322+798045467+795182787
1332+801241851+811930421+823834909+835385099+845748479+853982295+858940121
1322+859226018+853035903+839120168+819323865+799453049+786369974+784123838
1312+791739800+804127161+815577808+822599854+824812445+824378906+824132885
1302+825635571+828938776+833798804+840206417+847575483+854431260+859512642
1292+862773570+865249572+868471424+873810689+881565705+890407043+897785133
1282+900555327+895183391+878500009+850041590+814541477+781312240+759662955
1272+753740909+760930972+774815417+789621805+802210509+811109987+814717206
1262+810511997+796568830+774924129+752792552+738590630+736347987+744041735
1252+756532497+769405279+780458697+789076644+795290553+799276810+801247381
1242+801707334+801738332+802693529+805359377+809465479+814104082+818488440
1232+822237408+825259954+827679272+829770416+831775769+833777775+835702431
1222+837376699+838701401+839845280+841100490+842473290+843619352+844291053
1213+844695412+845285834+846273630+847462041+848488112+849026506+848698478
1203+847000488+843640963+839137123+834946758+832640445+832753451+834551203
1193+836871996+838961321+840599570+841827493+842749946+843513477+844325107
1183+845356199+846597147+847869021+848991797+849928803+850797408+851682604
1173+852374898+852346447+850888438+847124917+840285149+830453469+818670864
1163+805970028+793320928+783212956+779725072+785237956+797621315+811874828
1153+824073217+833109348+839645756+844620173+848614652+851906141+854731928
1143+857363359+859946982+862398389+864532611+866253959+867145049+865389137
1133+858265800+845806037+833476597+828467981+832826944+842220574+851268785
1123+857878686+862574119+866115413+868744223+870635989+872101128+873284301
1113+873968372+873834992+872704066+870299374+865964132+858947616+849287081
1103+838662981+830045689+825662276+825126720+826068164+826601028+826786654
1094+827899243+830853826+835488718+841009169+846683666+851997316+856444181
1084+859469565+860679079+860280395+859430417+859761720+862209053+866439803
1074+871473087+876508772+881131512+885151605+888529758+891388872+893952921
1064+896379297+898654029+900690526+902497156+904214065+906014655+907921920
1054+909679869+910879195+911197837+910477892+908845827+906987243+905974416
1044+906408464+907855485+909354752+910346550+910934206+911441893+912039519
1034+912781367+913746605+915043801+916770316+918953945+921452287+923942187
1024+926083976+927756571+929163862+930640644+932277875+933787984+934725717
1014+934873068+934681330+935312573+937738731+941635850+945285856+946238142
1004+941935572+930305703+910302308+882690665+851880091+826818816+816892832
994+824712246+844011268+865452079+883241866+896163110+904795755+909406634
984+909481873+903926858+892058827+875639657+860030517+851893698+854549359
975+865685585+879777413+892250055+901476761+908125737+913580917+918702466
965+923481143+927630977+931241108+934634251+937894887+940932205+943799323
955+946603499+949251884+951578935+953662366+955789601+958116652+960571043
945+963084229+965582716+967568713+967304864+960371083+939971841+903217537
935+859598652+828781383+825007748+845099554+874098768+899535441+917664680
925+929916988+938369029+944450723+949124471+952908075+955882160+958037119
915+959598892+960845152+961835131+962632426+963554878+964920838+966729723
905+968743445+970774193+972846491+975061191+977319041+979294342+980701415
895+981537276+982118747+982807621+983547213+983699075+982274030+978200381
885+970897895+961282766+951574423+942573947+931007239+911789641+885044129
875+859855369+848224482+854818156+874075629+896630994+916355842+931750541
866+943647170+953115822+960685431+966150944+967680554+960066703+935058839
856+887150627+822307263+760327161+724499239+725828161+756921139+800378412
846+841378019+873309987+895916725+911515023+922632475+931094048+937927195
836+943718844+948907629+953602698+957399108+959813624+960720650+959815588
826+955670193+945987391+929878641+910796606+896432271+893582179+902484131
816+917154519+931065597+941441638+948768355+954218733+958305698+961139490
806+963014956+964449534+965909289+967663673+969670772+971600158+973281266
796+974996866+977068290+979454281+981966448+984503647+986984816+989370952
786+991718159+993981613+995863555+996989096+997210232+996722919+995853513
776+994733720+993266834+991111583+987117832+979310423+966990225+952793032
766+940401524+929212324+913136464+886193829+848780631+807893447+770740386
756+736916943+697621730+645738539+587161367+539292994+517580257+524816599
747+552359152+588219309+622599956+648765088+663785771+671014473+679172030
737+694860849+715844254+733843606+743219190+744724788+742116133+738171935
727+734011695+729975958+725986936+721534468+716128405+710234374+705610106
717+704238180+706862988+712590604+719752142+727140929+734449454+741767076
707+749063668+756129811+762736437+768815803+774498449+779905240+784887516
697+788940426+791518664+792665454+792788719+791182122+786002506+777635747
687+771100067+772211420+781434487+793657906+803546490+809191662+810898675
677+808584285+800890101+786641681+767949235+751291393+746448465+763374812
667+795469557+820363106+832648377+837953296+837834033+829867049+813568671
657+794054044+779067051+772429135+772120244+774716819+778961759+784662160
647+790681857+794908751+794933855+788975426+777511027+763737768+751196434
637+740788739+730925915+720563481+710917281+703826107+699461031+696072836
628+691345896+683867099+673891269+662877508+652049882+641454816+630559954
618+619587379+609677693+601530978+594735561+588843567+584187283+581190823
608+579611841+578934537+579089564+580511772+583657875+588364695+593596266
598+598241054+602156910+605891215+609581242+612745791+615158342+617453885
588+620533334+624491795+628360753+631055853+632403622+633028171+633662179
578+634878023+637159086+640847076+646017378+652582310+660552568+670253342
568+682300232+696491022+709290819+712896584+700070008+672456982+642379888
558+623510329+620450745+628341543+640004811+651244074+661128728+670249995
548+679173340+687564912+694555087+699851711+703940131+707379407+710749337
538+715054454+721088341+728255337+734798075+739232643+740841349+739068556
528+733828908+727194412+723811893+727198195+736096654+746598580+755937563
518+763515395+770033320+776341098+782430287+787147549+789553478+790676254
509+792724103+796327684+799888989+801703623+801342268+799467747+797484515
499+796750381+797741015+800180052+803701263+808142087+813409168+819494501
489+826334778+833215150+838774822+842214826+844237570+845427000+842401033
479+826187282+788269161+731218361+671534239+631909178+626097663+646650586
469+676051104+703238013+724712079+740514485+750878229+754466311+750658331
459+742531626+735270180+730971103+728213933+727587638+732469788+744082848
449+759350062+774336109+786848918+796381167+803494098+809119405+813859807
439+817781957+820868537+823613846+826971988+831385162+836099587+839777826
429+841835789+842942557+843915799+844528124+843802212+841451949+839005198
419+840150169+846900944+854942003+860545335+863498754+864273564+863519638
409+862244053+861181090+860671074+861319345+864002148+868977947+875319197
399+880985907+883345266+881784366+878634989+874979744+869134539+859001390
390+845960009+836346044+837493270+850400762+865518660+873612547+877372793
380+882632452+889385047+892520817+887679489+879406743
##END=
