##TITLE=CML-59F30-36
##JCAMP-DX=4.24
##DATA TYPE=INFRARED SPECTRUM
##DATE=28/1/2021
##SAMPLING PROCEDURE=Diamant-ATR
##ORIGIN=Angelika Moesle
##XUNITS=1/CM
##YUNITS=TRANSMITTANCE
##RESOLUTION=4
##FIRSTX=3997.453
##LASTX=373.96442
##DELTAX=-1.4165319
##MAXY=0.9306525
##MINY=0.18902354
##XFACTOR=1
##YFACTOR=8.6673768e-010
##NPOINTS=2559
##FIRSTY=0.90257704
##XYDATA=(X++(Y..Y))
3997+1041349720+1041815079+1041997317+1041596325+1040873838+1040461706
3989+1040565891+1040689744+1040351263+1039760744+1039474321+1039651814
3980+1040064840+1040553375+1040980430+1041061440+1040738226+1040414668
3972+1040396651+1040480480+1040414049+1040354564+1040572493+1041005944
3963+1041315748+1041206543+1040666913+1040020209+1039702084+1039907360
3955+1040493340+1041171746+1041655123+1041721072+1041379772+1040921151
3946+1040574212+1040337922+1040261176+1040481099+1040848256+1040948178
3938+1040619943+1040111810+1039776492+1039819473+1040226172+1040739258
3929+1041032488+1041022379+1040866274+1040703291+1040511426+1040211250
3921+1039832745+1039533394+1039535938+1039935624+1040421683+1040497122
3912+1040131753+1039896975+1040268672+1040955261+1041195402+1040616299
3904+1039658210+1039102969+1039187830+1039624719+1040213794+1040878033
3895+1041437262+1041730425+1041823606+1041939551+1042085066+1042051988
3887+1041884673+1041880410+1042025031+1041880616+1041292298+1040663268
3878+1040375882+1040328844+1040323549+1040320317+1040260076+1040049918
3870+1039772160+1039679941+1039965194+1040702397+1041789566+1042712583
3861+1042839118+1042094212+1040881403+1039577544+1038280217+1037045815
3853+1036428132+1036940117+1038106369+1039358102+1040486119+1041345318
3844+1041770379+1041716877+1041312722+1040692357+1039911073+1039099943
3836+1038545597+1038565058+1039341666+1040617949+1041631879+1041823538
3827+1041438844+1041159917+1041328745+1041784821+1042310078+1042863049
3819+1043419803+1043806766+1043741985+1043129048+1042324451+1041683868
3810+1041190176+1040691051+1040245221+1040132784+1040435780+1040950860
3802+1041463120+1041710344+1041495235+1041003399+1040657079+1040702673
3793+1040914412+1040844749+1040367149+1039856814+1039790659+1040179341
3785+1040579989+1040699578+1040746410+1041070518+1041651065+1042029432
3776+1041886255+1041469928+1041235082+1041282120+1041269329+1040973966
3768+1040759063+1040956774+1041201316+1040980430+1040471334+1040350713
3759+1040949622+1041737852+1041894920+1041328539+1040668219+1040715670
3751+1041723616+1042750612+1042926179+1042636593+1042457725+1042398996
3742+1042188495+1041844100+1041561597+1041558296+1041989202+1042579859
3734+1042610942+1041880203+1040981531+1040381246+1040037608+1039798773
3725+1039827588+1040452216+1041532645+1042392601+1042536809+1042154867
3717+1041816936+1041879034+1042266135+1042682393+1043001756+1043316374
3708+1043450955+1043081391+1042306777+1041545230+1041023617+1040594293
3700+1040095305+1039771678+1040111672+1041237351+1042513703+1043017848
3691+1042504969+1041681667+1041300412+1041175390+1040914687+1040714294
3683+1040855959+1041210944+1041307083+1040854239+1040171501+1039979154
3674+1040454898+1040951479+1041302957+1041856134+1042444590+1042397071
3666+1041568130+1040361922+1039298961+1038859389+1039192162+1039961618
3657+1040726123+1041357628+1041966646+1042570506+1043029745+1043069837
3649+1042358766+1041122988+1040114835+1039600925+1039323167+1038982280
3640+1038572142+1038420712+1038739594+1039204747+1039268496+1038869292
3632+1038551923+1038883115+1039870774+1040769172+1040999823+1040802319
3623+1040456342+1039916781+1039152208+1038492988+1038318934+1038524003
3615+1038874381+1039390561+1040026674+1040535977+1040812772+1040880371
3606+1040603164+1039927715+1039166099+1038728247+1038797016+1039243670
3598+1039700709+1039788802+1039499422+1039286238+1039431272+1039644043
3589+1039606839+1039460636+1039484293+1039524592+1039247178+1038566021
3581+1037614946+1036710153+1036241424+1036344027+1036763931+1037185278
3572+1037547965+1037957072+1038445125+1038935723+1039315259+1039469439
3564+1039337953+1039005455+1038674882+1038460461+1038193568+1037662466
3555+1037043683+1036806361+1037094503+1037433121+1037305417+1036788412
3547+1036347260+1036225882+1036259098+1036279385+1036357025+1036535136
3538+1036678313+1036694612+1036702933+1036863371+1037167054+1037419505
3530+1037312432+1036660296+1035736316+1035115539+1034996637+1034993336
3521+1034773001+1034536229+1034594889+1034832830+1034896853+1034713791
3513+1034561536+1034747762+1035315863+1035865327+1035797727+1035043882
3504+1034252488+1033979476+1034006571+1033855554+1033515423+1033221504
3496+1033057009+1033085204+1033423204+1033913457+1034035178+1033464946
3488+1032596257+1032149534+1032277582+1032486433+1032375990+1032002368
3479+1031588448+1031348582+1031464526+1031784027+1031787671+1031243778
3471+1030584559+1030344417+1030551687+1030818992+1030768309+1030288302
3462+1029602882+1029173076+1029377388+1030195945+1031214482+1031924178
3454+1032046724+1031698547+1031310002+1031288478+1031665469+1032062472
3445+1032058277+1031577720+1030876552+1030211074+1029611959+1029088421
3437+1028892705+1029252848+1029927884+1030362710+1030236519+1029665186
3428+1028991044+1028498796+1028247102+1028160247+1028231973+1028424457
3420+1028502510+1028362840+1028321510+1028630764+1028974952+1028890504
3411+1028474314+1028247858+1028458979+1028861621+1029084295+1028970551
3403+1028608689+1028219869+1027994238+1027927808+1027898925+1027926157
3394+1028107776+1028246070+1027874924+1026829774+1025479977+1024293918
3386+1023480450+1023099058+1023143001+1023402535+1023573701+1023677955
3377+1024110374+1025087237+1026246544+1026981065+1027030923+1026641759
3369+1026278247+1026240836+1026439785+1026551672+1026447281+1026329892
3360+1026434352+1026816295+1027412522+1028038526+1028384021+1028251366
3352+1027725077+1027001146+1026283542+1025909370+1026209615+1027028378
3343+1027673156+1027614703+1027083325+1026721806+1026781085+1026951426
3335+1026900399+1026664866+1026516187+1026631925+1026892216+1026971782
3326+1026743606+1026519488+1026672980+1027131394+1027449244+1027262193
3318+1026532210+1025515118+1024632743+1024225149+1024254651+1024297907
3309+1023944297+1023162257+1022222529+1021362573+1020671170+1020196045
3301+1019946414+1019778343+1019479885+1019069954+1018883383+1019233073
3292+1020062152+1021054969+1021959625+1022622558+1022899697+1022857335
3284+1022908224+1023366638+1023944641+1024072551+1023687995+1023332460
3275+1023441321+1023904755+1024392464+1024790018+1025236397+1025952488
3267+1026971919+1027893904+1028152682+1027703758+1027116265+1026850886
3258+1026834931+1026875780+1027054923+1027492087+1028027041+1028379207
3250+1028455609+1028333751+1028069403+1027698876+1027355031+1027208828
3241+1027302285+1027569384+1027995958+1028576918+1029094198+1029208973
3233+1028946001+1028812451+1029174795+1029786564+1030225585+1030445026
3224+1030552444+1030463594+1030145744+1029844192+1029771022+1029867505
3216+1030022235+1030213481+1030357071+1030329219+1030180472+1030080345
3207+1030076975+1030131578+1030292084+1030596868+1030896082+1030952404
3199+1030669351+1030219189+1030030831+1030457199+1031251961+1031657836
3190+1031254368+1030411123+1029746334+1029560314+1029893843+1030597487
3182+1031225141+1031336753+1031013127+1030709030+1030620662+1030578920
3173+1030507331+1030501417+1030429691+1029946108+1029070610+1028357476
3165+1028266426+1028670650+1029137247+1029396162+1029427521+1029365079
3156+1029410535+1029644143+1029889992+1029911379+1029688774+1029384815
3148+1029092272+1028743820+1028250265+1027649706+1027096804+1026722907
3139+1026515912+1026364414+1026217592+1026101098+1025920923+1025457558
3131+1024701306+1023980813+1023592406+1023520130+1023602447+1023717978
3122+1023761784+1023699342+1023669084+1023845820+1024244817+1024723449
3114+1025042537+1024913389+1024198467+1023151391+1022289991+1021902409
3105+1021771129+1021533258+1021227373+1021210387+1021563722+1021914100
3097+1021827314+1021039496+1019369374+1016859719+1014050095+1011675021
3088+1009953116+1008540257+1007286324+1006561843+1006651037+1007323872
3080+1008229697+1009246721+1010266358+1011082439+1011604052+1011848250
3071+1011746679+1011270935+1010660886+1010260375+1010192088+1010377420
3063+1010776899+1011400427+1012143613+1012870088+1013598214+1014349377
3054+1014906543+1015013135+1014652167+1013859399+1012501005+1010471358
3046+1007876843+1004875147+1001578707+998215424+995228857+993163450+992452723
3036+993217709+995234152+998069221+1001149933+1003846845+1005835162+1007369604
3026+1008943381+1010714525+1012429211+1013767798+1014572326+1014919885
3017+1015154456+1015674624+1016545170+1017470250+1018163441+1018555699
3009+1018692137+1018643930+1018476959+1018168461+1017612946+1016795902
3000+1015938972+1015403055+1015375135+1015617339+1015642921+1015219924
2992+1014539730+1013788154+1012761640+1011096124+1008713280+1005767699
2983+1002215920+997782661+992375083+986110231+978759793+969535263+957636101
2973+942803394+925293856+905613075+884424259+862671676+841875463+824305545
2963+812518958+808267318+811547184+820598210+832812471+845788760+857965679
2953+868713991+877902624+885260146+890135659+891814721+889963874+884927717
2944+877816319+870077198+862612879+855344000+847773088+839798778+831828593
2934+824381259+817972680+813351613+811449807+812853519+817446598+824604621
2924+833493627+843124032+852512782+861098174+868889215+876126597+882903159
2914+889101649+894605366+899536650+904206268+908765650+913063366+916943173
2904+920521084+924055739+927649605+931174564+934528563+937940329+941880377
2894+946604117+951871888+957100941+961667406+965085155+967009516+967083856
2884+964787248+959519064+950944882+939424913+926247887+913382522+902745409
2874+895399647+891168912+888923468+887452088+886325102+885935182+886675892
2864+888227389+889752134+890766476+891737838+893729318+897453294+902740458
2854+908863989+915142939+921208567+927007509+932764777+938811288+945258240
2844+951810339+957906088+963085972+967317189+970963594+974401766+977761267
2834+981041890+984224105+987160471+989650319+991740070+993701499+995657975
2825+997449200+998896924+1000078513+1001294692+1002714633+1004085748+1005016467
2815+1005528384+1006018637+1006725307+1007549641+1008309263+1008901982
2806+1009340866+1009767990+1010288846+1010809839+1011203954+1011506744
2798+1011783264+1011992321+1012102352+1012167682+1012243259+1012357553
2789+1012543505+1012806202+1013113530+1013451324+1013810160+1014154142
2781+1014473299+1014782553+1015048758+1015264004+1015585087+1016186127
2772+1016977177+1017679789+1018157321+1018492088+1018802992+1019167330
2764+1019619555+1020100938+1020526136+1020953191+1021515515+1022165107
2755+1022659899+1022795168+1022546362+1022073094+1021674784+1021608284
2747+1021869263+1022243572+1022539210+1022638306+1022419345+1021840861
2738+1021098775+1020543535+1020388598+1020537621+1020710299+1020722334
2730+1020630390+1020621381+1020820605+1021213894+1021679254+1022059546
2721+1022272249+1022382829+1022511221+1022663544+1022731900+1022685344
2713+1022642294+1022705287+1022835398+1022955537+1023046175+1023086198
2704+1023066255+1023140319+1023564968+1024354229+1025136682+1025520000
2696+1025518556+1025485272+1025664209+1025962666+1026169317+1026226670
2687+1026197031+1026097384+1025896992+1025620540+1025343608+1025117014
2679+1024966616+1024919716+1024978376+1025106492+1025281647+1025520963
2670+1025819626+1026090645+1026243106+1026330374+1026507797+1026762793
2662+1026835619+1026571134+1026206039+1026103986+1026329480+1026666791
2653+1026925431+1027069021+1027147486+1027222376+1027298572+1027298365
2645+1027156770+1026931689+1026799859+1026946887+1027403513+1027983785
2636+1028477959+1028904189+1029451659+1030176552+1030887142+1031356834
2628+1031552825+1031629090+1031755213+1031993291+1032327783+1032740053
2619+1033175979+1033488534+1033584536+1033663070+1034074858+1034835030
2611+1035494593+1035643684+1035359325+1035059561+1035081017+1035460278
2602+1035946543+1036207246+1036159383+1036102373+1036391547+1036956690
2594+1037296546+1037053517+1036424900+1035817188+1035311943+1034759247
2585+1034215422+1033957470+1034133724+1034568619+1034866664+1034732702
2577+1034275664+1033881549+1033750681+1033756939+1033710383+1033486677
2568+1032986933+1032263965+1031595669+1031256569+1031345074+1031888212
2560+1032853246+1033983946+1034883168+1035358018+1035547339+1035664246
2551+1035748007+1035731090+1035687559+1035872204+1036382744+1036869491
2543+1036899130+1036667448+1036910477+1037915948+1039085708+1039737019
2534+1039848631+1039754692+1039632696+1039568191+1039683035+1039958730
2526+1040209943+1040330289+1040398439+1040537077+1040786777+1041112879
2517+1041513871+1042092424+1042903279+1043734214+1044199849+1044128123
2509+1043740747+1043373177+1043103809+1042804252+1042474573+1042293711
2500+1042295224+1042250112+1042013684+1041785096+1041870094+1042345013
2492+1043065230+1043783866+1044135069+1043815087+1042983051+1042219303
2483+1041965202+1042232919+1042809409+1043448136+1043983502+1044461102
2475+1044932513+1045120253+1044715891+1043961289+1043458176+1043462439
2466+1043735040+1043968304+1044043262+1043928418+1043568687+1042951005
2458+1042221641+1041660074+1041495235+1041702848+1041923321+1041723066
2449+1041095825+1040541134+1040463150+1040727361+1040963582+1040995147
2441+1040836428+1040538177+1040172533+1039850281+1039704629+1039826556
2432+1040121437+1040338885+1040386129+1040464251+1040719383+1040927616
2424+1040755762+1040252648+1039842854+1039865135+1040330632+1041098369
2415+1042011827+1042840493+1043371664+1043661044+1043971261+1044344195
2407+1044451818+1044043125+1043365888+1042934088+1042960357+1043182412
2398+1043218035+1042992060+1042729981+1042557853+1042354915+1042119244
2390+1042125640+1042469347+1042805627+1042821582+1042673247+1042742222
2381+1043163982+1043731120+1044184513+1044571133+1045244449+1046417166
2373+1047888066+1049323205+1050515383+1051255337+1051358285+1051003162
2364+1050697209+1050704361+1050730355+1050420001+1049987169+1049825081
2356+1049608802+1048582907+1046710604+1044797589+1043518968+1042931268
2347+1042727574+1042526494+1042135955+1041692533+1041303782+1040878515
2339+1040594430+1040884910+1041705186+1042450160+1042788160+1042989103
2330+1043261497+1043290448+1042664857+1041442076+1040221359+1039845811
2322+1040798468+1042609911+1044129498+1044572921+1044078816+1043285910
2313+1042702886+1042523743+1042720835+1043104635+1043427299+1043592206
2305+1043698317+1043831798+1043915489+1043834755+1043643783+1043574670
2296+1043822720+1044326521+1044781772+1044916146+1044794838+1044817532
2288+1045270444+1045871485+1046048221+1045784973+1045769707+1046463929
2279+1047526960+1048461117+1049258287+1050059377+1050707799+1051051094
2271+1051281401+1051629372+1052017091+1052265141+1052361005+1052313967
2262+1052078227+1051836641+1051967853+1052447997+1052701480+1052405292
2254+1052040335+1052196991+1052682775+1052789710+1052242447+1051517485
2245+1051358697+1052177254+1053703031+1055096634+1055618728+1055248819
2237+1054508384+1053860581+1053454431+1053171378+1052792049+1052456181
2228+1052776438+1053975287+1055280522+1055896967+1056074666+1056381650
2220+1056512793+1055765343+1054289355+1053071044+1052943547+1054070257
2211+1055928807+1057404726+1057482779+1056332756+1055309680+1055578979
2203+1056994382+1058340603+1058450702+1057140034+1055193529+1053589562
2194+1052922778+1053246336+1053977006+1054288942+1054111862+1054292931
2186+1055440891+1057171599+1058602681+1059002573+1058233805+1057134739
2177+1056880500+1057586139+1058247834+1058134777+1057322754+1056149624
2169+1055323984+1056109876+1059045003+1062817118+1065678044+1067561832
2160+1069333664+1070573568+1070264108+1069055700+1068375025+1068484505
2152+1069028949+1070195408+1072047837+1073465509+1073135969+1071296949
2143+1069337653+1068073336+1067392385+1066953089+1066301641+1064965529
2135+1063165158+1061737239+1060975417+1060349550+1059522397+1058848324
2126+1058658247+1058670969+1058504135+1058368110+1058629364+1058889861
2118+1058326505+1056961098+1055795945+1055608206+1056222588+1056912891
2109+1057091140+1056720956+1056214060+1055834937+1055486966+1055216911
2101+1055333336+1055815132+1056253878+1056556049+1057111289+1058090834
2092+1058975203+1059022997+1058135396+1057073260+1056695031+1057116034
2084+1057661441+1057414698+1055952326+1053928318+1052734145+1053205419
2075+1054933101+1057032205+1058932360+1060196333+1060411718+1059732143
2067+1058975065+1058934217+1059891962+1061641719+1063536716+1064681307
2058+1064521144+1063233170+1061471928+1059957774+1059229029+1059367598
2050+1059889349+1060273973+1060750473+1061930892+1063408187+1063739447
2041+1062407186+1060842211+1060895438+1063224230+1067201414+1071089267
2033+1072859861+1072326008+1071268204+1070746729+1070328957+1070062203
2024+1070745766+1072284471+1073602153+1073741823+1072302695+1069853145
2016+1067855269+1066976746+1066426732+1065853474+1066282661+1068248490
2007+1070457280+1071390612+1071193589+1071058802+1071632198+1072623984
1999+1073245999+1072772112+1071265522+1069731149+1069041259+1069014439
1990+1069142624+1069528831+1070202354+1070284326+1068605745+1064909001
1982+1060373482+1057021821+1056173624+1057307693+1058793309+1059569573
1973+1059746172+1060039127+1060731631+1061083521+1060369975+1059256605
1965+1058849493+1059001748+1059091697+1059425158+1060421139+1061395320
1956+1061453086+1060674896+1059533538+1058080450+1056448631+1055335124
1948+1055230252+1055681239+1055836725+1055447699+1055060392+1055282791
1939+1056030998+1056691661+1056846735+1056653013+1056500002+1056502684
1931+1056566226+1056806436+1057617635+1059160054+1060861604+1061661181
1922+1060971222+1059272491+1057508223+1056302085+1055773870+1055728277
1914+1055981003+1056448906+1056937854+1057108057+1056833806+1056380206
1905+1056051147+1055909552+1055971719+1056360607+1057052767+1057776285
1897+1058396787+1059078287+1059840798+1060360278+1060415775+1060175427
1888+1059976891+1060005706+1060181548+1060248047+1060059208+1059820717
1880+1059867824+1060284632+1060935599+1061732769+1062657299+1063598058
1871+1064323571+1064597065+1064349290+1063772113+1063151817+1062682812
1863+1062445834+1062396802+1062395083+1062236227+1061646739+1060485094
1854+1059072580+1058053011+1057746989+1057865547+1057975096+1058014019
1846+1058169781+1058421406+1058571116+1058741251+1059240513+1060074199
1837+1060964139+1061697353+1062290073+1062848958+1063366444+1063562092
1829+1063096045+1062006607+1060429941+1058268120+1055767062+1053831079
1820+1053167802+1053497205+1053821451+1053502294+1052829115+1052421040
1812+1052507758+1052892657+1053354854+1053862575+1054430813+1055043888
1803+1055717480+1056471256+1057247520+1057910797+1058333382+1058511081
1795+1058591403+1058682797+1058643805+1058365497+1058158434+1058369623
1786+1058916199+1059333833+1059292915+1058968807+1058688574+1058473052
1778+1058112015+1057480372+1056637127+1055830536+1055428375+1055487860
1769+1055593627+1055390415+1054857524+1054131943+1053287323+1052362036
1761+1051564660+1051187462+1051258913+1051464670+1051412475+1050976479
1752+1050246015+1049271353+1047981866+1046239605+1043916452+1040992534
1744+1037642041+1034131799+1030729730+1027904082+1026185615+1025587050
1735+1025563393+1025272019+1024187051+1022585629+1020766759+1018749421
1727+1016503152+1014068731+1011755756+1010136935+1009601844+1010208317
1718+1011848594+1014023206+1015926250+1017259267+1018128507+1018633271
1710+1018906146+1019160041+1019618042+1020332689+1021014121+1021112185
1701+1019822905+1016624323+1012822775+1010488551+1010257968+1011255049
1693+1012307008+1013165107+1013995836+1014627754+1014869133+1015146134
1684+1016218105+1017822485+1018947545+1019545766+1020066347+1020794954
1676+1021683862+1022297143+1022250105+1021636067+1020693451+1019414899
1667+1017691549+1015572777+1013073369+1010098081+1006823234+1003845332
1659+1001650433+1000379170+1000212062+1002064216+1006854937+1011810290
1650+1014452737+1016222506+1018661397+1021518747+1023230131+1023421240
1642+1022540241+1020664087+1017496589+1012070099+1002578539+989327587+975995968
1632+964369682+954505326+947607250+945519768+948740631+956724775+968097097
1622+979014719+985277302+984751082+975653224+959510193+945313324+939443274
1612+940510431+944929662+949000990+949534912+945272337+937176787+927888027
1602+921005905+919224170+922446890+928133876+932952379+934396321+932372038
1592+929103037+926457289+923672627+918077035+907800340+893482919+877483134
1582+862247990+849628887+840737474+836389969+837933695+845018273+853610541
1572+861178564+868124160+874597863+880033705+885481307+892523867+900511381
1562+907145660+909212786+898827092+868834612+831779699+796887500+763719476
1553+737730794+727840443+738170847+764654734+799079717+835339111+868639308
1543+892411636+898919861+884114180+860153701+842907960+836804784+843175196
1533+860235398+879338314+894382141+906389682+917551090+927894079+937061187
1523+946330004+956526514+965769475+972576570+977742837+981781844+984246524
1513+985036060+984472911+982560515+978818728+973679555+970499541+970380089
1503+969594748+963948541+949649756+925296263+896821995+877218786+873579326
1493+882331895+898507316+918519082+937049771+949614753+957075222+962478261
1483+967546533+972073525+974011709+970120624+956828754+930990538+891223790
1473+840985248+791437491+752711148+725438481+709980389+711522808+729155306
1463+747133573+753100793+749865214+744181528+741298184+748264066+769187846
1453+800598410+836220179+868484991+890747565+901319347+904555271+907289799
1443+914088917+925065680+937002389+947022370+954025869+956254258+951172232
1434+938892916+922201384+906593926+899591871+904070174+915620608+928073566
1424+937025633+940618192+938225720+926886682+901617186+861141704+807732295
1414+745514890+684036475+637038671+613740437+613065951+627289434+648469722
1404+671179225+693402738+716286777+740938935+765324200+786292061+803026848
1394+815403610+822495890+824119043+820439148+810891610+795693121+776720935
1384+754413455+726654522+692848117+658137399+632013105+621764399+628111636
1374+645782506+667113948+687382223+706717990+726903604+748174254+769619853
1364+791063801+812469857+832482861+849722963+864385261+877312999+888868866
1354+898841396+906845277+912734994+916702894+919137521+920480854+921063671
1344+920932666+919766001+916892421+911744996+905019942+899052723+896079291
1334+896549464+899122661+901538445+901612303+897845896+889387108+875531608
1324+854943146+825317136+785365468+739287586+698612262+675601000+673883977
1315+688447247+712119447+737896527+757883193+765100701+757677780+740703126
1305+723789126+716568867+724743502+747464558+777601590+806111136+827592013
1295+842444594+854632516+868001683+884046993+901790827+919080168+934086379
1285+945952050+954542117+959945432+962137717+960945745+956315944+948462185
1275+937323678+921773779+900410428+874548487+849642779+831036719+817754133
1265+802402908+777655024+742074516+701508673+667589555+652806567+662483528
1255+690371953+722994432+748432481+761194624+761083631+750751027+734803987
1245+718289673+703321629+687741128+669112306+649794900+636105201+632103880
1235+635428584+639508990+639235152+634827818+631285323+634564708+647924453
1225+670799896+699788761+730329742+758326271+781208659+798029683+808804816
1215+813796892+813192894+806872821+793866342+772184041+740118040+698612537
1205+653060875+613112439+589474692+588184449+606221171+632932477+656202378
1196+667378090+661777753+637487045+595585777+541049795+482174526+428306806
1186+387062213+362217399+353226236+356613658+368276185+385037001+404732361
1176+425585825+445780723+463491514+477328618+486701070+491362574+490528991
1166+483011582+468607855+449049655+427330528+406429029+388651498+375122203
1156+365017912+355893612+345790765+334986475+325321410+318280054+314055371
1146+311722522+309623693+305975809+299833504+291691019+282953270+274497370
1136+265642731+254865072+241895281+229040438+220141408+218086214+223294757
1126+234377081+249782238+268604524+290205300+313673325+337944709+362337951
1116+386636567+410516793+433218491+453939540+472102522+487087002+498418441
1106+506731748+514223128+523778403+537517821+555818168+577325006+599851790
1096+621420485+640740917+657179035+670625360+681419679+690268043+697994579
1086+705058732+711036818+714234987+711416697+697955725+669181693+623460172
1077+565982254+509798534+470674018+457866695+468756018+492251929+516652804
1067+534534074+542952941+541925877+533098040+518716939+501283768+484176700
1057+472187761+470488617+482122158+506048494+537631255+571215984+602627924
1047+629878241+652305242+669408562+679917353+681266737+670887714+650100303
1037+627022610+613337657+616378827+634528123+660183482+685780731+706696878
1027+720597972+726749905+726767304+724414236+722718256+721566307+719711265
1017+718538342+721576348+730287793+742329924+754079719+763238988+768813330
1007+770078129+766805621+760741230+756024574+756749605+763699602+773987850
997+783336921+787926286+785812810+779179700+774404797+777157549+787259709
987+799789687+810500865+818609137+825228011+831107895+836022262+839210391
977+839972488+838108643+834131115+829334550+825585335+824591830+827092957
967+832636491+839789769+846349021+849784030+848278402+841955647+833303962
958+826091062+823274561+825582309+831859746+840343359+849365571+857257290
948+862342685+863621306+861533000+857335618+850758211+838289230+815044842
938+779410558+735806501+692188416+654026872+620243986+585664961+548667366
928+516266942+500070340+506529636+531845930+566033831+600305803+630492898
918+655791209+676504349+693139078+706498686+717673641+727606835+736767479
908+745339391+753530805+761518251+769301521+776827802+784085127+790911065
898+796956338+802073092+806582822+810956734+815344744+819568120+823469245
888+827073701+830382657+833161404+835080333+836010021+835940289+834282889
878+828883632+816058015+793653296+766195915+745639018+742916317+757392526
868+777309322+791383508+797102609+797831079+796617169+794817554+793031968
858+790068714+781817677+762945207+730834643+689866914+653039075+636734369
849+649645121+685610666+728676880+765262789+790861689+807377585+817799520
839+823949253+826798419+827161313+826053995+824599257+823590004+823236600
829+823317129+823505487+823597706+823483137+823023348+822057075+820337645
819+817312567+812304537+805299594+797494248+790688597+785899321+782910072
809+781820909+784619668+793798742+809066551+826579665+841957779+853365586
799+861506455+867721380+872851338+877278959+881075968+884007382+885852247
789+886850359+887609087+888423243+888728852+887376854+883539409+877204138
779+868787230+858713610+847366870+834390031+817050420+789578667+745694033
769+683767176+610297038+537155099+474371313+426290535+394248294+379826446
759+383894233+404298636+436422781+475777672+518843921+560955037+593823228
749+605823273+586268133+532628417+456380185+380973203+330363310+316491098
739+335469405+373448951+415751864+452657618+480473973+500523527+517714081
730+538088947+565248593+597542253+627940057+646900483+647307183+629823089
720+605546272+591401392+598921896+625880289+658663344+683703290+697793224
710+707180186+718314017+732007292+745475967+756642119+765564135+773383371
700+780953389+788299426+795054670+801137628+806815124+812350131+817908381
690+823679885+829781204+836047637+842153152+847881812+853074418+857517237
680+861111446+863932692+866114387+867913521+869660871+871381814+872274229
670+869203764+855670240+830743213+805076369+781827511+753073973+713307431
660+671819258+650329441+662748633+701181607+745045542+779662183+802376775
650+816595376+825983026+832836746+838284004+842675039+845486039+844480912
640+834297536+806262978+754231905+686452054+629652817+611966198+639050094
630+691677463+745113623+786310835+814739921+834301181+848166653+858306154
620+865956563+871692994+875725537+878361519+880168492+881823486+883917019
611+886901592+891016864+895926899+900560826+903865587+905503594+904963552
601+899724939+884075532+849953408+792162660+716948128+644804474+599737152
591+592371447+614733804+651299358+690287711+725247097+753211580+774027874
581+789146591+799892153+806779708+809575991+807278489+798770669+785102633
571+771562644+765717833+771385564+785224629+800684646+813982912+825266591
561+835828608+845866538+854523518+860891935+864535040+865669315+865446503
551+865639538+867414258+870482523+873663775+876071926+877601898+878525602
541+879066057+879420836+879380056+876971974+867992536+848554510+819050359
531+785568886+757326370+742367954+744296441+759960840+780352280+797483383
521+809614295+819050771+827779546+836017379+843342992+849542651+854288603
511+857099946+858205958+859039919+860908096+863106227+863622132+861917624
501+859645636+858192204+857108543+855569425+853628215+851587290+849306773
492+846724568+844495010+843443188+843307714+841953928+835684606+820591402
482+794033451+755988814+711449019+671908245+650763442+655136528+681694549
472+718150072+752218694+780236610+803794654+823617855+839797334+853261332
462+864279425+869487642+857948005+814168038+739014779+660524782+612267062
452+610857849+646470677+694247634+736643695+768648079+790822009+804989102
442+812994771+816254969+816219553+814680160+813371143+813633084+816441608
432+822308701+830702227+839675681+846841750+851104463+853247166+854895970
422+857036542+859820240+863121769+866158468+867666572+867274176+865510596
412+863649639+863444158+865193915+866533122+865547112+864724085+868423718
402+876991917+886970155+895579684+901119917+900582282+893671414+885652679
392+881757881+882746503+885406074+885832647+882196420+875613650+869052472
382+864115824+860858101+860923638+866526245+874509977+872361841+852753680
##END=
