##TITLE=X8145
##JCAMP-DX=4.24
##DATA TYPE=INFRARED SPECTRUM
##DATE=30/10/2018
##SAMPLING PROCEDURE=Diamant-ATR
##ORIGIN=ComPlat
##XUNITS=1/CM
##YUNITS=TRANSMITTANCE
##RESOLUTION=4
##FIRSTX=3997.453
##LASTX=373.96442
##DELTAX=-1.4165319
##MAXY=0.98035616
##MINY=0.20659953
##XFACTOR=1
##YFACTOR=9.1302782e-010
##NPOINTS=2559
##FIRSTY=0.94274855
##XYDATA=(X++(Y..Y))
3997+1032551829+1032694080+1032952663+1032829606+1032484588+1032314397
3989+1032409840+1032628340+1032857155+1032986284+1032902853+1032700412
3980+1032633171+1032716602+1032626773+1032135523+1031453975+1031054969
3972+1031255517+1032008745+1032995293+1033871252+1034435161+1034603002
3963+1034429612+1034206085+1034248192+1034517156+1034715941+1034642106
3955+1034217836+1033454946+1032609539+1032161114+1032484001+1033469896
3946+1034493001+1035018329+1035210912+1035582826+1036067025+1036142361
3938+1035716132+1034973219+1033840177+1032468007+1031806435+1032623052
3929+1034147200+1034915640+1034395861+1033214641+1032400505+1032311982
3921+1032394042+1032067107+1031468664+1031334900+1032146621+1033586686
3912+1035040916+1036160510+1036684793+1036086218+1033919365+1030627500
3904+1027727068+1026607671+1027392170+1029584418+1032481520+1034898731
3895+1035803219+1035004293+1033268173+1032021606+1031895219+1031988181
3887+1031480088+1030555624+1029625611+1028603028+1027846927+1028580505
3878+1030805917+1032691729+1032923090+1031548831+1029412790+1027681762
3870+1027666356+1029564898+1031584801+1032133108+1031376289+1030617969
3861+1030641927+1030974998+1030780979+1029533432+1027161070+1024558196
3853+1024282377+1027376567+1031197481+1034027407+1035574339+1035678399
3844+1034249629+1031629977+1028622416+1026130587+1025032342+1025870959
3836+1028023124+1030235022+1031799123+1032553070+1032644073+1032504826
3827+1032590868+1032873541+1032662091+1031387061+1029702383+1029286665
3819+1030295082+1031372503+1032463110+1034303944+1036254386+1036930907
3810+1035831486+1033496596+1031340384+1030674177+1030772362+1029859518
3802+1027942435+1027115960+1028535134+1031207012+1034146613+1036655938
3793+1038114999+1038567537+1038459233+1037945004+1036983786+1035902840
3785+1035296171+1035160122+1034760855+1033846379+1033385942+1034292258
3776+1035837231+1036716911+1036553967+1035682773+1034541506+1033519445
3768+1032862116+1032725415+1033361527+1034606658+1035469495+1034986406
3759+1033306167+1031766286+1031358467+1031560647+1031204335+1029659819
3751+1027693187+1026814486+1026702592+1026100231+1024946038+1024212852
3742+1024388070+1024630594+1023920256+1021674346+1018227043+1015446013
3734+1015412850+1018032763+1021699675+1024965297+1026858356+1027116352
3725+1026484418+1026135745+1026579273+1027664006+1029126135+1030601648
3717+1031553139+1031417221+1029878319+1027392431+1025685427+1026351372
3708+1028582398+1030520698+1031170780+1030570117+1029578477+1029211460
3700+1029519462+1029915661+1030403255+1031352461+1032706157+1033974333
3691+1034742445+1035026097+1035237221+1035597775+1035895659+1035923926
3683+1035512908+1034492610+1032965654+1031223594+1029435705+1028360960
3674+1029271128+1031081017+1031502545+1030658574+1031326348+1034674813
3666+1038379915+1040325853+1040209781+1038920323+1037339314+1035666191
3657+1034094126+1033345467+1033354476+1032564820+1029732478+1025450606
3649+1022575700+1023471440+1026875525+1030798801+1034234679+1036583278
3640+1037730682+1038097112+1037919674+1036851850+1034672267+1031881053
3632+1029004841+1026015625+1023636082+1023967977+1026817032+1029731173
3623+1031464225+1031998235+1031763675+1031559733+1032130758+1033075198
3615+1033353040+1032743368+1031967095+1031585976+1031732796+1032793048
3606+1034705300+1036184207+1036199092+1035125327+1034007692+1033325034
3598+1032758448+1031962133+1031123385+1030776801+1030904559+1030567701
3589+1029006995+1027127254+1027346015+1030339996+1034026559+1036546198
3581+1037585951+1037919544+1038291001+1038589080+1038505780+1038425613
3572+1038716185+1038715467+1037432864+1035110442+1033571149+1033930528
3564+1035005664+1035749035+1036506702+1037821229+1039443235+1040569422
3555+1040582413+1039498790+1038118198+1037450424+1037566301+1037664877
3547+1037299883+1036905904+1037165859+1038350277+1040271538+1042224853
3538+1043182741+1042739278+1041652587+1040855946+1040364696+1039731196
3530+1038916145+1038192098+1037638503+1037303213+1037610693+1038952834
3521+1040833358+1042036643+1041896547+1041053752+1040702859+1041158399
3513+1041562171+1041104541+1040152136+1039800330+1040382322+1041050749
3504+1040984161+1040434287+1040278132+1040735565+1041214346+1041245943
3496+1040933958+1040624912+1040506620+1040509623+1040496632+1040573926
3488+1041072292+1041999302+1042799272+1042995054+1042748874+1042468748
3479+1042153956+1041589524+1040978873+1040892569+1041556034+1042537555
3471+1043281057+1043544732+1043226089+1042287067+1041065633+1040177792
3462+1039901126+1040008842+1040277218+1040777411+1041561322+1042332112
3454+1042688031+1042693907+1042906205+1043613997+1044325836+1044309646
3445+1043461105+1042346670+1041640836+1041643513+1041988204+1041982590
3437+1041477696+1041017977+1040986641+1041157812+1041218263+1041197765
3428+1041274863+1041492188+1041655394+1041414111+1040659903+1039819914
3420+1039463407+1039745558+1040480115+1041418419+1042235233+1042616025
3411+1042544149+1042309393+1042256580+1042588671+1043235555+1043848491
3403+1044049561+1043677973+1042821273+1041805348+1041089004+1040893679
3394+1040991407+1041006096+1040796604+1040501593+1040366850+1040513540
3386+1040800325+1041025354+1041285439+1041840274+1042563929+1042937867
3377+1042752008+1042419459+1042375786+1042566475+1042680524+1042535793
3369+1042166817+1041822517+1041741567+1041793140+1041750511+1041940352
3360+1042879309+1044222886+1044893140+1044384003+1043309063+1042577900
3352+1042550090+1042993161+1043445633+1043583575+1043457450+1043358612
3343+1043435906+1043603486+1043741950+1043687178+1043148403+1042096246
3335+1041152263+1041131307+1042187968+1043650751+1044669809+1044964494
3326+1044942885+1045059806+1045216875+1044971936+1044165894+1043163744
3318+1042552440+1042604535+1043060598+1043598329+1044232090+1044877015
3309+1045058892+1044664913+1044393142+1044860303+1045790185+1046410368
3301+1046242331+1045375446+1044254613+1043296724+1042723610+1042707355
3292+1043313894+1044204802+1044802659+1044875318+1044633316+1044274785
3284+1043846467+1043569539+1043833803+1044632729+1045327464+1045330402
3275+1044830730+1044465801+1044488846+1044694943+1044944452+1045219813
3267+1045302004+1044963188+1044530235+1044709109+1045620712+1046448558
3258+1046376160+1045560587+1044794433+1044431398+1044038528+1043066147
3250+1041610219+1040435070+1040250321+1040953021+1041752469+1042190840
3241+1042596701+1043174059+1043287976+1042332699+1040790207+1039690068
3233+1039451787+1039782181+1040213633+1040360648+1040138949+1039995850
3224+1040484816+1041464247+1042180918+1042280277+1042241761+1042551395
3216+1042996556+1043191424+1043228439+1043310891+1043265128+1042920371
3207+1042529983+1042416652+1042506611+1042439371+1042014578+1041476847
3199+1041337404+1041887865+1042951380+1044051911+1044679405+1044568687
3190+1043910183+1043106165+1042342687+1041686991+1041367760+1041520913
3182+1041892892+1042167665+1042366581+1042643770+1042868406+1042733468
3173+1042238105+1041771075+1041682225+1041989640+1042461828+1042779753
3165+1042774400+1042640897+1042631693+1042608126+1042329500+1041884209
3156+1041339623+1040542852+1039719902+1039486582+1039897992+1040287336
3148+1040180600+1039639604+1038813782+1037809935+1036806022+1035899315
3139+1035128199+1034731282+1034914921+1035324960+1035223838+1034276721
3131+1032788935+1031041260+1028661847+1024720488+1018192640+1008118782
3122+993420451+972969369+946408181+915540640+885211874+862192910+852110239
3112+856652001+873031615+895775546+919450142+940483216+957317392+969739392
3102+978425606+984625737+989462314+993364765+996368800+998638864+1000312640
3092+1001256558+1001482631+1001493468+1001787238+1002177888+1001841292
3084+1000077754+997140046+994326897+992994940+993314824+994118058+994024443
3074+992613756+990453366+988162019+985839989+983478921+981390602+979902882
3064+978832250+977277485+973807530+967322768+958229517+948548530+940657324
3054+936153687+935647161+938790639+944179440+949675043+953408804+954758714
3044+954375702+953368003+952704277+953195396+955298468+958656725+962362481
3034+965791569+968649894+970336660+970117573+968169611+966011897+965623402
3024+968002096+972525449+977793412+982825575+987168812+990470274+992745822
3014+994685623+996969267+999527097+1001855263+1003612273+1004665278+1005078777
3004+1005249686+1005635440+1006296881+1006967984+1007439519+1007665461
2996+1007665788+1007451923+1007005326+1006370716+1005748966+1005299301
2987+1004846502+1003923213+1002052024+998984730+994785049+989588113+983203690
2978+975248247+965729616+955026698+943207777+929916607+915095022+899374760
2968+883606907+868327823+853817178+840430043+828612493+818658625+810621840
2958+804378296+799652373+796224656+794380036+794997477+798888112+805924771
2948+814765379+823363593+829798152+832810412+831851349+826862207+818132840
2938+806405968+792999248+779485727+767062878+756432227+748344718+743810659
2928+743452846+746841982+752637623+759389520+766268261+773154248+780175043
2918+787334368+794541023+801707985+808728650+815484399+821844602+827646248
2908+832895149+838012897+843579854+849762945+856196982+862362513+867853154
2898+872400335+875973240+878939803+881962770+885622240+890101657+895183369
2888+900438667+905371405+909429881+912049207+912885735+912016370+909667705
2878+905626137+899095221+889285235+876132399+860637948+844853513+831454628
2868+822791915+819869809+821964982+827029199+832496926+836082431+836285721
2859+832637153+825986443+818665610+813808600+813881912+819684277+830596882
2849+845348811+862365777+879880849+896304463+910630229+922480877+931987495
2839+939674041+946137716+951685610+956400305+960436389+963993366+967106944
2829+969746377+972067427+974370264+976794003+979189802+981334002+983147025
2819+984648847+985885687+987039553+988390050+989989730+991576615+992931355
2809+994135489+995388193+996720411+997977227+998992042+999687300+1000055296
2799+1000198983+1000399922+1000929950+1001749309+1002565013+1003173184
2791+1003618149+1004109333+1004870330+1005953431+1007184330+1008370838
2782+1009450347+1010374942+1011054009+1011509224+1011917696+1012405029
2774+1012888380+1013232940+1013529714+1014052756+1014911285+1015935892
2765+1016913235+1017681805+1018053849+1017976294+1017744215+1017770524
2757+1018179648+1018779985+1019312167+1019617624+1019690609+1019649025
2748+1019601107+1019537261+1019408851+1019240422+1019071863+1018854342
2740+1018546405+1018273590+1018213530+1018325228+1018359697+1018152752
2731+1017726066+1017130299+1016456715+1015980611+1015953192+1016224179
2723+1016397570+1016353112+1016296121+1016372371+1016586562+1016969313
2714+1017510439+1018062010+1018555283+1019156599+1020052143+1021190864
2706+1022295116+1023043187+1023279444+1023112778+1022792307+1022511658
2697+1022388143+1022501996+1022762799+1022824883+1022401526+1021648298
2689+1020961984+1020462900+1020007033+1019634140+1019573558+1019809097
2680+1020026618+1020019176+1019853489+1019657968+1019504294+1019507753
2672+1019806551+1020346698+1020844149+1021088697+1021206271+1021506244
2663+1022127340+1022906681+1023568776+1023998725+1024321286+1024746796
2655+1025426125+1026408756+1027529459+1028371210+1028631034+1028490872
2646+1028359002+1028368403+1028396931+1028382700+1028331910+1028169748
2638+1027819639+1027331000+1026844907+1026543499+1026631826+1027174779
2629+1027912993+1028447851+1028678233+1028787646+1028760815+1028347316
2621+1027637109+1027128168+1027015229+1026984677+1026895371+1027028025
2612+1027505239+1028131754+1028926437+1030100214+1031397832+1032175542
2604+1032235275+1031947380+1031529442+1030875638+1030148327+1029859126
2595+1030134553+1030402210+1030119407+1029463188+1028972004+1028792412
2587+1028642785+1028368272+1028239470+1028690375+1029786597+1031021088
2578+1031857094+1032355199+1032870930+1033421391+1033921128+1034587465
2570+1035433198+1035955653+1036043915+1036510293+1037964719+1039721403
2561+1040501463+1039903084+1038637063+1037570283+1037059057+1037055401
2553+1037339575+1037629559+1037746545+1037637981+1037202025+1036400814
2544+1035580280+1035254259+1035543591+1036086414+1036382731+1036137922
2536+1035523419+1035087332+1035169196+1035587526+1036034645+1036410606
2527+1036661356+1036703333+1036570940+1036275929+1035626761+1034610444
2519+1033827774+1034031128+1035203078+1036509575+1037239693+1037495404
2510+1037882659+1038705413+1039552518+1039730151+1039088686+1038163765
2502+1037422353+1036792900+1036067547+1035345263+1034917859+1034931960
2493+1035159078+1035081783+1034462841+1033801595+1033886658+1034971521
2485+1036676959+1038477447+1039910918+1040568377+1040403931+1039993957
2476+1040015239+1040467385+1040860059+1041110743+1041680332+1042768720
2468+1043893079+1044407831+1044169811+1043664329+1043553219+1044007780
2459+1044547927+1044680385+1044432703+1044040095+1043576851+1043237840
2451+1043413384+1044045187+1044439297+1044134689+1043490744+1043115761
2442+1043174777+1043447788+1043656561+1043582661+1043210747+1042904638
2434+1043154605+1044001578+1044931330+1045476112+1045650481+1045640885
2425+1045405476+1044821525+1043964106+1043116871+1042641485+1042696387
2417+1042977298+1043027108+1042840009+1042768786+1042937932+1043190314
2408+1043475924+1043913904+1044571037+1045318781+1045824785+1045769360
2400+1045209237+1044532912+1043985780+1043500079+1043023974+1042706833
2391+1042712773+1042984152+1043018230+1041781650+1038303470+1032617308
2383+1025718590+1018428897+1010749337+1002400697+993469869+984350832+975366147
2373+966467438+957238727+947459880+937539372+928139424+919917955+913811244
2363+910481972+909301144+909106537+910093934+913723243+920733920+930500819
2353+941911595+953235284+961742559+964823431+961445133+953284637+944787284
2343+939972251+939043543+939893259+941089755+942541374+944529745+946709459
2333+948369003+949598271+951325382+953874986+956423806+958275607+959833375
2323+962106770+965835439+971165029+977573540+983791754+988406697+991053311
2313+992759727+994906409+998123656+1002268892+1006972750+1011834852+1016337183
2303+1019999199+1022719321+1024845830+1026874807+1029095714+1031366301
2295+1033168160+1034167830+1034800416+1035856946+1037456104+1039039137
2286+1040388459+1041799081+1043146183+1043802206+1043729873+1043720929
2278+1044272957+1045005426+1045374010+1045353642+1045305072+1045568291
2269+1046247815+1047259627+1048552675+1050119453+1051622254+1052318817
2261+1051806024+1050693155+1049983796+1049790821+1049339002+1048353368
2252+1047491575+1047197609+1047329610+1048092304+1049868507+1051892653
2244+1052666772+1052098097+1051737608+1052422746+1052959041+1051818493
2235+1049319678+1047323604+1047211514+1048724433+1050429087+1051027988
2227+1050640733+1050776520+1052544237+1055315083+1057632151+1058635737
2218+1058225307+1056906276+1055764226+1055654029+1056429192+1057472536
2210+1058545909+1059684303+1060657468+1060919773+1060150485+1058782558
2201+1057533705+1056409347+1054982143+1053587646+1053123292+1053474185
2193+1053098811+1050742769+1047193496+1044574627+1044032522+1045133314
2184+1047343188+1050445016+1053450096+1055112185+1055638296+1056103694
2176+1056288705+1054843940+1051856226+1049583811+1049766210+1051494170
2167+1052853610+1053500428+1054193923+1055403475+1057617528+1060604589
2159+1061984855+1060409591+1058813371+1060121108+1063483804+1066631787
2150+1068479409+1068693405+1067131327+1064424066+1061709951+1059517637
2142+1057373306+1054557024+1051467534+1050173964+1052640920+1058096374
2133+1063218562+1065357344+1064512655+1062202963+1059759509+1057777535
2125+1056309595+1055437031+1055655857+1057154741+1058886683+1059424088
2116+1058733987+1058045519+1058049697+1058235230+1058026522+1057778775
2108+1058302928+1059648072+1060759047+1060686192+1059836281+1059373755
2099+1059626659+1059906525+1059745342+1059441453+1059390794+1059646178
2091+1060094342+1060464885+1060326421+1059597086+1058757293+1058170209
2082+1057706508+1057392826+1057718259+1058778510+1059790257+1060095125
2074+1060163411+1060882170+1062195064+1063251333+1063754139+1064367858
2065+1065605874+1066789901+1066535887+1064253679+1060843915+1057932320
2057+1056766964+1057617528+1059276158+1059315980+1056442510+1052827432
2048+1052474972+1056572422+1062152370+1066007883+1067738845+1068231728
2040+1067345584+1064653077+1061263484+1059103551+1058728177+1059310235
2031+1060548055+1062825758+1065534781+1067177090+1067705878+1069033134
2023+1071930498+1073741823+1071294712+1065499529+1060803048+1060255720
2014+1063111564+1066763526+1068992855+1069111081+1068282452+1067933126
2006+1067792899+1066814120+1065398667+1065090534+1066543133+1068616110
1997+1069211225+1067096663+1063163920+1059678493+1058293854+1059049106
1989+1060910372+1062325760+1061736782+1058962998+1055669958+1053735314
1980+1054084053+1057214213+1062792007+1068247656+1070540374+1069541162
1972+1067089481+1063741147+1059129338+1054764230+1053393757+1055126156
1963+1057162575+1057794508+1058077442+1059191160+1060118301+1058718581
1955+1054019097+1047389669+1042037623+1040739939+1043387467+1047157917
1946+1049479947+1050214439+1050586940+1051065591+1051345913+1051660574
1938+1052484047+1053307910+1052942525+1051008338+1048426354+1046630370
1929+1046668560+1048457494+1050722793+1052380509+1053698626+1055253783
1921+1056477240+1056700114+1056809919+1058180327+1060287056+1061306636
1912+1060573972+1059180715+1058493357+1058613150+1058617067+1057793529
1904+1055977242+1053113304+1049127160+1044090167+1038393102+1033124486
1895+1030080825+1030339801+1032975120+1036158029+1038891533+1041325326
1887+1044071757+1047278624+1050055737+1051150197+1050596602+1049896709
1878+1050295585+1051735845+1053498143+1055067336+1056278325+1057034295
1870+1057039583+1056049445+1054464715+1052947356+1051653981+1050498548
1861+1049682714+1049712939+1051012320+1053549912+1056839231+1060217204
1853+1062983871+1064504821+1064595824+1063730572+1062575465+1061513124
1844+1060934526+1061339669+1062528723+1063719147+1064439930+1064682389
1836+1064461082+1063559205+1061807483+1059504189+1057676870+1057434150
1827+1058546301+1059827533+1060585657+1060784181+1060295085+1058859264
1819+1056721592+1054500098+1052342906+1049899255+1047074486+1044290453
1810+1042212384+1041397268+1042006352+1043652383+1045565810+1047202635
1802+1048729199+1050610899+1052752880+1054550169+1055543114+1055543702
1793+1054697969+1053791261+1053548802+1053502583+1052756078+1050978439
1785+1048476230+1045854293+1043519076+1041583257+1040103632+1039064401
1776+1038227611+1037312287+1036454672+1036421378+1037751115+1039944995
1768+1042117267+1043442043+1043283015+1041487553+1038616303+1035743420
1759+1033267781+1030626129+1027482716+1024008714+1020077016+1015293905
1751+1010244312+1007126816+1007486457+1010345043+1013961883+1017442088
1742+1020687211+1023726433+1026282173+1027881657+1028217927+1027470639
1734+1026824996+1027572676+1029143762+1030637162+1031775883+1032190361
1725+1031566587+1030123520+1028233464+1025711931+1022100640+1018050781
1717+1016365646+1018798264+1023232637+1027515162+1030952541+1033150926
1708+1033833388+1033508869+1033448744+1034145242+1034678991+1034171290
1700+1032975316+1032272159+1032468790+1033427136+1034654379+1035068531
1691+1033875234+1031199635+1027928399+1024452569+1020218418+1015926426
1683+1014236265+1014881712+1015579581+1015332944+1014058305+1012434014
1674+1011694038+1012072480+1012816830+1013941580+1015843257+1017357612
1666+1016651192+1012878979+1006583079+999734825+993640387+987813737+981629536
1656+974529357+965150953+953888108+946036528+941681017+936910767+930570671
1646+924755185+921176730+917678377+911802374+902823433+889949614+868648620
1636+830911478+778616687+724113589+666208103+593563940+500841557+401797780
1626+324675604+291165530+308135885+361472550+422733910+474536537+509532504
1616+520496324+513794270+508799318+516529961+538772849+572210982+610036844
1606+645845675+676079715+698844014+713069766+720205001+725440127+735250179
1596+753184493+777674989+803755959+827234578+846921203+863830975+879564621
1587+894534984+907138861+915284798+918107152+914962891+902885060+876606545
1577+838226305+810450016+810818274+830277260+857607409+886397664+909260473
1567+922990014+930732311+935566864+938070379+938051708+937173855+939462722
1557+943422882+944801908+943110702+938690953+931909222+923700809+915374561
1547+907204926+897892458+886020723+870273565+845016980+804282788+758944555
1537+715689483+661207994+580431211+482937957+403373469+355428216+330624104
1527+324084113+334262161+356933889+392903086+445147544+502649879+553965858
1517+602060379+647677433+684778007+712562261+734822579+753889739+773945471
1507+804450238+841641423+867559645+882007031+890780855+894954293+890238162
1497+866612919+820591441+768919379+732668194+724480085+747070470+780541408
1487+792378282+776087713+748966206+732031561+739926226+770940326+808406743
1477+837105537+850716656+844573778+809461184+743121799+663169011+587515722
1468+524322623+483386708+475108476+492286005+514472423+531080330+541996200
1458+548628043+549739933+547632551+551191617+568066856+599041068+636424641
1448+668727808+689673599+702500350+714348975+728638312+742295651+748433763
1438+741160325+723813029+713185055+720612168+744077664+778077912+814910632
1428+846375115+870266057+889293787+905195861+917356078+925829015+932547161
1418+938999216+944346432+947199730+946893033+943149153+935916386+925058748
1408+909645901+886852813+852925159+807869403+755676779+698903421+641074902
1398+592092410+561642807+549497082+546269390+539574451+520169944+482221254
1388+423619270+354301278+295776850+262078582+253333695+263770180+285097074
1378+308612055+329958648+350770023+374786503+402713986+432569976+463124260
1368+492578959+516926193+533794936+545584186+557087793+571035442+586704131
1358+603276851+621995338+644476703+669923455+694778095+715342116+729729573
1349+737698138+739879549+737070839+729697388+717840930+702500220+688271203
1339+683486852+693207205+713923660+738253560+760841009+779672108+794961115
1329+807688049+818557437+827662243+834757264+839736875+842992965+845479963
1319+848307474+852011793+856287203+860567313+864646026+868526412+871780609
1309+873370366+872156766+867481241+859519400+849429091+838932269+829441384
1299+822014205+818295785+820364323+828744168+841064849+853222259+861513842
1289+863651971+858800314+847720847+832818899+817337831+804219007+795594811
1279+792900802+796833806+806731139+820061935+833239514+843839090+852347736
1269+861213086+871842627+883070285+892696175+899733748+904673797+908175023
1259+910271175+910780443+910051370+909150472+909190817+910303229+911413095
1249+911128725+908542954+903035274+893644141+878740365+855942969+822281210
1239+775028506+713219785+639276829+560061080+486478026+430727903+401799347
1230+401906182+426285371+466037552+511711990+555806103+593795432+624117473
1220+647670970+667085759+685612708+705704932+727998218+751328711+773618145
1210+792851710+807427507+815752318+815587676+803995480+778768795+741222408
1200+697953496+658546430+629846526+611815397+599078801+586781817+575481043
1190+570674822+577069821+592911900+610521043+622866728+629300896+635091052
1180+645981854+662778231+681008667+696657053+711594253+731270302+757362828
1170+785448164+809942119+828677188+842441459+852370455+858279360+858135870
1160+849279725+831485245+809055715+789802761+782059681+790962437+814792601
1150+844759245+870521834+886669500+893620835+893872629+888822970+877721437
1140+857602512+824174008+773501420+703915803+619208367+532565472+465350618
1130+436675488+451046690+496521690+554812114+612093696+661981916+702942442
1120+735458886+760451599+778358822+788691720+790051944+780467966+758038044
1111+722488710+678055422+635277499+607596849+603534064+621596202+652876915
1101+687797383+720412795+748441140+771563447+790272990+805434631+817960756
1091+828546754+837648426+845517696+852050506+856527507+857308415+851380969
1081+834615993+804815101+766984474+734498125+721275176+731296742+756772610
1071+785950708+810763437+827942173+836371437+834987384+821929991+794218136
1061+748880229+687232691+619767315+564718848+538415069+545550990+578223948
1051+622979013+668344796+707820865+738912456+761156062+774761435+780154414
1041+778770819+774228992+771544449+774087134+780636264+784967294+780041280
1031+765513205+750261670+744176632+748328919+756468133+764414828+773572186
1021+785775881+798539830+805146017+796346668+764344062+712541174+662322233
1011+641471558+660460641+704088540+747929195+777824485+793865023+803792322
1001+815922444+833858456+854830752+873590106+887430627+896933721+903714864
992+908991510+913467989+917400731+920685415+923166016+924990332+926665478
982+928674675+930993636+933063610+934214278+933899943+931572822+926963101
972+920916384+915414514+912147065+911383653+912527466+914941021+917422536
962+917114533+909084472+886851834+845218181+786725806+727013629+689789215
952+691136252+727582369+780504654+831071746+870140519+897188322+914816332
942+925572912+931405894+933477305+931463865+923021415+905186917+878392475
932+848827840+823559636+802541576+779398640+751885765+727762614+717834728
922+725448810+743074666+755489680+746572562+709368319+654222516+605451800
912+585838617+601798531+642330870+690416970+734235951+769926034+798328381
902+821330960+840115643+855065639+866463227+875012740+881770252+887694956
892+893249574+898444616+903135548+906955091+909019973+907942618+901819977
882+888209773+865435682+835307138+804560891+782665045+776931031+788420210
873+811798032+839090579+864079310+884160567+899378416+910654644+918805935
863+924339140+927158099+925605358+916386830+897925164+874680649+855308685
853+844661975+839502707+832234165+815795665+786392278+748001071+715381089
843+706320545+727159470+767938446+812154083+848785668+875429111+894049740
833+906796455+915184133+920608969+924077488+925759685+925452140+923461353
823+920837131+918742676+917700704+917481224+917484227+917024705+915568972
813+913164622+910664306+909337180+909996010+912252300+914810195+916727017
803+918133526+919796334+922538586+926847747+932461511+938633766+944978954
793+951498902+957865633+963185561+966189335+964967575+956152884+935216885
783+900681909+860200034+829302593+819649481+829209892+846443270+862038517
773+873574895+881410219+885320961+886036391+886848308+891220662+898937172
764+905640891+906127114+897779846+881907018+862852653+844040421+821859486
754+784746574+724399722+650470475+588421515+556308974+543899182+518819709
744+456069093+363188073+277790733+239166501+259637853+321999777+399722290
734+474442465+538220854+588630158+625583194+648970351+654697968+632812240
724+573240551+477820992+368133182+277516776+229820885+226279560+253194872
714+296196093+346060094+397569864+447547847+493892311+535141972+569913825
704+595404643+605005137+588463688+539957529+470545595+408902463+382750433
694+398962696+444181887+500889278+557886327+609622888+653266455+688111849
684+715294917+736548319+753152440+765956472+775749615+783119671+788341284
674+791471640+791921762+788810599+784103216+786411406+802559855+822559313
664+836065393+843576720+848593476+852802102+855633204+855492977+850557301
654+838525756+816194737+780276296+730045409+670745425+614816494+577835387
645+570535510+592447024+632433994+675885696+712290229+738613854+757989474
635+775422028+793642541+811769504+826864231+835856228+835830180+824627133
625+804191393+781461629+760459629+733677852+687072292+616320666+536249097
615+472362339+444218119+456444467+499743833+557417861+613034676+653839439
605+671168586+664474072+646214194+636852894+649871966+682277561+721193246
595+756176320+783609224+804193286+820130155+833573107+845268122+852976014
585+850192960+828661063+787349775+740538118+711459837+713314901+739434062
575+772630814+800687099+821524000+837042540+847695974+853256010+855001140
565+854733678+852404793+845858144+832000584+806519102+763617012+700885264
555+627283865+563195614+528717728+530997193+561299813+602976095+643567645
545+680379671+715955444+751011895+782822636+808358499+826957323+840141038
535+849832145+857029725+861709689+863527935+862159159+856104020+841306264
526+814004643+777957531+745648489+729885924+735565297+757424389+785155046
516+811115374+832308391+848078725+859047408+866758891+872549244+877075599
506+881025314+885064728+888738756+890960577+892438048+895517745+900887549
496+906574168+910611362+913096075+914788195+915156192+912378099+903429254
486+882339775+839620411+770182136+686941792+621059580+601662352+632039949
476+688260692+743668539+785970358+812866771+825287465+826512097+821490706
466+815976693+815296451+821789765+833502341+846747421+860259767+875183062
456+890979705+905068821+916050365+923420225+926259030+924627297+921306251
446+920429573+923498825+927642625+928995473+926392076+919451708+904037294
436+871576601+813967628+730747390+634160452+550190185+507067963+514463349
426+559490054+620258827+677263350+720425982+750469660+774091573+797131624
416+818360872+833815565+842396349+846089244+848217515+850290884+852007419
407+854197122+858331129+863329215+865807204+863541905+858097353+855484817
397+860058502+866708885+869100897+868599528+870317108+874849338+877032773
387+873360508+867633740+866175462+868702021+870463341+869174340+863765105
377+851019044+829627700+808471307
##END=
