##TITLE=X9332
##JCAMP-DX=5.0
##DATA TYPE=LINK
##BLOCKS=1


$$ === CHEMSPECTRA SPECTRUM ORIG ===
##TITLE=X9332
##JCAMP-DX=5.00
##DATA TYPE=INFRARED SPECTRUM
##DATA CLASS=XYDATA
##ORIGIN=ComPlat
##OWNER=
##XUNITS=1/CM
##YUNITS=TRANSMITTANCE
##XFACTOR=1
##YFACTOR=1.0015887e-009
##FIRSTX=3997.453
##LASTX=373.96442
##MAXX=3997.453
##MAXY=1.0754476766342003
##MINX=373.96442
##MINY=0.46896511209828634
##NPOINTS=2559
##XYDATA= (X++(Y..Y))
2559I69135146I68709411I68453815I68540224I68976314I69574093I70102364I70398426
2551I70411519I70300116I70396463I70854690I71354397I71345530I70629564I69579746
2543I68747081I68369608I68388413I68730953I69297668I69845816I70132297I70052316
2535I69638601I69147643I68973874I69221852I69604502I69855040I69825106I69176327
2527I67527540I65207063I63539054I63634746I64810249I65353398I64833101I64513830
2519I65315609I66559370I67270457I67180894I66263248I64504546I62567016I61818915
2511I62721623I63968955I64064885I63085171I62477513I62887597I63228471I62516552
2503I61442037I61667938I63764359I66664822I69122411I70594453I70831243I69296478
2495I65387319I59436487I53519934I50181714I49948613I51860851I55086239I58474566
2487I60475117I60257965I58611796I57839712I59187021I60933821I60853363I58718319
2479I56323395I54830048I54194005I55296072I58463021I61296059I61254045I58195047
2471I54028983I50637443I49389099I50917854I53352294I54122711I53240534I53304686
2463I55749420I58847635I60394064I59485048I55820832I49530138I44419173I46040347
2455I52218031I58367745I62401459I63621535I61997564I58056151I52752789I47395273
2447I43959576I44271588I47528338I51200944I54202455I56806260I58982306I60071996
2439I59865912I59060145I57992951I55693600I51777478I48980027I49642791I51858471
2431I54074806I57280198I61734291I65728907I67663104I66880487I63958422I60795400
2423I58263781I55002628I50932970I49333874I51813898I55879033I59867102I63825833
2415I67415721I69856111I70967522I71031078I70164909I68543794I66924108I65907021
2407I64953669I63522986I62707043I64063576I66963206I69320937I69763513I68013321
2399I64886065I62221739I61232562I61483278I62458410I63805302I64212828I62387831
2391I59183926I57289482I57441352I57321796I54534581I48576370I42277166I40398968
2383I42600604I44819319I45368121I45914900I48517812I51870314I53360982I51203146
2375I45441556I39783693I39758401I45889370I53592952I59008312I60833606I59599069
2367I57276747I56186581I57165582I59624123I62693475I65424989I66772417I65893928
2359I62351233I56748654I52289443I53046293I58318769I64176110I67944408I68751008
2351I67379658I66291991I67320386I69392111I70672470I70687527I69454477I66311689
2343I60827774I55069279I53527967I57416655I63079517I67510818I69680556I69389671
2335I66959219I62666160I56316075I49551681I47099746I49137848I50973199I51583058
2327I54553684I61086524I67773079I72033050I73695881I73722304I72828045I70991385
2319I68379070I66220936I65140114I63193658I57704446I48381117I40766264I42345900
2311I50881732I59649295I65579418I68590986I69855456I70523338I70870104I70551367
2303I69397348I67543608I64653678I59884479I54593436I53900382I58768248I64264244
2295I67033071I66327936I62844928I58783007I56719494I56567624I56632669I56879338
2287I58269435I60021472I60418642I60187267I61847063I65301327I67875853I68120558
2279I67198271I66853112I67015218I66699695I66186242I66666310I67936494I67979876
2271I65164632I60779868I59252125I62468825I67207673I70422588I71597376I71597674
2263I71440984I71748770I72663143I73828172I74289435I72580186I67420184I59508792
2255I53505711I54319987I60169354I66067876I69798148I71987287I73734622I74897569
2247I74562884I72674271I70681814I70094092I70445797I69963170I68137578I66651135
2239I67295510I69733818I72323935I73900536I74346505I74339840I74610789I75163460
2231I75355023I74631975I73066800I71401172I70449784I70373789I70914081I72031146
2223I73678980I75338955I76406685I76750892I76590214I76054564I75114900I73952370
2215I73195401I73378097I74045324I74058060I73002529I71884572I72066673I73560793
2207I75096808I75717023I75706489I75947743I76620862I77017675I76619315I75808252
2199I75328481I75320031I75239811I74739867I74292470I74658219I75802896I76872054
2191I77239113I77062011I76800761I76643952I76557543I76508567I76483691I76522075
2183I76713341I77029578I77310108I77536187I77901043I78472400I78945624I78904146
2175I78313270I77523571I76739228I75863061I74966005I74412799I74359954I74679345
2167I75357939I76372526I77361465I77937702I78111293I78142000I78215019I78383313
2159I78636172I78954253I79330893I79674682I79715030I79143376I78004710I76943228
2151I76745833I77486615I78478589I79104516I79304768I79330893I79396651I79574884
2143I79835300I80116247I80315071I80221223I79691345I78887304I78181217I77920265
2135I78266971I78993827I79553044I79631657I79413552I79112014I78643610I77978883
2127I77454063I77470012I78014232I78658190I79028641I79142424I79199673I79262754
2119I79315539I79423431I79594641I79658555I79467349I79086068I78660630I78271732
2111I78019230I78021135I78234717I78562082I79159444I80174270I81160412I81347511
2103I80596196I79593273I79097196I79318038I79926053I80397314I80371724I79777159
2095I78772985I77735784I77151038I77234054I77755898I78382837I78956574I79322502
2087I79229428I78654144I78001437I77727274I77860517I78092011I78212638I78255545
2079I78273577I78144142I77580343I76350686I74569787I72693553I71143790I70025655
2071I69181207I68389842I67515519I66506109I65287699I63775428I62000897I60067830
2063I58020385I55908848I53852298I51832108I49528294I46493933I42497592I37735593
2055I32706395I27827638I23264879I19203969I16038330I14058905I13089426I12659465
2047I12442789I12276220I11867564I10887492I09383196I07727387I06160962I04699454
2039I03337208I01965262I00263452H98012720H95394276H92769107H90221658H87448963
2031H84187452H80792401H78238644H77373427H78244060H80284066H82959521H85952879
2023H88893392H91375142H93333203H95093631H96906427H98615974H99817423I00119616
2015H99242318H97094955H93841002H89772416H85198589H80585068H76680610H74281163
2007H73837872H75271233H77999890H81116196H83699232H85130747H85279344H84538919
1999H83703219H83647696H84944004H87681409H91558433H96097625I00864920I05610613
1991I10247580I14726787I18910049I22587119I25668492I28229509I30206613I31282556
1983I31291661I30420076I28822111I26429448I23293028I19770327I16399853I13860677
1975I12807526I13428336I15330636I17980085I21038844I24294999I27554546I30691799
1967I33670637I36450235I38894672I40861659I42396246I43686187I44717914I45175903
1959I44818426I43741234I42055729I39514588I35770570I30980721I25928789I21533195
1951I18310187I16250721I15111460I14794688I15428946I17085707I19494914I22053016
1943I24104745I25311670I25838334I26113866I26367914I26532698I26613691I26826678
1935I27123098I26839472I25219250I22195780I18299475I13868651I08709125I02513767
1927H95330838H87644513H80150585H73442487H67907691H63894329H61759226H61589265
1919H62956867H65014488H66835021H67797002H67875674H67675839H68120261H69929546
1911H73212421H77462156H81859834H85543152H87795847H88268893H87069586H84665795
1903H81852812H79650283H78750134H78974784H79592023H80095597H80393207H80526748
1895H80700696H81421363H83186373H86099571H89975286H94563098H99441379I03939807
1887I07485062I10003946I11938857I13837349I15733876I16856236I16253042I13877458
1879I10761628I08101944I06597528I06649481I08552614I12248369I17237756I22852950
1871I28394412I33116836I36518017I38678055I40057023I41025669I41772223I42456530
1863I43176483I43927084I44741301I45705305I46767620I47750786I48598389I49416772
1855I50274015I51095254I51733381I52123708I52442920I53009634I53907761I54872539
1847I55601537I55921940I55665392I54752923I53422456I52032717I50615186I48835358
1839I46379138I43209213I39437642I35054425I29857765I23631819I16276370I07769877
1831H98191786H87887493H77481854H67569614H58376434H49817096H41944148H35359177
1823H31257978H31068260H35679460H44516531H55275124H64942302H71415335H74228378
1815H73911903H71016260H65793654H58368519H48792035H37058606H23392231H08500007
1807G93495368G79796797G69100749G63001797G62275536G66445289G74048240G83394183
1799G93229715H02874041H11947070H20187731H27512115H34033649H39936574H45351815
1791H50318826H54867302H59143698H63324937H67384061H71135340H74508075H77566002
1783H80341850H82902094H85489236H88381367H91678941H95316674H99136330I02880706
1775I06265343I09106831I11265858I12469925I12319127I10420219I06367879H99817721
1767H91072712H81691956H74048240H69897232H69295764H70735075H72044714H71317322
1759H67647334H61516722H54496018H48440865H44780935H44167624H46457989H50973496
1751H56781742H62841715H68312240H73029189H77497624H82307290H87720151H93697762
1743H99926029I05842940I10975746I15261425I18901361I22027010I24618436I26641066
1735I28165536I29387874I30529456I31697223I32871773I34019842I35160472I36317051
1727I37468572I38565164I39578026I40523999I41445989I42386070I43390065I44509212
1719I45731133I46918240I47897895I48638082I49292157I50048412I50911249I51650662
1711I52064971I52281052I52622759I53186975I53796953I54359324I54972456I55681876
1703I56368325I56888979I57211226I57439923I57732356I58164756I58734506I59436666
1695I60169592I60691853I60918229I61086881I61401332I61732982I61905680I62012977
1687I62210551I62424549I62481084I62385867I62290175I62276904I62321597I62379916
1679I62386165I62281487I62155801I62193293I62391699I62562315I62650568I62767089
1671I62912056I63001618I63114866I63396468I63796911I64148973I64379813I64486693
1663I64463663I64378623I64387073I64595894I64983424I65452066I65891965I66202012
1655I66309190I66201655I65941120I65631370I65391366I65337807I65516277I65814006
1647I66013544I65996464I65859174I65807520I65970339I66315974I66705706I67007243
1639I67177561I67270159I67386382I67602642I67903049I68157455I68217976I68090922
1631I67976008I68049503I68276475I68506481I68650793I68672038I68546353I68356099
1623I68283854I68426619I68712327I69018744I69294157I69562488I69844209I70088855
1615I70248342I70407472I70696156I71055477I71254836I71175866I70934851I70696513
1607I70477932I70201329I69890686I69723641I69841650I70190855I70609747I70987338
1599I71292268I71555660I71859637I72220209I72466700I72389337I72082503I71999903
1591I72514665I73497772I74479094I75148939I75541408I75846160I76250293I76829207
1583I77393363I77595697I77343731I76918889I76618184I76504698I76518743I76603902
1575I76725778I76911509I77212869I77572369I77849210I77992570I78087548I78267388
1567I78581244I78856300I78802919I78397715I77991142I77912648I78176992I78590885
1559I78902955I78936579I78788220I78754537I78967464I79292866I79536083
1552I79528109I79190151I78735137I78599513I78998231I79698367I80258417
1545I80366785I80045133I79584525I79171048I78676282I78062256I77751673
1538I78183835I79162717I80048406I80496636I80674333I80828881I80966766
1531I80999020I80985928I81074420I81254914I81356974I81304843I81198974
1524I81113696I81005209I80851197I80708968I80622143I80614109I80777048
1517I81224980I81906787I82526764I82732669I82432381I81943862I81790564
1510I82249149I83047358I83623713I83759932I83818073I84261662I85067428
1503I85696926I85656935I85104206I84743158I85004407I85563326I85884740
1496I85922231I85998702I86271853I86571070I86633139I86362606I85895333
1489I85458410I85236913I85309872I85545116I85631941I85409076I85034579
1482I84728518I84578731I84663414I85068142I85690737I86176221I86147180
1475I85561124I84847598I84536658I84736374I85126046I85365276I85346590
1468I85222571I85309515I85726205I86110105I85996619I85439783I84950491
1461I84882292I85163121I85573978I86019828I86464190I86788937I86870346
1454I86712942I86411404I86061664I85742392I85443116I85024522I84463460
1447I84085095I84275944I84959715I85589748I85728467I85484892I85260182
1440I85165025I84944659I84482146I84045759I83909421I84029572I84238691
1433I84490656I84784041I85024700I85106884I85090518I85184663I85478822
1426I85789881I85932943I86005546I86198537I86496742I86780189I87058755
1419I87471220I88224320I89548182I91472739I93657414I95704264I97619834
1412I99690072A001982877A004314720A006602169A008827015A010692893A011751936
1405A011994856A012011756A012308832A012523068A011614468A008966030A005004800
1398A000811480I97555325I96065014I96532644I98517841A001111411A003326853
1391A004735338A005524917A005897569A005782954A005094184A004099769A003292456
1384A002750795A002016679A000808029I99438820I98364960I97757184I97573655
1377I97684224I97830203I97616145I96765924I95492527I94358621I93584335
1370I92800587I91715659I90665127I90179167I90323479I90734099I91068903
1363I91252670I91414776I91669776I91917517I91925253I91698996I91586462
1356I91785286I91976015I91773503I91281533I90829137I90458448I90049673
1349I89673153I89499205I89520807I89524080I89328114I89115424I89412856
1342I90532895I92167459I93654081I94490853I94656648I94644627I94980442
1335I95572568I95856550I95563939I94981216I94557266I94527868I94776263
1328I94970266I94977229I94983775I95095118I95147249I94996570I94627845
1321I93986088I93119800I92466022I92596051I93643310I95209140I96708318
1314I97607337I97592519I96827993I95945577I95635827I96293711I97848175
1307I99614494A000567727A000213642I99037484I97864957I97123818I96852095
1300I96979387I97383103I97904947I98438336I98928818I99285046I99427989
1293I99523085I99920375A000536662A000593911I99595927I98314496I98020754
1286I98976070A000381579A001476564A001991923A001895992A001355878A000672703
1279I99953939I99295044I99234820A000114617A001173540A001540360A001801371
1272A003106666A005076688A006265819A006367700A006455656A007437811A009426638
1265A012089715A014620085A015788863A014970360A013196484A012205641A012193976
1258A012018779A011415703A011268833A011734559A011738487A010624934A008881764
1251A007148711A005756651A004956240A004564187A003894937A002734728A001716986
1244A001347666A001374564A001291131A000828261I99921923I98749930I97879596
1237I97958209I99011300A000221497A000676868A000242087I99457743I98780281
1230I98249332I97720406I97112273I96537346I96338522I96777290I97595316
1223I98174826I98254093I98192084I98427504I98934055I99405971I99766363
1216A000181863A000645090A000908125A000876941A000774584A000823738A000955375
1209A000927048A000685676A000545589A000860993A001498703A001926580A001930746
1202A001948837A002604876A004098104A005981599A007371279A007478159A006071101
1195A003723666A001854573A001967285A004168445A006814621A008170975A007986493
1188A007034807A005867101A004601559A003401835A002701877A003102380A004959096
1181A007738931A010008051A010677065A010242522A010048043A010411769A010546142
1174A010105530A009637304A009662535A010175514A010831315A011290494A011664099
1167A012316687A013055087A013178631A012320258A010660402A008665147A006974583
1160A006173697A006672391A008693593A011655530A013984041A014627583A014214107
1153A013731123A013067228A011779429A010319766A009779413A010726457A012495336
1146A013822174A014127340A013689465A012610667A010555545A008002324A006723690
1139A008042672A011040314A013459995A014267665A014238149A014178995A013895370
1132A013141973A012315615A011623513A010537335A008542199A005945536A003758420
1125A003006570A004035261A006207261A008279760A009320234A009301548A008774526
1118A008339151A008376404A008670978A008509469A007595750A006379364A005226535
1111A003906362A002216871A000701029A000316236A001271373A002770791A004039188
1104A004861381A005248315A005181544A004744979A004209626A003862562A003638566
1097A002950154A001464187A000087241A000095693A001139143A001783874A001823390
1090A002342793A003555252A004366613A003939093A002496686A000971800A000218760
1083A000371581A000818739A000812194A000138302I99188402I98348714I97635367
1076I97163808I97398159I98281646I98803133I98330683I97747424I98382932
1069A000220188A002258766A003766276A004426243A004262114A003815074A003769608
1062A004164993A004363876A003762229A002090114I99293973I96148923I94985025
1055I97551814A002269596A006296288A008369739A008883906A008759768A008680025
1048A008974005A009647302A010409626A010754903A010109338A008214537A005377333
1041A002124510I99105444I97727191I99119608A001913725A003837926A004211410
1034A003899816A003872918A003744971A002068095I98295393I94287566I92600336
1027I92851171I93087367I93249413I94430748I96380239I97901972I98577827
1020I98867761I99032842I98654001I97360430I95715214I95048105I95982414
1013I97550565I98184942I96898989I93735015I89976000I87659926I87713545
1006I89014555I89856147I89247953I87548285I87156768I90161017I94779358
999I98008316I98937864I98411557I97337518I96071917I95147428I94960030
992I94661528I92686328I88174570I82011228I77423237I77292374I80648863
985I84976378I88439211I89712489I88491163I86280482I85309515I85726443
978I86223948I86514119I86568095I85033091I80426950I73761342I69095036
971I68809269I70878435I72696230I73410173I73332155I73096376I73220633
964I73373039I72151654I68587772I64939148I65551983I69852540I74847878
957I79220382I82130545I83060748I82659769I81771283I79636477I74482248
950I66477842I60862587I62982278I70030892I76775410I80797936I81690230
943I79718065I75807776I72154034I70168539I68133651I63658669I57750447
936I54445375I55197940I59053361I63674737I65735453I63458894I57321201
929I49430995I40626356I28994095I15907407I09995614I12088228I15084561
922I14877526I09387183H97338590H80462894H61088369H35399524G96377620
915G47141343G00947461F60857469F21756536E85483106E63870347E63417772
908E77146931E95207116F12880307F34217892F68499638G04617984G27057993
901G42217954G60428521G85577132H10190510H28257241H40599457H48394507
894H51944523H53117645H57246040H67992612H79790489H86901292H88323226
887H84631695H76795524H64107792H41688552H04212839G55810775G07004994
880F61077835F19217538E94596840E99899309F26196228F59976779F93957166
873G23347539G45069083G58385955G64604821G66973739G69199119G72093810
866G71950926G62688238G39480549G02074820F56448723F12903159E82526466
859E74308180E91365918F28328772F74390661G19996703G60376152G93730909
852H19109705H36884718H49009068H56874935H58986948H51423690H27697906
845G83952506G29611453F76791656F28094183E86594814E56108623E32224660
838E04219980D76405406D68221249D74734808D86892990E02779777E22771719
831E46628247E71407182E93865937F13973686F32996685F51470584F73692489
824G05696307G37910732G59614780G73303293G84546774G96481228H07271837
817H13676790H14513086H09221686G97464275G77508693G43272711F92971619
810F41157067F00298086E69373543E50103220E47732517E60934118E83199942
803F08993167F40110403F87766925G45407993G86112723H09052022H23354144
796H32444907H33432537H16524349G76326109G27001042F88866375F75401500
789F93474420G34615300G76982326H09899506H34814004H54033565H68958103
782H80284840H87867319H91610504H91893415H89543242H86560418H84979234
775H83110796H77377414H66620785H53992384H47057851H49711228H56024238
768H58460938H51732488H30427277G96694512G63019947G34138922G09220317
761F88560136F72752229F61629851F53682634F45907223F36311160F26209022
754F18745742F16286189F21093058F35166007F55176873F75561701F96056563
747G19118691G44524863G68373595G87882673H03776095H17469071H28584844
740H36355852H42170048H48779597H56194198H62007383H64906120H65328880
733H64721698H63995080H62529703H59296698H54647174H50417315H47981447
726H47591478H49644398H54661873H62409850H72399692H83733450H94046312
719I00969420I03910469I03924811I02660340I00513751H96327454H89586030
712H81827341H75670069H72370294H70861832H69453108H67656677H66042644
705H64977116H64433074H64164684H63134743H59685954H53085272H44920486
698H38324267H34900949H34130710H35234265H37632403H40670334H43967432
691H47587431H51267714H53406210H50926364H40457050H20049429G90042116
684G53547546G18231039F95343156F91060571G01371292G18506511G37359251
677G56259302G75256236G94263465H12218436H27531694H38808680H44925306
670H44751418H37184232H21541169G98008138G68044207G34958912G03915765
663F79841489F64814356F58459391F60101156F69250119F84801001G04804727
656G26829237G48337318G67068896G81429397G90852048G96020560G98626091
649H00548386H02871303H05544497H08238103H11550851H16962998H25444258
642H36227072H46828261H54319630H56962474H54803388H48596901H38245238
635H22669838H01491621G76818019G53302186G36323062G29387695G32469961
628G42812341G57201050G72981700G87192355G95597026G93344331G78086060
621G53974293G31486735G20506884G22853664G32745374G43985344G54868908
614G66760098G80524427G95195512H08742510H19244793H25827920H29150488
607H31099086H33686586H37813254H42837216H47299283H50200579H51775931
600H53053553H54693413H56579169H58697431H61901991H67234453H74695591
593H83177804H91498149H99082117I05740821I11302813I15583137I18290727
586I18691468I15549633I07524160H93232571H70756082H38225242G96684693
579G52657870G16330762F95966525F93781909G06106451G26077624G47032023
572G65655412G82732728H00230542H17558932H31217631H37948461H37678999
565H33530610H29409297H27493965H27572161H28449280H29764989H32188538
558H35926903H39465790H40223175H36940241H31464300H26724677H21475053
551H08411753G80693971G41468721G05345971F88746402F98029918G26167901
544G59604782G87440394H05081389H12372686H11108572H04441537G96888693
537G93194128G96145353H05244090H17837617H31669253H46087122H61049985
530H75769273H88688023H98456427I04614711I07556057I08386759I08879979
523I10888564I15278981I21515044I28335021I34690164I40129804I44626447
516I48253587I51044730I53055398I54397886I55119803I55053509I53842062
509I51049015I46005117I37494994I23993461I04810440H81502833H58159341
502H39479061H27864593H22559684H21340501H22008383H22795285H23390981
495H25794832H32439551H43137147H55000723H65420645H74223438H82933099
488H92718880I03403740I13991420I23538923I31478166I37557777I41754251
481I44203151I45157931I45019987I44341572I43610014I42922315I42096970
474I41286561I41242107I42796094I46165497I50690407I54951271I56429323
467I50582098I32611238I04252890H78074277H69300287H81671365I05013072
460I26678498I41170159I48926527I50928566I47281906I39586536I32116174
453I28832168I28585082I23818204I05953034H74988500H44231299H31723764
446H44321338H72150344H99316765I16788157I24823984I27953561I30313494
439I33511090I36565803I37737617I36718923I35113340I34898390I36636442
432I39313385I41608927I42877980I43041455I41838041I38207509I30726494
425I18884222I03364225H84969951H64394988H43615251H26707181H18213900
418H19853939H28714219H39656222H50064003H61416448H75947505H93031546
411I09499241I22564386I31750127I38532493I44769330I51270928I57289660
404I61202926I61934424I59995168I57298885I55922654I56722113I58899587
397I60970717I62066298I62097779I61008090I58502179I54533153I49750623
390I45536296I43651850I45386391I50568352I57457419I63846245I68307301
383I70426515I70374563I68914126I67678220I68557779I72317806I77953531
376I83535281I87628862I90029916I91431617I92589684I93802023I94956817
369I95851194I96487179I97155537I98174111I99550699A001015837A002307445
362A003291385A003973609A004550738A005272238A006146441A006966848A007622768
355A008132651A008391876A008131341A007120145A005225701A002326369I98399774
348I93799464I89354238I86001261I84085333I82974756I81684160I80075543
341I79019774I78961394I78781555I76744227I72409808I67018788I61731911
334I55898255I48106895I39266074I32941460I31355516I32936818I35716059
327I41068933I51435354I65825730I80202359I91463217I99164479A004151663
320A007312364A009463772A011153145A012364295A012974036A013399414A014360145
313A016116883A018253296A020137862A021452083A022330928A023127292A024153127
306A025536141A027033654A028015094A027894289A026561262A024436157A022417932
299A021590741A022415789A024266790A026109224A027462246A028470109A029326221
292A029920369A029935366A029091275A027316327A024719186A021259984A016434666
285A009450442I99293258I83795638I58963084I21148283H72242109H23517023
278G91332711G84149544G93163837G99218216G89214509G63735318G32752158
271G10221812G09611536G35859597G79736692H23756433H54353194H66964813
264H61053674H35240454G91511480G41670520G01132478F73167729F46338433
257F12344478E79854760E64218183E67425718E74107988E66475818E41080775
250E12316389E01020658E18969142E62765839F19538833F75787780G22631216
243G57006214G80604528G97975288H14076282H31443293H48671467H61354795
236H63832260H50406127H18189858G72156533G26713847F99129963F98594312
229G20325259G50390357G76105624G92189954G99720779H02468955H04171063
222H06681556H09143608H08769885H02613505G89115543G68421144G41861845
215G11731584F80860183F52127754F28301100F10764663E98631565E90685836
208E88187007E92662464F03480329F19639940F38428350F53734467F59725766
201F57411954F55871951F64063100F81463377F99824148G13144413G22430726
194G31764171G43414345G57056262G71455266G85737452G99360148H11734321
187H22373239H31131579H38303141H44742432H51489687H59012240H66929642
180H74153157H79223953H81267649H80935463H79889811H79176166H78267031
173H75822832H71591068H67361983H65808948H68771718H76481846H87674744
166I00351050I12691839I23470308I32200023I39237033I45347649I51005156
159I56254244I60925787I64708071I67376027I69226970I71049705I73300318
152I75349548I75843244I73674458I68103003I58136073I42815435I22131926
145H97675000H74365727H61197391H65571443H85942227I12656014I34723430
138I45107288I41949980I27536633I07338786H87690515H71042028H54324689
131H34175045H11016808G85157884G53840217G18440752F91453100F88387437
124G10976162G42889704G64777281G71354694G72046261G77762920G90064194
117H02316133H09347966H13879958H22452864H36820150H51692140H60002726
110H57259846H41366245H14089790G84640086G66051630G66776999G87102555
103H20223794H56011681H86428484I08732096I24083143I34566502I42061502
96I48425452I54499053I58899052I59977018I59013847I59382869I62211146
89I65310372I66736413I67067825I68238805I71215619I75079193I78153723
82I79669148I79962771I79342795I77137469I71849223I62032556I46905981
75I27278062I07038081H92426090H88650769H96912438I12788364I29350739
68I43881142I57675286I70742811I80894937I87054828I90024739I90694287
61I90422564I92145738I97077876A002584643A007096698A012168626A018308521
54A022870208A023765478A022214883A020632867A020167973A021335324A024371767
47A027855369A028658279A023488280A010365827I89162437I61876640I33543999
40I11382973I01347964I06398586I25959259I53247080I77690794I93104625
33A000922406A007764759A016737811A024786791A029188396A030620328A032464189
26A036929231A042798951A047570352A049577866A047768639A041977831A034220213
19A028227308A026255619A026341194A026769191A029108532A033784837A038616700
12A041136358A040278340A036371265A031227688A027947491A028238019A031434306
5A037492554A047920865A062577133A073741823A071651709
##END=


$$ === CHEMSPECTRA PEAK TABLE EDIT ===
##TITLE=X9332
##JCAMP-DX=5.00
##DATA TYPE=INFRAREDPEAKTABLE
##DATA CLASS=PEAKTABLE
##$CSTHRESHOLD=0.93
##MAXX=3997.453
##MAXY=1.0754476766342003
##MINX=373.96442
##MINY=0.46896511209828634
##$CSSOLVENTNAME=- - -
##$CSSOLVENTVALUE=0
##$CSSOLVENTX=0
##NPOINTS=48
##PEAKTABLE= (XY..XY)
427.7926318999216, 0.9027799355104068
474.5381843393275, 0.8900625684767104
522.7002686708365, 0.7672686562245811
549.6143746207972, 0.6894810781211619
575.1119486786547, 0.8625655752950817
613.3583097654414, 0.8671844586756876
655.8542665285377, 0.6569139347685538
667.1865216653632, 0.5891214596980209
698.3502232916339, 0.6997041687834744
725.2643292415946, 0.5018166295193647
733.7635205942138, 0.5651145564273321
755.0114989757622, 0.7107388958472433
764.9272222204845, 0.7853953223805529
840.0034125019542, 0.9328351605082692
966.0747508991399, 0.8195137964229301
1005.7376438780293, 0.8330451235438668
1028.4021541516809, 0.8706813443659569
1079.3973022673963, 0.8226453646539388
1133.2255141673181, 0.7944542755111537
1147.39083308835, 0.6898406134088574
1170.0553433620012, 0.8288086046621955
1188.4702579593431, 0.6948841203188283
1249.381129319781, 0.7216515532866108
1264.962980132916, 0.7305464732310465
1308.8754687881155, 0.6595054854344817
1337.2061066301794, 0.6921584589291477
1358.4540850117278, 0.8354558934589771
1400.950041774824, 0.8489380465810986
1439.1964028616103, 0.6172652828684644
1491.608082869429, 0.6764745103630501
1514.2725931430805, 0.5486026996497579
1556.7685499061763, 0.46896511209828634
1589.3487834245502, 0.575220583405566
1616.262889374511, 0.5955414759997081
1660.1753780297104, 0.5643128738143764
2857.1448268569193, 0.8455087531042489
2869.893613885848, 0.8706768141802669
2926.5548895699767, 0.7634865631440433
2953.4689955199374, 0.832388578144662
3031.3782495856135, 0.9080378394927336
3065.3750149960906, 0.8801462043378858
3083.789929593432, 0.8690543156054193
3092.2891209460513, 0.8629580718653056
3131.952013924941, 0.9162480223208257
3170.198375011728, 0.9142577033165562
3202.7786085301013, 0.8850515470946353
3215.5273955590305, 0.8752261382272465
3245.2745652931976, 0.878767310163475
##END=


$$ === CHEMSPECTRA PEAK TABLE AUTO ===
##TITLE=X9332
##JCAMP-DX=5.00
##DATA TYPE=INFRAREDPEAKTABLE
##DATA CLASS=PEAKTABLE
##$CSTHRESHOLD=0.93
##MAXX=3997.453
##MAXY=1.0754476766342003
##MINX=373.96442
##MINY=0.46896511209828634
##NPOINTS=167
##PEAKTABLE= (XY..XY)
3994.6199362157936, 0.9699923975758905
3984.7042129710712, 0.9718416317942893
3973.3719578342457, 0.9699080567962296
3960.6231708053165, 0.9705132827936238
3949.290915668491, 0.9650698284950898
3942.208256207975, 0.966046153121721
3930.8760010711494, 0.9633469567102606
3923.7933416106334, 0.9640066010249031
3918.1272140422207, 0.9629694799641819
3901.128831336982, 0.9514577963614731
3891.2131080922595, 0.9593614319504544
3881.297384847537, 0.9557099330157436
3869.9651297107116, 0.9508973934615813
3864.299002142299, 0.9547549472363659
3852.966747005473, 0.9459195717401452
3838.801428084441, 0.9454592445783913
3820.3865134870994, 0.9504876715688949
3800.555066997654, 0.9508420807256238
3779.3070886161063, 0.9642364956792141
3767.9748334792807, 0.9627596721712495
3758.0591102345584, 0.9588103278000535
3749.5599188819388, 0.9418929798404616
3733.9780680688036, 0.9412513951716688
3724.0623448240813, 0.9577056746212348
3711.3135577951525, 0.9538023452380942
3701.39783455043, 0.9678271390861017
3688.649047521501, 0.955042836881173
3674.483728600469, 0.9486044033664702
3648.9861545426115, 0.9422608593636168
3627.738176161063, 0.9554158435368835
3616.4059210242376, 0.9580873229842488
3607.9067296716185, 0.9617127165110829
3599.4075383189993, 0.9683891515390345
3595.1579426426897, 0.9677212220826654
3586.6587512900705, 0.9607760888509875
3578.159559937451, 0.9729843122912809
3566.8273048006254, 0.9550205455230657
3551.2454539874902, 0.9716352804839604
3545.5793264190775, 0.9681868536581746
3537.0801350664583, 0.9758877737038081
3525.7478799296323, 0.9719154218385844
3510.166029116497, 0.9747415165335688
3503.083369655981, 0.9734286050195364
3496.000710195465, 0.9772565938990744
3481.8353912744333, 0.975840328447089
3467.670072353401, 0.9780350306398917
3445.00556207975, 0.9759079196589199
3419.507988021892, 0.9782975891048872
3398.260009640344, 0.9794738869250056
3385.511222611415, 0.9790069442698881
3362.846712337764, 0.979573009150701
3348.6813934167317, 0.9806526877152852
3337.349138279906, 0.9787034378540707
3324.6003512509774, 0.9792805893202039
3245.2745652931976, 0.878767310163475
3215.5273955590305, 0.8752261382272465
3202.7786085301013, 0.8850515470946353
3170.198375011728, 0.9142577033165562
3131.952013924941, 0.9162480223208257
3092.2891209460513, 0.8629580718653056
3083.789929593432, 0.8690543156054193
3065.3750149960906, 0.8801462043378858
3031.3782495856135, 0.9080378394927336
2953.4689955199374, 0.832388578144662
2926.5548895699767, 0.7634865631440433
2869.893613885848, 0.8706768141802669
2857.1448268569193, 0.8455087531042489
2755.1545306254884, 0.9638056733173849
2748.0718711649724, 0.9636843779210488
2726.8238927834245, 0.9659107313183601
2709.825510078186, 0.966871439173981
2701.326318725567, 0.967341898407024
2682.911404128225, 0.9695138314839097
2671.5791489913995, 0.9698221665588499
2644.6650430414384, 0.9712642409484568
2627.6666603362, 0.9735441192458961
2607.8352138467553, 0.9780560710137126
2585.1707035731038, 0.9794662578238776
2576.6715122204846, 0.980309484332932
2566.7557889757622, 0.9801542140463032
2552.59047005473, 0.9793050270828951
2539.841683025801, 0.9825444203438136
2524.259832212666, 0.9821720106349684
2512.9275770758404, 0.9833503346690269
2497.3457262627053, 0.9863076194551147
2480.347343557467, 0.9868021588836832
2470.431620312744, 0.9861429312299398
2459.0993651759186, 0.9861007913885647
2452.0167057154026, 0.9867877940985478
2442.10098247068, 0.9864469744973005
2422.269535981235, 0.9856485109904266
2406.6876851681, 0.9854725578971427
2396.7719619233776, 0.9866555313059466
2350.0264094839717, 0.9976474624877418
2324.528835426114, 0.9991585002656985
2308.9469846129787, 0.9917522646426129
2294.7816656919467, 0.9931617954121794
2282.032878663018, 0.9910712223869835
2276.366751094605, 0.9906868316741089
2266.451027849883, 0.9962248189189149
2256.53530460516, 0.9961078744238917
2240.953453792025, 0.9940427527691514
2228.2046667630957, 0.9972175936383549
2215.455879734167, 0.9984357939233266
2195.6244332447222, 0.9996063095718799
2126.2143705316653, 0.9994649273141653
2109.2159878264265, 0.9979214050099015
2102.1333283659105, 0.9997779117638509
1896.736204010946, 0.9987480021417696
1889.6535445504296, 0.9993325453325088
1868.4055661688817, 0.9965657577092175
1844.3245240031274, 0.9993122801883417
1828.7426731899918, 0.9941772801538032
1810.3277585926503, 0.9966289379244135
1800.412035347928, 0.9892290213244362
1791.9128439953088, 0.9887250639573216
1770.6648656137604, 0.9788449983945738
1760.749142369038, 0.9868748762264805
1748.0003553401093, 0.9703484162856604
1740.9176958795933, 0.9746423342125512
1733.8350364190774, 0.9664721468244276
1716.8366537138386, 0.962389109391967
1698.421739116497, 0.9559617023672625
1682.839888303362, 0.9114413240319619
1660.1753780297104, 0.5643128738143764
1616.262889374511, 0.5955414759997081
1589.3487834245502, 0.575220583405566
1556.7685499061763, 0.46896511209828634
1514.2725931430805, 0.5486026996497579
1491.608082869429, 0.6764745103630501
1464.6939769194682, 0.8484035718078837
1439.1964028616103, 0.6172652828684644
1400.950041774824, 0.8489380465810986
1358.4540850117278, 0.8354558934589771
1337.2061066301794, 0.6921584589291477
1308.8754687881155, 0.6595054854344817
1264.962980132916, 0.7305464732310465
1249.381129319781, 0.7216515532866108
1188.4702579593431, 0.6948841203188283
1170.0553433620012, 0.8288086046621955
1147.39083308835, 0.6898406134088574
1133.2255141673181, 0.7944542755111537
1079.3973022673963, 0.8226453646539388
1042.5674730727128, 0.9427374583353909
1028.4021541516809, 0.8706813443659569
1005.7376438780293, 0.8330451235438668
987.3227292806878, 0.936383663072193
966.0747508991399, 0.8195137964229301
939.1606449491787, 0.9574413283204098
923.5787941360436, 0.945151029694095
910.8300071071149, 0.969215570388114
840.0034125019542, 0.9328351605082692
764.9272222204845, 0.7853953223805529
755.0114989757622, 0.7107388958472433
733.7635205942138, 0.5651145564273321
725.2643292415946, 0.5018166295193647
698.3502232916339, 0.6997041687834744
667.1865216653632, 0.5891214596980209
655.8542665285377, 0.6569139347685538
613.3583097654414, 0.8671844586756876
575.1119486786547, 0.8625655752950817
549.6143746207972, 0.6894810781211619
522.7002686708365, 0.7672686562245811
502.86882218139135, 0.9605374322987289
474.5381843393275, 0.8900625684767104
458.9563335261919, 0.9919960483274268
427.7926318999216, 0.9027799355104068
##END=

##END=

