##TITLE=NiW-X12605
##JCAMP-DX=4.24
##DATA TYPE=INFRARED SPECTRUM
##DATE=27/4/2020
##SAMPLING PROCEDURE=Diamant-ATR
##ORIGIN=Angelika Moesle
##XUNITS=1/CM
##YUNITS=TRANSMITTANCE
##RESOLUTION=4
##FIRSTX=3997.453
##LASTX=373.96442
##DELTAX=-1.4165319
##MAXY=0.89634895
##MINY=0.42296031
##XFACTOR=1
##YFACTOR=8.3479002e-010
##NPOINTS=2559
##FIRSTY=0.84804028
##XYDATA=(X++(Y..Y))
3997+1015872575+1015654517+1015803245+1016199876+1016447065+1016319329
3989+1015979248+1015691931+1015527067+1015431961+1015431247+1015623243
3980+1015980176+1016250713+1016211514+1015993028+1015946903+1016160177
3972+1016390445+1016546884+1016816779+1017159574+1017150506+1016627495
3963+1016085635+1016054147+1016386946+1016578871+1016505043+1016386375
3955+1016313546+1016198377+1015988173+1015683434+1015311008+1014949649
3946+1014614708+1014239568+1013935187+1013995092+1014458554+1014978423
3938+1015237037+1015206049+1015119654+1015335998+1016028943+1016905458
3929+1017482591+1017591691+1017389270+1017122945+1016930948+1016635920
3921+1015945189+1015011982+1014488828+1014779643+1015527923+1016201447
3912+1016637420+1016809639+1016629137+1016167531+1015749837+1015701427
3904+1016067356+1016622354+1017200058+1017774263+1018135194+1017875652
3895+1016849552+1015454523+1014471049+1014349954+1014552089+1014472049
3887+1014429637+1014930370+1015590328+1015683506+1015301726+1014937439
3878+1014675470+1014395864+1014205296+1014287121+1014749084+1015668297
3870+1016782149+1017313442+1016983928+1016443067+1016367953+1016804141
3861+1017266532+1017305588+1016794002+1015958756+1015415396+1015993028
3853+1017634389+1018655491+1018349182+1017338718+1016119907+1015117583
3844+1014857399+1015422250+1016098915+1016226151+1016007522+1015895852
3836+1015699856+1015133434+1014586719+1014712812+1015582545+1016603148
3827+1017224548+1017317298+1017091315+1017020199+1017564416+1018376885
3819+1018465065+1017873296+1017506153+1017668875+1017808107+1017559632
3810+1017081176+1016769868+1017008490+1017553277+1017563202+1016892535
3802+1016379663+1016701038+1017375133+1017649312+1017339361+1016551382
3793+1015565409+1014776859+1014479832+1014685466+1015158996+1015704212
3785+1016278845+1016811852+1017149578+1017217765+1017055114+1016839698
3776+1016871829+1017238543+1017658094+1017874295+1017990179+1018148903
3768+1018132123+1017690367+1016916740+1016191808+1016020232+1016715104
3759+1017958048+1018819427+1018724179+1017903712+1016840484+1016151823
3751+1016498902+1017457315+1017710788+1017025911+1016215870+1016140542
3742+1016684187+1017046760+1016794359+1015795890+1014352667+1013615811
3734+1014598928+1016421290+1017399266+1017098026+1016291555+1016006237
3725+1016613001+1017423685+1017623893+1017369563+1017356711+1017812891
3717+1018343327+1018491555+1018230871+1018080001+1018558029+1019178930
3708+1019059619+1018315052+1017563988+1017116876+1017063682+1017504297
3700+1018274854+1018849416+1018798293+1018094638+1017156004+1016682831
3691+1017211982+1018506406+1019387135+1019105887+1018348254+1017975613
3683+1018158470+1018506192+1018498267+1018027236+1017509866+1017274886
3674+1016888179+1015986888+1015210833+1015422750+1016578086+1017633032
3666+1018036375+1017974756+1017687939+1017371920+1017294593+1017683298
3657+1018476846+1019112813+1018978080+1018333045+1017997247+1018230728
3649+1018213449+1017466597+1016955439+1017130728+1017505011+1017694365
3640+1017726710+1017689582+1017515792+1017203557+1016915597+1016713533
3632+1016491834+1016380234+1016850908+1017769622+1018179819+1017853089
3623+1017315013+1017118161+1017584480+1018518330+1019144801+1019041198
3615+1018595943+1018269499+1018279780+1018806147+1019758419+1020410236
3606+1020169830+1019551785+1019414695+1019892509+1020419947+1020399312
3598+1019818752+1019252187+1019259256+1019681520+1019782766+1019319233
3589+1018906679+1019192496+1019803972+1019776412+1019024633+1018101064
3581+1017403764+1017167713+1017517077+1018196884+1018617434+1018434863
3572+1017858444+1017290094+1016915169+1016724386+1016659340+1016576658
3564+1016296053+1015864150+1015579689+1015667726+1015964253+1016097416
3555+1015912702+1015548273+1015233181+1015072458+1014966856+1014822484
3547+1014759723+1014863397+1014855614+1014437562+1013735193+1013072523
3538+1012641690+1012528949+1012786063+1013368693+1014123899+1014785355
3530+1015046182+1014925729+1014962786+1015609677+1016570589+1017162430
3521+1017172426+1016976431+1016894748+1016808710+1016448351+1015807886
3513+1015128722+1014635628+1014481617+1014737517+1015201908+1015488796
3504+1015452810+1015294800+1015210333+1015211689+1015290016+1015424035
3496+1015508717+1015512572+1015516356+1015467376+1015242820+1015002342
3488+1015059177+1015360631+1015540704+1015479871+1015421750+1015588400
3479+1015956828+1016355958+1016563163+1016384376+1015798461+1014998273
3471+1014328176+1014156672+1014563870+1015059749+1014935011+1014060352
3462+1013067025+1012608703+1012732655+1013119504+1013616311+1014299116
3454+1015193482+1016091275+1016629637+1016565234+1016039510+1015495722
3445+1015213689+1015059035+1014814844+1014515318+1014311540+1014200940
3437+1014075632+1013923834+1013793456+1013591249+1013153134+1012615915
3428+1012507100+1013201472+1014339244+1015073458+1014967642+1014432493
3420+1014145962+1014239068+1014302758+1014053212+1013679215+1013524418
3411+1013643871+1013795669+1013781746+1013650797+1013567473+1013592534
3403+1013669005+1013760183+1013902771+1014114974+1014325463+1014430065
3394+1014397864+1014280766+1014162384+1014165882+1014384155+1014677826
3386+1014717668+1014416071+1014067706+1013787458+1013140282+1011687062
3377+1009647142+1007669341+1006122372+1004913557+1003873391+1003050283
3369+1002681855+1003040287+1004188054+1005744662+1007114343+1008120237
3360+1009092001+1010167368+1010938782+1011007113+1010511449+1009963947
3352+1009855561+1010393494+1011334342+1012147383+1012487250+1012400213
3343+1012104185+1011778027+1011501135+1011251232+1011013182+1010884732
3335+1010971055+1011250946+1011636153+1012032285+1012305393+1012368797
3326+1012327527+1012340308+1012300680+1011901764+1011140132+1010487244
3318+1010325307+1010467751+1010557573+1010645968+1010935783+1011191612
3309+1010977553+1010382356+1009989580+1010141307+1010662890+1011229597
3301+1011612091+1011632583+1011233524+1010604412+1010081045+1009976657
3292+1010454756+1011336556+1012118037+1012388646+1012171588+1011747753
3284+1011324917+1010988620+1010845247+1011034888+1011535550+1012062559
3275+1012321172+1012304036+1012164091+1011961598+1011755036+1011736329
3267+1012003582+1012344306+1012478968+1012424132+1012405639+1012464045
3258+1012383220+1012076053+1011819868+1011961598+1012516168+1013163273
3250+1013574827+1013683427+1013645728+1013607029+1013597318+1013616097
3241+1013615454+1013461728+1013173769+1013073094+1013396611+1013942184
3233+1014362306+1014570082+1014650836+1014633914+1014534025+1014431136
3224+1014405860+1014453199+1014471549+1014359807+1014171380+1014015370
3216+1013807165+1013424743+1013113221+1013287724+1013876352+1014327534
3207+1014295118+1013910411+1013459372+1013196403+1013321997+1013788958
3199+1014278053+1014565370+1014710099+1014802706+1014814844+1014729877
3190+1014513461+1014012514+1013196474+1012389217+1011950674+1011861280
3182+1011875846+1011853426+1011720478+1011412740+1011047097+1010885374
3173+1011057022+1011503991+1012124392+1012820478+1013522276+1014244923
3165+1015023548+1015841730+1016646988+1017297377+1017541711+1017265247
3156+1016700895+1016241217+1016116837+1016324756+1016736024+1017149221
3148+1017307230+1017007704+1016252498+1015177131+1013733051+1011530909
3139+1008008852+1002496641+994001878+981476257+965307054+948901086+937759354
3129+935856095+942857011+954812784+967129415+976894184+983365878+987390953
3119+990346159+993077310+995641383+997840169+999630972+1001076623+1002270444
3109+1003357449+1004439742+1005425144+1006130583+1006575053+1007012311
3101+1007581090+1008094961+1008352075+1008482953+1008784692+1009298064
3092+1009776306+1010029779+1010082330+1009997863+1009786374+1009558034
3084+1009571457+1009970017+1010564499+1011012254+1011178760+1011210890
3075+1011274651+1011373327+1011452296+1011522198+1011582960+1011586958
3067+1011581460+1011738685+1012125534+1012586926+1012971348+1013305717
3058+1013635375+1013897558+1014108619+1014451343+1014942009+1015246319
3050+1015096806+1014646767+1014170452+1013708989+1013264805+1013021043
3041+1013106509+1013430526+1013912196+1014570225+1015256315+1015610320
3033+1015450382+1015002414+1014599571+1014297974+1013915837+1013331707
3024+1012596137+1011793878+1010909793+1009876839+1008714149+1007592514
3016+1006748985+1006333790+1006320438+1006555775+1006877864+1007195097
3007+1007516044+1007949518+1008603477+1009385173+1009989580+1010198927
2999+1010105178+1009904613+1009577027+1008924995+1007889898+1006669873
2990+1005428500+1003928727+1001585068+997924636+992847971+986345646+978214670
2980+968350797+957292532+946238195+936426302+928554867+922836666+919445058
2970+918612239+920194695+923313480+926631259+929052459+930080202+929517135
2961+927105075+922687795+916504060+909054462+900861153+892569453+884989620
2951+878667082+873499809+869034476+865145919+862280892+860998249+861372460
2941+862942563+865171267+867797744+870740098+873833036+876768679+879225579
2931+880961688+881797434+881612078+880493014+878866861+877315823+876218678
2921+875730797+876128357+877915232+881419010+886405854+892250863+898423174
2911+904673525+910826058+916594668+921702250+926078974+929851434+933167142
2901+936062729+938433448+940126503+941160815+941796210+942204408+942140148
2891+941146178+939034357+936004751+932421290+928619985+924771626+920760974
2881+916253515+910973072+905007823+899006946+894075867+891265604+891062255
2871+893320447+897503603+902902501+908843258+914842565+920569192+925735894
2861+930119187+933596904+936145482+937922790+939336525+940871356+942808102
2851+945144835+947769670+950661043+953841019+957155229+960272514+962971035
2842+965267569+967247584+968979552+970609346+972352381+974323971+976388095
2832+978175256+979368863+980059451+980657147+981412210+982232176+982987025
2822+983715027+984478873+985280061+986162146+987153974+988057622+988564282
2812+988676381+988757849+989066301+989501702+989913828+990377147+991001975
2802+991671714+992136819+992286618+992225070+992115185+992038857+992042284
2792+992235352+992751794+993575116+994442064+995017054+995209908+995225473
2782+995275597+995382555+995477090+995520501+995535138+995616535+995796465
2772+995885573+995713283+995489013+995592973+996071929+996693830+997375850
2762+998223020+999214348+1000133133+1000783594+1001124604+1001198433+1001031855
2752+1000636794+1000073157+999484386+999093895+999126454+999648037+1000469788
2742+1001246557+1001693954+1001777850+1001753217+1001926721+1002313570
2734+1002662363+1002850218+1003006800+1003199796+1003315465+1003306612
2725+1003254204+1003153743+1002935256+1002695207+1002652795+1002896628
2717+1003350595+1003890599+1004359702+1004615102+1004667867+1004623456
2708+1004490294+1004271879+1004156781+1004279019+1004394474+1004179129
2700+1003729161+1003395077+1003270126+1003195798+1003114686+1003129681
2691+1003331031+1003720022+1004197193+1004587184+1004756618+1004717348
2683+1004589184+1004500075+1004513999+1004622385+1004819737+1005141826
2674+1005565518+1005927591+1006038619+1005874326+1005608215+1005401439
2666+1005207014+1004888638+1004455521+1003997771+1003516387+1003025364
2657+1002664862+1002520703+1002521275+1002622307+1002862428+1003198368
2649+1003497752+1003715738+1003962285+1004382050+1004967822+1005509468
2640+1005818919+1005967218+1006162499+1006467238+1006785971+1007079357
2632+1007461208+1008039840+1008707008+1009219595+1009531259+1009809508
2623+1010071049+1010129811+1009994650+1009985511+1010351725+1011026605
2615+1011760534+1012289113+1012419920+1012184226+1011890055+1011844786
2606+1011996727+1012019575+1011793235+1011598454+1011724191+1012093261
2598+1012460761+1012760501+1013015545+1013114649+1012980630+1012834401
2589+1012995767+1013446091+1013785174+1013671147+1013242385+1013037322
2581+1013423886+1014183590+1014790639+1014999486+1014979637+1014991347
2572+1015091379+1015116441+1014956789+1014844261+1015131364+1015734914
2564+1016167746+1016176814+1015990029+1015927268+1016116694+1016560093
2555+1017185207+1017822601+1018288420+1018555816+1018788439+1019087609
2547+1019213417+1018813501+1017988751+1017309729+1017195345+1017557062
2538+1018039160+1018302700+1018152544+1017668376+1017190347+1017010917
2530+1017149649+1017435752+1017656380+1017635460+1017324652+1016824918
2521+1016310547+1016024659+1016264208+1017115020+1018219732+1019036129
2513+1019287745+1019044054+1018531968+1018015812+1017649169+1017323438
2504+1016857191+1016391159+1016308191+1016658912+1016961437+1016777151
2496+1016234791+1015740412+1015447740+1015325002+1015463020+1015907204
2487+1016388660+1016574087+1016471342+1016366740+1016426645+1016523964
2479+1016503543+1016494119+1016729313+1017108022+1017300233+1017293450
2470+1017407406+1017743775+1018020952+1018001317+1017815961+1017817389
2462+1018212092+1018848987+1019386921+1019620115+1019547001+1019247261
2453+1018842775+1018431435+1017955692+1017341003+1016787647+1016644417
2445+1017005134+1017684798+1018482915+1019204920+1019560282+1019334655
2436+1018623004+1017784473+1017225334+1017154933+1017408620+1017606899
2428+1017600045+1017610541+1017822244+1018040802+1017972614+1017753914
2419+1017908782+1018674055+1019624899+1020217954+1020477924+1020806939
2411+1021322738+1021743931+1021821044+1021612482+1021391783+1021402564
2402+1021661106+1021964702+1022113073+1022074445+1021922790+1021674244
2394+1021239985+1020570031+1019804544+1019189712+1018856341+1018753953
2385+1018763949+1018799935+1018853271+1018987790+1019255757+1019627969
2377+1020023101+1020333195+1020444509+1020392672+1020446008+1020820434
2368+1021402136+1021936285+1022262158+1022255589+1021924361+1021607984
2360+1021578210+1021562573+1021179722+1020555608+1020005180+1019542289
2351+1019119239+1018876976+1018929242+1019215630+1019598053+1019963053
2343+1020236090+1020427158+1020692769+1021172368+1021739147+1022136278
2334+1022315209+1022371972+1022227814+1021671816+1020655998+1019344294
2326+1018050298+1017227190+1017212767+1017839023+1018540893+1018934668
2317+1019068544+1019216630+1019648176+1020483351+1021582351+1022549617
2309+1022971953+1022822368+1022539121+1022446657+1022296216+1021771706
2300+1021146878+1020918752+1021058412+1021115533+1020832072+1020251441
2292+1019452538+1018564312+1017946767+1018006887+1018734460+1019634610
2283+1020321914+1020975659+1021885305+1022777886+1023053136+1022597099
2275+1021945567+1021687239+1022005329+1022680209+1023235779+1023232137
2266+1022741114+1022421167+1022847858+1023843256+1024660010+1024773751
2258+1024352058+1023922083+1023724303+1023709166+1024027899+1024812522
2249+1025464054+1025139394+1024070882+1023477542+1024118721+1025695249
2241+1027452708+1028711003+1029109206+1028842024+1028548710+1028846451
2232+1029926887+1031358758+1032299177+1032269403+1031707765+1031496204
2224+1032002507+1032768280+1033158414+1033113789+1032888377+1032244699
2215+1030832891+1029384670+1029331048+1030860666+1032456830+1032834469
2207+1032399710+1032178439+1032213282+1031997795+1031851280+1032570572
2198+1033985021+1034982704+1034930653+1034304682+1034011868+1034553085
2190+1035768112+1037139578+1038049295+1037718567+1035739980+1033121072
2181+1031712549+1032116391+1033280153+1034137890+1034505318+1034614704
2173+1034601566+1034212432+1032903656+1030544861+1027950443+1026604110
2164+1027820922+1031552968+1035837085+1038458279+1039436755+1040437722
2156+1041806403+1042376824+1041408915+1039319515+1037313939+1036667548
2147+1037812816+1039909928+1041510233+1041655462+1040400380+1038763660
2139+1038228868+1039502301+1041359078+1041633114+1039885009+1037838734
2130+1036813419+1036410862+1036039364+1035992311+1036428498+1036615853
2122+1035900703+1034615490+1033552118+1033093511+1033130711+1033383469
2113+1033584820+1033650080+1033784528+1034185943+1034671468+1034904020
2105+1034880815+1034900022+1035234034+1036017158+1037108162+1037979894
2096+1038193525+1037927842+1037652735+1037564341+1037657662+1037925843
2088+1038224084+1038249717+1037793109+1036964575+1036298691+1036406792
2079+1037197341+1037756766+1037402547+1036491973+1035822734+1035610459
2071+1035412751+1034941863+1034670754+1035391545+1037178777+1039157007
2062+1040373961+1040439793+1039453962+1038016879+1037048828+1036836910
2054+1036682827+1036144894+1035945686+1036889675+1038433574+1039230050
2045+1038906461+1038303982+1038162822+1038432003+1038831134+1039495589
2037+1040751386+1042414024+1043758143+1044303859+1044237028+1043945856
2028+1043639475+1043385717+1043051633+1042339910+1041336658+1040793941
2020+1041541435+1043678460+1046459663+1049026306+1051140982+1052986478
2011+1054597279+1055866499+1056685394+1056769647+1055901700+1054449337
2003+1053070802+1052132596+1051782161+1052010072+1052297746+1051892547
1994+1050689872+1049336828+1048500439+1048462668+1049277351+1050637107
1986+1051576812+1050975332+1048585192+1045369016+1042906618+1042571034
1977+1044736619+1048198628+1050907859+1051746104+1051102140+1049897681
1969+1048851660+1048465239+1048796538+1049293844+1049476345+1049497694
1960+1049811000+1050623898+1051693053+1052325806+1051795085+1050152367
1952+1048401763+1047523534+1047563661+1047882109+1048010487+1048007560
1943+1048152860+1048555775+1049070788+1049450569+1049493909+1049192955
1935+1048824956+1048683368+1048756482+1048894786+1049139833+1049652205
1926+1050503302+1051588665+1052514376+1052788341+1052491528+1052310812
1918+1052619049+1052946779+1052708015+1052050557+1051591735+1051609728
1909+1051685627+1051359183+1050909572+1050923067+1051464570+1052251335
1901+1053150557+1053960170+1054218284+1053764246+1053144916+1053110001
1892+1053854782+1054903088+1055543411+1055480364+1055112721+1055016616
1884+1055396254+1055988094+1056289477+1056063422+1055687212+1055728981
1875+1056164454+1056410858+1056203225+1055992307+1056291833+1056852544
1867+1056947578+1056480903+1055983453+1055910767+1056382084+1057187770
1858+1057938406+1058392444+1058605504+1058719245+1058795287+1058897247
1850+1059127229+1059511651+1059916136+1060080429+1059830455+1059375204
1841+1059093671+1059058399+1059143580+1059232045+1059143437+1058647773
1833+1057743768+1056811488+1056397792+1056631701+1057019693+1057140717
1824+1057110586+1057279020+1057727131+1058259067+1058747377+1059257036
1816+1059774406+1060009385+1059679728+1058892392+1058129903+1057844657
1807+1058117051+1058709392+1059345216+1059978540+1060799364+1061867947
1799+1062871271+1063495528+1063828898+1064197397+1064797664+1065481397
1790+1065937577+1066131358+1066276945+1066541199+1066888206+1067128756
1782+1067208796+1067287480+1067410717+1067384156+1067110691+1066767753
1773+1066599248+1066680073+1066920408+1067287765+1067774076+1068226614
1765+1068495081+1068614177+1068635526+1068454596+1068039258+1067566300
1756+1067185733+1066944899+1066937759+1067296547+1068000345+1068792251
1748+1069401014+1069772940+1070034981+1070379704+1070930275+1071636857
1740+1072260257+1072610121+1072851098+1073283716+1073741823+1073674349
1731+1073189681+1072685877+1072187785+1071647853+1071183034+1070945840
1723+1071014742+1071353824+1071816359+1072151371+1071916605+1070796541
1714+1068998170+1066431384+1062314988+1055985738+1046583543+1031459719
1706+1008487665+979432552+941603071+881204737+795047791+712047188+650031555
1696+602579749+571534804+560070698+562480259+572825302+586977718+602179834
1686+620387885+645514528+672598908+694470176+712747344+730043393+747422553
1676+765675302+783428316+798107814+810591166+823513919+836095519+845306003
1666+851320304+856283300+861270786+865475148+867488507+867152352+865341915
1656+863310706+863463932+869273383+878211902+885230669+891808464+900670655
1646+911104520+919613350+925531402+930166311+934066149+937259406+940061314
1636+942836448+944902001+945524687+945484274+945863555+947218384+949576394
1626+952758227+956874624+962051465+967446720+971894702+975570414+979664891
1616+984552630+988878374+991845718+994028439+996033301+998043519+999965127
1606+1001706521+1003340027+1004901062+1006193273+1006914492+1006696434
1598+1004876929+1000556897+993325142+984286234+976155757+971736193+972013585
1588+975629319+980172407+983895314+986296308+987570312+987961302+987678984
1578+987115917+986950267+987728679+989224096+991124142+993580471+996502761
1568+999003787+1000525266+1001490605+1002337346+1003049569+1003615706
1560+1004469016+1005842053+1006856158+1007166680+1006921061+1006094455
1551+1004824949+1003569581+1002783173+1002564758+1002685853+1002827084
1543+1002783815+1002571898+1002303645+1001992124+1001653684+1001548511
1534+1002225961+1003979635+1006191203+1008277818+1010422269+1012885453
1526+1015512144+1018114987+1020764955+1023291828+1025280768+1026891069
1517+1028611185+1030408842+1031755246+1032325810+1032193861+1031398314
1509+1029358180+1024940972+1019154083+1015086095+1013341275+1013451304
1500+1015331857+1018990218+1023878885+1028375920+1031083579+1032030139
1492+1031458648+1028857446+1023303824+1014248922+1001359584+982864930+954034730
1482+909515496+849434181+780877239+713636426+659445602+632338231+641786694
1472+679138433+721157782+755803718+785059610+812454012+836859150+853859386
1462+862136591+864073409+862313737+859669124+859463061+861205954+861438221
1452+858337428+852470213+846769005+845439166+850898111+862054481+876318140
1442+891147222+904294815+914894973+923554457+930445488+934640140+936191107
1432+936079508+934644781+931585687+926769777+920180629+911604540+901482197
1422+891285382+882484952+876676572+875706307+879110124+884661676+891387200
1412+899440706+908834190+918945467+928965993+938581462+947759816+956109493
1402+963413934+970319887+977486168+984547560+990661394+995504793+998872838
1392+1000359188+999748926+996576090+989356616+975980111+954722819+923717108
1383+880569056+824882029+761475009+699705780+648633742+613853573+597929453
1373+600017604+615774039+640606582+670772977+701856514+729833475+752195266
1363+766084928+768937603+762524029+752532492+745135087+745390630+755868621
1353+775539103+800895299+827937268+852994652+873019639+885906191+890350246
1343+884928286+866909018+833233062+785303443+731757154+683362145+647392582
1333+626572405+619147725+619805683+622734828+624875566+626646019+630058405
1323+636317681+644891271+654344089+663740073+673320627+683945561+695885482
1313+708104795+718726301+726419091+731414574+735280354+739828582+746018315
1303+753696253+762254348+771311178+780720657+790098076+798399272+803838939
1293+804346884+798727786+788032309+775878614+766882260+764065500+767432475
1283+774823096+783764114+792660221+801006042+809000000+816903279+824600639
1273+831731861+838136724+844002939+849610755+855120253+860600261+866052923
1264+871348075+876278941+880693793+884441762+887248240+888842405+889196624
1254+888525029+887155562+885553686+884366505+884253335+885672639+888817843
1244+893582202+899530242+906049703+912634425+919014369+925048019+930601713
1234+935617045+940224037+944610400+948778491+952577226+955939773+958882413
1224+961284692+962874144+963408150+962618529+959899588+954101632+943467988
1214+925608229+898121006+860488662+816064392+771901663+736138162+714847597
1204+710042254+719371550+737473785+758370790+777740389+794047109+808210236
1194+822087118+836650303+851183286+864055844+874094506+881183031+885828150
1184+888342171+888425353+885634226+880428539+874660000+870659558+869659876
1174+871125662+873508662+875441981+876258949+875823761+874325987+872198173
1164+869772832+866795777+862674668+857713814+853970772+854308783+860340505
1154+871401912+885367116+900079886+914119918+926866596+938252376+948389071
1145+957348510+965282492+972502180+979205498+985277490+990517307+994853047
1135+998200243+1000333341+1000984730+999845460+996431075+990135598+980329774
1125+966062974+945665061+917074124+879015161+832154054+779406169+725328444
1115+674943495+632474107+600578314+580276900+571163949+571658720+579430658
1105+591892590+606485728+620922891+633726405+644750040+654985268+665660539
1095+677436738+690232398+703522865+716766064+729670610+742111979+753920023
1085+764947657+775251144+784974143+794138003+802711735+810765955+818436254
1075+825824234+832965095+839843702+846461125+852837285+858853941+864174869
1065+868392369+871090176+871575558+868544667+860225978+845386758+824868534
1055+802427560+783739624+773784358+774310796+783320858+796861156+811324166
1045+824389649+834545408+840459677+841156048+836705710+828443071+818509582
1035+809610977+805055037+807825957+818667806+835274053+853842821+871459104
1026+887073808+900827666+913102457+924202991+934369031+943737883+952263705
1016+959443694+963605431+960676857+943148184+902459887+837463201+762461125
1006+702182244+674155445+677186407+698087410+725524368+754943410+784594719
996+812247307+835947934+855381008+871596621+885949389+899300832+911722708
986+922759553+932084207+939904233+946734001+952991707+958887125+964448959
976+969535264+973924055+977382422+979639186+980424737+979471252+976202525
966+969328987+956678057+935147657+901045795+851953557+790238593+725177931
956+669877540+634201291+620150049+623472255+638355530+660319119+686366118
946+714310806+742428498+769328879+793991774+815971000+835445772+852887479
936+868624065+882724430+895228275+906374148+916525909+925886906+934385668
926+941914450+948595705+954727674+960523774+965886257+970192794+972232999
916+970818907+966192138+961058208+959526377+964096168+973610963+984584546
907+994207513+1001521236+1006316654+1008224196+1007154185+1003829408+999295245
897+993799386+986066326+973786823+955285814+930553446+899535026+859379594
887+805817525+739313497+668558125+605692394+558524693+528253303+512663339
877+508971099+514184140+525036663+538636081+553071495+567451323+581555330
867+595400331+608959550+622145486+634889452+647094270+658525818+668856366
857+677844722+685503597+692224836+698748438+705753853+713350966+721148572
847+728878704+736687734+744697615+752537561+759498350+764871900+767647177
837+765603330+754901926+731464483+694287604+648613178+605506181+576597511
827+567544680+575774939+593991201+615466516+636659905+656498679+674692450
817+690938837+704961019+716728436+726564534+734951196+742168028+748298070
807+753564447+758368362+763016195+767610620+772057816+776070682+779457149
798+782428206+785336787+788226091+790922826+793418783+795949297+798756847
788+801819368+804847118+807658665+810441225+813455979+816643381+819652637
778+822163659+824243349+826439280+829237190+832374111+835053782+836869575
768+838228902+839911461+842346228+845235531+847900564+850026808+851840244
758+853503525+854679853+854918545+854302857+853386071+852447579+851169934
748+849189848+846600785+843815441+841253367+839230013+838070893+838291664
738+840282317+843743469+847989101+852766098+858162568+863316275+863873701
728+850368603+814529918+762878177+719388186+706707053+726018247+759374256
718+789050413+809390277+822795199+832477500+840107814+846285122+851349578
708+855669967+859399443+862631399+865801878+869312297+872973228+876351270
698+879401011+882404841+885490924+888472763+891123160+893414410+895458900
688+897390933+899332105+901363600+903546464+905862776+908018008+909642661
679+910878466+912310836+914193889+916192896+917891663+919205009+920392118
669+921929447+923953159+925942956+927713695+929533557+931601895+933862657
659+936050091+937864099+939225283+940397469+941824771+943878971+946648963
649+949797023+952685612+954799646+956066724+956736035+956843778+955674020
639+951707279+943370526+930815630+917653113+909376622+907604027+905998009
629+894207316+867782607+834547122+810004752+805222043+819437007+843671497
619+868812634+890045793+906710660+920259455+932230864+943302338+953353352
609+961829622+968353225+973301940+977360002+980358335+980771888+975942769
599+962901276+940884280+914711330+895004862+892483487+909281159+935577846
589+955742779+955519937+923161967+852725685+752974106+648365346+565819244
579+519356019+506666710+517279113+540271587+567204027+593416746+617631102
569+639695580+658062213+668536205+667189586+656792421+648239538+651874123
560+668126079+689303831+708563830+724190673+737428231+749689528+761405393
550+771768000+779666424+785042616+788653781+790716335+790505632+787240189
540+781423740+775682976+773689109+777335404+785114017+793742514+801003614
530+806752661+812030106+817854266+824384723+830840280+836391190+840689944
520+843485212+844744294+845423315+846830624+848895891+850490413+851311736
510+851998183+852592594+852451649+851405342+849021628+842899012+830235373
500+812031819+793763077+781691279+779342765+785950548+797591301+809928996
490+820178075+827854300+834420957+841677345+849708217+856516352+860318942
480+861743887+863076440+865742544+868920164+870686047+870209662+868671189
470+868105124+869837307+873990618+879190164+883215953+884977482+885251375
460+885449655+886744722+890143255+895471109+900642167+903652851+904631470
450+905758103+908865107+913343791+917129031+919480044+921528532+923620575
441+924282245+922845805+920817238+920259741+922120016+926091255+931041185
431+935091179+936374393+934540536+931102446+928204932+926942281+926591989
421+925719900+924019633+923303698+925057087+928212786+931357419+934721894
411+939351805+944228549+946333515+944594549+940718059+935321660+926669102
401+913394129+896245236+877982420+861919962+850102350+844183084+845576541
391+853499312+865388254+879134757+892877548+903905110+911391123+917779349
381+923403373+926058411+926062195+926641113+930289049+937533942
##END=
