##TITLE=S. Graessle SG-V2597 24-48
##JCAMP-DX=4.24
##DATA TYPE=INFRARED SPECTRUM
##DATE=12/4/2017
##SAMPLING PROCEDURE=Diamant-ATR
##ORIGIN=Angelika Moesle
##XUNITS=1/CM
##YUNITS=TRANSMITTANCE
##RESOLUTION=4
##FIRSTX=3997.4121
##LASTX=373.82813
##DELTAX=-1.4160156
##MAXY=1.0005155
##MINY=0.19123553
##XFACTOR=1
##YFACTOR=9.3180264e-010
##NPOINTS=2560
##FIRSTY=0.99459064
##XYDATA=(X++(Y..Y))
3997+1067383373+1067419450+1067589602+1067897028+1068209699+1068406269
3989+1068598874+1069034298+1069736016+1070410868+1070757121+1070746055
3980+1070591895+1070520380+1070585946+1070652855+1070543983+1070284789
3972+1070240268+1070830364+1071967506+1072962385+1073188636+1072682401
3963+1071939488+1071370757+1071109580+1071133695+1071396728+1071838036
3955+1072297959+1072518837+1072324058+1071749890+1071036338+1070559975
3946+1070619400+1071179304+1071934371+1072522867+1072579606+1071956759
3938+1071017979+1070372680+1070303339+1070623366+1070994183+1071220243
3929+1071331034+1071497028+1071798697+1072118084+1072269558+1072169769
3921+1071865286+1071418796+1070828381+1070117003+1069455265+1069028732
3912+1068781372+1068514949+1068182001+1067894597+1067707749+1067578664
3904+1067551094+1067796280+1068330340+1068857749+1069147135+1069363216
3895+1069732498+1070099988+1070137217+1069880070+1069840282+1070310951
3887+1070951581+1071401397+1071617030+1071604045+1071287216+1070746695
3878+1070277561+1070009923+1069740557+1069354900+1069055215+1069106069
3870+1069550064+1070206301+1070781237+1071132864+1071382271+1071649653
3861+1071894007+1072101964+1072350796+1072587858+1072637176+1072408814
3853+1071908848+1071319328+1071121158+1071445151+1071916396+1072148212
3844+1072047272+1071783728+1071493766+1071172331+1070873030+1070745927
3836+1070833754+1071021177+1071239689+1071494086+1071708055+1071778611
3827+1071801319+1071974350+1072220047+1072228043+1071960213+1071753472
3819+1071803558+1071819230+1071478861+1070789937+1070089434+1069801390
3810+1069963994+1070250375+1070352210+1070189286+1069850581+1069520511
3802+1069460574+1069780153+1070145277+1070179563+1070041075+1070044529
3794+1070233487+1070435367+1070497607+1070438182+1070434600+1070580189
3785+1070734989+1070841302+1071135870+1071762491+1072486278+1072983110
3777+1073138294+1072979144+1072592911+1072217617+1072109512+1072208917
3768+1072114438+1071546986+1070662578+1069841817+1069393217+1069361681
3760+1069558827+1069746442+1069766720+1069601941+1069371788+1069334239
3751+1069809578+1070807591+1071754112+1072231625+1072380349+1072328024
3743+1072057763+1071706712+1071352463+1070833882+1070143486+1069728532
3734+1070021757+1070533877+1070483407+1070102739+1070060137+1070446050
3726+1070903990+1071244998+1071614600+1072055524+1072309345+1072159790
3717+1071674856+1071067426+1070559527+1070352018+1070515454+1070846803
3709+1071101200+1071396152+1071918955+1072479690+1072676388+1072388601
3700+1072036206+1072025012+1072068510+1071704409+1071153205+1071139388
3692+1071934627+1072928098+1073186205+1072487621+1071622276+1071278581
3683+1071482188+1072021430+1072622336+1072940828+1072844110+1072684128
3675+1072954709+1073431199+1073425442+1072943195+1072463634+1072158959
3666+1071735945+1071042031+1070331165+1070018942+1070322721+1070985932
3658+1071463765+1071351951+1070633345+1069706207+1069076772+1068985747
3649+1069259206+1069385285+1069171059+1068952100+1068848665+1068763269
3641+1068791926+1069185516+1069980050+1070871367+1071516602+1071807076
3632+1071840019+1071775285+1071721744+1071631871+1071353422+1070990665
3624+1070792559+1070800875+1070930792+1071178792+1071547754+1071821981
3615+1071823708+1071704473+1071686179+1071757246+1071738056+1071522423
3607+1071143930+1070697120+1070286964+1070017279+1069932203+1069926638
3598+1069820580+1069610321+1069480404+1069533432+1069640961+1069630854
3590+1069503688+1069313322+1068971418+1068478296+1068235925+1068543031
3581+1069067688+1069244557+1068984147+1068717853+1068728407+1068798451
3573+1068610644+1068254987+1068139847+1068453925+1068905596+1069095322
3564+1069029180+1068878602+1068535227+1067814190+1066816433+1065984670
3556+1065802427+1066370263+1067281985+1067987861+1068311662+1068490770
3547+1068655933+1068530685+1067888904+1067203241+1067251600+1068099483
3539+1069056430+1069490382+1069263491+1068540024+1067618387+1066890507
3530+1066599457+1066637965+1066725472+1066715173+1066652101+1066640971
3522+1066758862+1067014347+1067279234+1067288957+1066808949+1065927227
3513+1065149452+1065003351+1065447666+1065818547+1065520461+1064651469
3505+1063749406+1063135962+1062680453+1062021400+1060939974+1059497645
3496+1057813713+1055870011+1053662125+1051361999+1049098206+1046773644
3488+1044354987+1042065223+1039944524+1037522669+1034355917+1030659326
3479+1027033931+1023773980+1020828362+1018122621+1015475537+1012466144
3471+1008782539+1004568839+1000241342+996073506+992008274+987767388+983119543
3461+978059176+972751448+967376106+962033772+956682099+951131296+945166499
3451+938675445+931655959+924209173+916568440+908974402+901389896+893469179
3441+884942182+875943812+866880708+858041488+849410993+840833590+832322777
3431+824150606+816535715+809391877+802579069+796226759+790596893+785854570
3421+782102648+779354944+777411114+776052071+775319073+775370758+776194781
3411+777644338+779631026+782146081+785152148+788544703+792274940+796431198
3401+800994414+805595754+809886470+814082643+818710018+823845035+829029243
3391+833888434+838449539+842855332+847104022+851189660+855284190+859550662
3381+863877840+868026485+871924636+875653850+879368543+883318827+887623296
3372+892001647+896104684+899979999+903843031+907650669+911281053+914856746
3362+918610459+922629444+926822290+930995179+935017554+938972571+942963922
3352+946830729+950346996+953611937+956944556+960485898+964080269+967440969
3342+970401811+973146380+976076710+979298025+982432857+985057488+987099316
3332+988799687+990553791+992708968+995245325+997728653+999741184+1001254068
3322+1002538014+1003839167+1005183050+1006466677+1007696187+1009001050
3313+1010433464+1011947244+1013516675+1015032821+1016204761+1016846414
3305+1017141174+1017389558+1017652655+1017873853+1018215565+1018977988
3296+1020181911+1021484408+1022551698+1023263139+1023565191+1023493612
3288+1023411095+1023852147+1024985323+1026433856+1027682173+1028509267
3279+1029025289+1029444912+1029894601+1030372498+1030822762+1031230040
3271+1031634824+1032054383+1032466075+1032928301+1033595925+1034486346
3263+1035385274+1036119040+1036723017+1037229700+1037547488+1037663204
3254+1037742331+1037970502+1038442259+1039169500+1040042138+1040817546
3246+1041275358+1041433996+1041582208+1041978100+1042516894+1042870312
3237+1042935814+1042888479+1042821441+1042675277+1042514080+1042545999
3229+1042823872+1043140765+1043286737+1043320640+1043498148+1043892761
3220+1044221424+1044227245+1044114599+1044299080+1044801413+1045266261
3212+1045572215+1046011733+1046730402+1047384209+1047632146+1047677498
3203+1047957802+1048492374+1048891720+1048899460+1048588261+1048119702
3195+1047646794+1047363996+1047298621+1047116635+1046479652+1045558718
3186+1044903440+1044885273+1045482981+1046452658+1047456940+1048166910
3178+1048458664+1048454314+1048309940+1048095587+1047935413+1048078316
3169+1048658560+1049454886+1050096923+1050504137+1050903163+1051439015
3161+1052019516+1052499844+1052718740+1052426346+1051511170+1050302897
3152+1049396996+1049155009+1049483991+1050017092+1050377674+1050334049
3144+1049872335+1049164476+1048386765+1047544063+1046533512+1045364067
3135+1044212148+1043250148+1042487086+1041795922+1041112050+1040613939
3127+1040626733+1041271200+1042288276+1043261790+1043907473+1044092210
3118+1043769944+1043039377+1042132197+1041171988+1039996401+1038387503
3110+1036474633+1034790445+1033906229+1034094164+1035300454+1037269487
3101+1039651619+1042114925+1044377759+1046089837+1046861663+1046638418
3093+1045900174+1045261400+1044989732+1044976746+1044919048+1044499616
3084+1043674953+1042806729+1042362158+1042547918+1043279381+1044307971
3076+1045285323+1045893074+1046046403+1045938938+1045810237+1045651854
3067+1045224363+1044412301+1043451708+1042662547+1042028890+1041198470
3059+1039904865+1038330252+1037044771+1036633847+1037345288+1038983739
3050+1041052049+1043060230+1044788683+1046260053+1047502868+1048466404
3042+1049149316+1049634569+1049895171+1049688302+1048848670+1047667583
3033+1046688696+1046056382+1045376988+1044331191+1043116009+1042171344
3025+1041776860+1042028250+1042924108+1044288333+1045729638+1046869850
3016+1047625237+1048185460+1048757645+1049405312+1050063276+1050610578
3008+1050987728+1051270334+1051552109+1051831645+1052110221+1052436581
2999+1052733644+1052772152+1052432999+1051828574+1051079648+1050121167
2991+1048822508+1047219622+1045531276+1043915853+1042268126+1040307025
2982+1037849028+1034928038+1031590047+1027616735+1022580739+1016205081
2974+1008501660+999506425+989107625+977273405+964282149+950601969+936648266
2964+922799276+909622964+897920324+888438876+881660098+877986855+877992037
2954+882230812+890776870+902960670+917482273+932771864+947464322+960723536
2944+972233443+982009651+990258647+997249796+1003145637+1007927492+1011517897
2934+1013941416+1015333786+1015884414+1015876546+1015746182+1015917549
2925+1016518647+1017359430+1018194775+1018866365+1019243131+1019309721
2917+1019312727+1019523754+1019855615+1019974274+1019696657+1018992124
2908+1017699095+1015545709+1012372497+1008220589+1003357048+998286445+993584869
2899+989757018+987328510+986843640+988553031+992207531+997220243+1002871730
2889+1008419270+1013349913+1017609477+1021367412+1024537234+1026786315
2880+1028064120+1028847588+1029716388+1030826280+1031905340+1032677550
2872+1033192868+1033733262+1034440034+1035138681+1035608903+1035882938
2863+1036148785+1036489217+1036864448+1037206416+1037414628+1037406888
2855+1037267568+1037245244+1037555420+1038246328+1039229437+1040367090
2846+1041533721+1042653272+1043705657+1044682498+1045518355+1046126746
2838+1046534343+1046893454+1047318131+1047813748+1048369941+1048997266
2829+1049642054+1050119759+1050179696+1049730136+1049013897+1048409281
2821+1048064946+1047961512+1048218147+1048990869+1050114450+1051141952
2812+1051690853+1051650170+1051235600+1050912567+1051051375+1051562088
2804+1051961818+1051820195+1051104276+1050156412+1049389959+1049000976
2795+1048919930+1048968737+1049040891+1049186161+1049543224+1050164728
2787+1050930541+1051655224+1052239115+1052705690+1053164654+1053741125
2778+1054454869+1055175585+1055783912+1056328655+1056892844+1057381232
2770+1057609275+1057538335+1057260399+1056867385+1056479105+1056261042
2761+1056249783+1056274091+1056174686+1056048223+1056151850+1056545183
2753+1056937365+1056989306+1056656230+1056130549+1055602181+1055221386
2744+1055109763+1055252985+1055471241+1055579537+1055555549+1055549281
2736+1055690648+1055886515+1055921505+1055774956+1055632885+1055600006
2727+1055635252+1055744380+1055990909+1056323346+1056605056+1056820433
2719+1057058966+1057306903+1057461575+1057573325+1057832008+1058262122
2710+1058655328+1058838145+1058794264+1058546072+1058128175+1057659169
2702+1057302553+1057139885+1057094212+1056979391+1056693715+1056364604
2693+1056207565+1056296032+1056549725+1056868217+1057202380+1057587462
2685+1058124337+1058838401+1059565258+1060062730+1060219193+1060111409
2676+1059894625+1059679248+1059471163+1059196361+1058804307+1058360312
2668+1058006958+1057812498+1057688082+1057485946+1057148456+1056732735
2659+1056312471+1055928669+1055633717+1055486913+1055464013+1055487233
2651+1055590667+1055909223+1056439510+1056954892+1057237818+1057273576
2642+1057187604+1057116665+1057172124+1057449293+1058017832+1058893221
2634+1059981108+1061059336+1061912529+1062488616+1062868708+1063089714
2625+1063117667+1063023956+1063036493+1063298054+1063667528+1063894163
2617+1063916935+1063887127+1063965486+1064212463+1064578418+1064898637
2608+1064968937+1064729700+1064356069+1064138325+1064255449+1064585903
2600+1064741662+1064388244+1063574712+1062699195+1062155092+1062021528
2591+1062056262+1061980206+1061798283+1061800330+1062168525+1062656721
2583+1062832758+1062618213+1062313154+1062055239+1061689348+1061274393
2574+1061176588+1061465847+1061785810+1061954619+1062126626+1062303943
2566+1062248931+1061894746+1061412818+1060925709+1060467066+1060118509
2557+1059971961+1060020704+1060176208+1060303566+1060255527+1060034968
2549+1059907162+1060136484+1060570053+1060730546+1060381478+1059810828
2540+1059510631+1059721210+1060304142+1060968823+1061565571+1062093491
2532+1062494309+1062651540+1062572604+1062394520+1062290638+1062462005
2523+1062967153+1063460595+1063429315+1062830903+1062226415+1062169740
2515+1062648917+1063187775+1063347565+1063022612+1062370852+1061658004
2506+1061187334+1061173390+1061556872+1062007392+1062179463+1061971698
2498+1061586361+1061388319+1061644954+1062317440+1063075833+1063525521
2489+1063471917+1063066238+1062716082+1062677382+1062722223+1062445310
2481+1061895897+1061555657+1061630690+1061747686+1061454653+1060758755
2472+1060082752+1059847481+1060116143+1060576449+1060829247+1060675918
2464+1060201730+1059697990+1059412441+1059296661+1059109685+1058780511
2455+1058496114+1058466881+1058764135+1059323015+1059994221+1060614638
2447+1061027545+1061095094+1060903513+1060902809+1061489962+1062446589
2438+1063146005+1063313918+1063247201+1063298502+1063496416+1063711025
2430+1063894483+1064032332+1064032396+1063779662+1063299590+1062860712
2421+1062843249+1063328631+1063865378+1063927106+1063594286+1063434496
2413+1063700151+1064045317+1064099753+1063948599+1063921413+1064165319
2404+1064558781+1064903307+1065091498+1065115358+1065014418+1064869276
2396+1064800960+1064895503+1065122266+1065347494+1065418945+1065283463
2387+1065059578+1064921346+1064852069+1064637588+1064157259+1063558592
2379+1063060609+1062697148+1062331960+1061906260+1061632993+1061810949
2370+1062398550+1063058306+1063749342+1064745564+1065842471+1066327341
2362+1066012175+1065453167+1065021966+1064628633+1064271377+1064038984
2353+1063760600+1063235047+1062574459+1062040782+1061786641+1061820416
2345+1061957881+1061808198+1061153240+1060339132+1059913111+1059982068
2336+1060202754+1060321605+1060381414+1060374186+1060155546+1059800081
2328+1059572679+1059441610+1059119920+1058602171+1058243444+1058284255
2319+1058576648+1058851450+1059032093+1059225466+1059528541+1059912472
2311+1060315784+1060800398+1061556488+1062720304+1064114977+1065147725
2302+1065231522+1064502553+1063839535+1063941307+1064665094+1065469223
2294+1066113499+1066651014+1067024965+1066967075+1066184566+1064629400
2285+1062805380+1061680776+1061874340+1062960181+1063971307+1064436412
2277+1064456369+1064071544+1063302468+1062607850+1062535823+1063010587
2268+1063531406+1063876700+1064144466+1064403085+1064784520+1065555259
2260+1066649223+1067436849+1067352476+1066474209+1065219240+1063946360
2251+1063205878+1063754971+1065638544+1067647300+1068460705+1068172598
2243+1067927604+1068180658+1068268804+1067791162+1067383564+1067635083
2234+1068030143+1067632332+1066429496+1065384915+1065226340+1065585835
2226+1065527305+1064824116+1064253978+1064454834+1065265040+1066602975
2217+1068874060+1071651381+1073188636+1072509818+1070618313+1069136069
2209+1068271619+1067535166+1067241686+1067995281+1069371596+1070282678
2200+1070295152+1069677614+1068503307+1066745110+1065141968+1064953713
2192+1066696239+1069611472+1072315614+1073741823+1073726983+1072754812
2183+1070936229+1067726812+1062980010+1057410785+1051522108+1045101610
2175+1038341958+1032506822+1028782790+1026992608+1025969904+1024904533
2167+1023907031+1023217594+1022148769+1018991293+1011450476+996550060+971029072
2157+933658766+886492423+833022577+777037995+723225861+676685243+640920638
2147+616558859+602022480+595424473+596135083+604792509+622051388+647733766
2137+680987985+720127554+762063121+803170188+841064959+874823494+903955485
2127+928033122+946991478+961414316+972539141+981571733+988717938+993443822
2117+995815847+996908788+997866374+999164905+1000753078+1002484601+1004389284
2107+1006613161+1009064953+1011282882+1012904254+1014254279+1016136764
2099+1018863934+1021815629+1024239532+1026027090+1027330738+1028069301
2090+1028341737+1028733151+1029692273+1030959716+1032031739+1032938024
2082+1034181287+1035970765+1037928028+1039587588+1040793175+1041590908
2073+1042181707+1042951806+1044165197+1045760918+1047610717+1049631627
2065+1051580382+1053107595+1054018294+1054347852+1054449240+1054921124
2056+1056041763+1057353854+1058062033+1057814097+1057142251+1057155365
2048+1058457733+1060252008+1061017246+1059993006+1057794907+1056060377
2039+1056200913+1057948172+1059699205+1060539029+1061065413+1062124068
2031+1063672965+1064980707+1065426685+1065141968+1064854756+1065055932
2022+1065643405+1066214887+1066335848+1065945074+1065492827+1065075634
2014+1064128922+1062744612+1062045900+1062502177+1063214833+1063503516
2005+1063898065+1064869021+1065781574+1065926076+1065841255+1066768394
1997+1068912440+1071028598+1071849039+1071151606+1069534776+1067941229
1988+1067181685+1067274948+1067480602+1067207399+1066516939+1065876373
1980+1065934583+1067091939+1068592669+1068921204+1067963553+1067340387
1971+1067892166+1068469533+1067825385+1066343844+1065192118+1064693367
1963+1064411081+1064158283+1064133464+1064309949+1064290119+1063846700
1954+1063221102+1062705208+1062271256+1061791311+1061322625+1061080893
1946+1061428618+1062692351+1064420484+1065138002+1063989730+1062194047
1937+1061548044+1062181958+1062816127+1062848366+1062940926+1063577654
1929+1064408842+1065149068+1066013519+1067089252+1068023874+1068490450
1920+1068535866+1068302643+1067793913+1067123475+1066664767+1066676153
1912+1067012172+1067307636+1067347551+1067293627+1067514825+1067992531
1903+1068099483+1067465442+1066766155+1066861466+1067516552+1067794297
1895+1067358937+1066761549+1066657539+1067129871+1067633739+1067595935
1886+1067095905+1066595938+1066288641+1066062901+1065715432+1065051519
1878+1064108005+1063193852+1062458615+1061685638+1060712891+1059734387
1869+1059070346+1058784733+1058655455+1058627502+1058978233+1059843835
1861+1060883811+1061689028+1062328570+1063100332+1063983653+1064736289
1852+1065337259+1065989659+1066787136+1067635722+1068483094+1069397630
1844+1070352786+1071100241+1071410481+1071282930+1070947615+1070789873
1835+1070990217+1071292717+1071427112+1071485962+1071684260+1071995715
1827+1072266040+1072491460+1072749375+1073012151+1073150576+1073117121
1818+1073057696+1073162346+1073379642+1073425954+1073119040+1072604105
1810+1072229706+1072194461+1072391991+1072625982+1072793896+1072864451
1801+1072845133+1072786028+1072714704+1072603018+1072428516+1072187488
1793+1071858826+1071443424+1071041775+1070798380+1070792559+1070952989
1784+1071003522+1070659252+1069959133+1069215644+1068650367+1068248335
1776+1067986901+1067978906+1068205925+1068218270+1067611351+1066679991
1767+1065932408+1065483680+1065172544+1064877528+1064570423+1064242655
1759+1063894163+1063497440+1062966961+1062280723+1061585913+1061087802
1750+1060819908+1060508964+1059866799+1058924501+1057873203+1056864571
1742+1056015856+1055365567+1054776623+1054087890+1053378751+1052862026
1733+1052469204+1051730577+1050531003+1049276418+1048297722+1047559223
1725+1046839146+1046106724+1045615137+1045656524+1046363871+1047548029
1716+1048550328+1048903170+1048926007+1048998737+1049170553+1049434800
1708+1049923700+1050731604+1051597206+1052182504+1052743495+1053928356
1699+1055747770+1057407011+1058817228+1060309195+1061540049+1062319679
1691+1063108136+1064133975+1065058555+1065739996+1066676153+1068170743
1682+1069399293+1069707870+1069499978+1069270400+1069252809+1069449444
1674+1069634500+1069619788+1069548145+1069683627+1069916595+1069821156
1665+1069403131+1069112849+1069265538+1069628295+1069723158+1069417332
1657+1068902270+1068528702+1068799794+1069800687+1070348756+1069932459
1648+1069179950+1068507849+1067882251+1067084710+1066139726+1065168770
1640+1064147664+1062965554+1061490218+1059538776+1057144682+1054658732
1631+1052118857+1049175030+1045456499+1040799316+1035012602+1027230374
1623+1016418539+1003510057+991036295+980088082+970541387+963490429+960848463
1613+962913383+969169934+978922667+990358372+1000996728+1009349607+1015414960
1603+1019977345+1023851380+1027430015+1030660094+1033378693+1035578711
1594+1037325714+1038527079+1039020648+1038902821+1038561365+1038326094
1586+1038241338+1038190804+1037992059+1037323155+1035813917+1033255876
1577+1029693360+1025954040+1024021212+1024947519+1028098726+1032888321
1569+1038467334+1043152663+1046227238+1048366743+1050098522+1051535094
1560+1053174121+1056136306+1060173265+1063002271+1064534729+1065784517
1552+1066977374+1067940845+1068608853+1069031931+1069325028+1069675247
1543+1070200672+1070875269+1071731595+1072683552+1073188636+1073160171
1535+1073031853+1073144307+1073333969+1073199383+1072763959+1072358984
1526+1072184226+1072171177+1072164076+1072147509+1072085269+1071483787
1518+1069265346+1064172739+1055925599+1046294211+1038116922+1033660723
1509+1034004802+1039375346+1048820717+1057632175+1061855534+1063100012
1501+1063390615+1063370785+1063163148+1062721456+1061906516+1060760802
1492+1059443017+1058038238+1056687638+1055574803+1054668774+1053852491
1484+1053160240+1052717524+1052569377+1052329692+1051004807+1047208620
1475+1038375029+1017392117+971030031+893647775+802482543+720104142+660732570
1466+637506846+656752413+701747652+747791566+787003802+824625561+865736338
1456+903219737+926336013+937503633+943304930+947604154+952760856+960231053
1446+969580538+979189857+988070463+995703649+1001593605+1006005283+1010030792
1436+1014309802+1018207889+1021071245+1022878057+1023289301+1021372018
1427+1016292908+1007241637+993013771+973191541+948101114+915725418+873347902
1417+827099742+789964643+767393494+758674404+763005995+778455696+800922579
1408+826395657+852925469+879502810+903952991+924242756+940743179+954847588
1398+966930576+976961374+985557711+993096800+999222923+1003952197+1008014615
1388+1012046776+1015960407+1019226628+1021631404+1023312969+1024409492
1379+1025037840+1025411727+1025808579+1026433217+1027307774+1028290308
1371+1029254355+1030164030+1030960483+1031510983+1031631049+1031069867
1362+1029608092+1027314938+1024463800+1021171225+1017423781+1013307822
1354+1008964205+1004244526+998315486+989396308+975052150+953904970+928417500
1344+905675367+893779675+896861798+912852659+934853735+955856157+972825074
1334+986017506+996479185+1004952385+1011795002+1017152241+1021150372+1023853682
1324+1025032467+1023981041+1019255285+1008150993+986631397+951024727+901379789
1314+844348131+793060520+761928663+758657645+780693454+818429331+860937340
1304+900346402+933092786+958653307+977917361+992244184+1002964418+1011128658
1294+1017425828+1022208131+1025653203+1027944118+1029269195+1029708073
1286+1029242393+1027942135+1026121697+1024243306+1022677393+1021626287
1277+1021183699+1021244467+1021318029+1020561747+1018110403+1013527869
1269+1007051719+999241601+990200885+979037104+963978178+943161708+915807040
1259+882855194+846103642+806622169+764375338+719382146+673090296+629059232
1249+592911849+571393980+570243085+591464467+631701646+683121925+736524542
1239+784708217+824064058+853879857+874413145+885089754+883915319+869323545
1229+844376276+819387749+808021959+818257132+846723290+882305013+914740390
1219+939674801+957673012+970934464+981187547+989255389+995469593+1000173089
1209+1003873262+1007049800+1009951984+1012611989+1015015742+1017222157
1201+1019281255+1021088452+1022457218+1023395806+1024241195+1025443583
1192+1027204467+1029315891+1031304882+1032740622+1033507202+1033853776
1184+1034151414+1034593299+1035139961+1035696282+1036277678+1037016242
1175+1037987645+1039042205+1039890920+1040373935+1040534812+1040441868
1167+1040107576+1039595776+1039058965+1038604159+1038140398+1037370043
1158+1035828182+1032787957+1027046469+1016796648+999731013+973791871+939160443
1148+900689393+867931111+850934304+854319183+874684685+903449698+932139358
1138+955687028+972288135+981671138+984126768+980993087+975487893+972090029
1129+974077676+981368254+991035207+999889203+1006393307+1010627988+1013331042
1119+1015192739+1016607689+1017672101+1018289575+1018310812+1017672868
1110+1016490758+1014978129+1013229527+1011151686+1008608677+1005445891
1102+1001231743+995135046+986230900+973858333+957737619+938219871+916835246
1092+896522069+880985757+873421209+875236913+885442532+901135947+918808757
1082+935588716+949820292+960972239+969140957+974483035+976858834+975673078
1072+969877153+958574243+942524277+925453524+913129061+909954633+915966126
1062+927243705+939096540+948678608+955311030+959508738+962082899+963719048
1052+964923803+966104314+967518049+969102449+970478507+971310271+971689147
1042+971997916+972372059+972557244+972361441+971963374+971675138+971597674
1032+971575926+971423428+971153679+970930498+970826552+970818684+970951863
1022+971261975+971638869+971991647+972391761+972925950+973601250+974426488
1012+975383243+976352088+977231826+978080413+979048106+980221581+981550624
1003+982869432+983998962+984901729+985755752+986803660+988077692+989355625
993+990439802+991373849+992340582+993487255+994892291+996566628+998461139
983+1000539556+1002792155+1005109552+1007237927+1008958001+1010274698
974+1011378001+1012454822+1013605653+1014907062+1016431844+1018166182
966+1019949711+1021506476+1022565450+1023011684+1022883495+1022105016
957+1020251059+1016603851+1010270732+1000170530+985288793+965336582+941034549
947+913539537+884149247+855535580+833248444+824584622+834403433+861419843
937+898557820+936969188+970230251+995965786+1014846741+1028577200+1038438165
927+1045031694+1048858649+1050820838+1052132098+1053858504+1056538595
919+1060091259+1064015317+1067716961+1070691939+1072566813+1073188636
910+1072910635+1071549097+1068896321+1064645264+1058654624+1050694887
902+1039873841+1024381346+1001873332+970888344+933426310+896631772+870133751
892+859442302+861525708+867557031+869916903+866415796+859308099+852208271
882+847803949+846761223+847599191+847461790+843267728+832646706+814461520
872+788809975+756619911+719369097+679077865+638058049+598263970+560833408
862+526189345+494383564+465359485+439177301+416123264+396532467+380522127
852+367831837+357547154+347809709+336176346+320710750+300962401+278120895
843+254476715+232763044+215739019+205916642+205231795+214719128+234253779
833+262440418+296885815+334773709+373370422+410444591+444615586+475311891
823+502287330+525128132+543087291+555294951+561236208+561108594+555691418
813+546016086+533399869+519674304+506993288+497179531+491211247+489628671
803+493972512+507622116+533901562+572341012+617278169+661040379+698494801
793+728535124+752451948+772037692+788736221+803353454+816092423+827024005
783+836482297+844776454+851659754+856412696+858260895+856190922+848336283
773+832033646+804858150+765750693+715441841+656438783+593231876+532298324
763+480632508+442882239+419719746+409930968+414138367+435009945+473094026
753+523457889+577442894+627552617+670323402+705488827+733729758+755203361
743+769304125+775131393+772007308+759851014+739429988+712267285+680214431
733+645058409+608390590+571633025+536111527+503321773+475383214+455220615
724+446223749+451513438+472631257+507788526+551388804+596238902+636669901
714+669831943+695121947+713184956+725053079+731426434+732495834+728494889
704+720357323+709916625+699772350+692915660+691906772+697965729+710721074
694+728791568+750553854+774132548+797050207+817030692+833334672+846577765
684+857420305+866108754+872926232+878240548+882057717+884064107+884327011
674+883678769+883150530+883196202+883738898+884447333+884549041+883468190
664+881343333+878064447+872773734+864204647+851376188+833864639+811512576
654+784345268+753458149+722246525+696603487+683538286+688032865+709793872
644+743037920+779551451+812643001+839211962+858951227+872418398+879779147
634+881094757+877937409+874084483+873441358+877059909+882578217+886282739
624+885020414+876340152+858744422+834201297+810093404+795644787+794380479
615+801419795+809059121+812603470+810762947+803868772+793109326+780118583
605+766375203+753256525+742747126+737762176+741409704+755543794+779724290
595+811188903+845624017+878396116+905829719+926264818+940313704+949737838
585+956002513+960102864+963221384+966553171+970366501+973957354+976703906
575+978662321+980154224+981447957+982959882+984980472+986970422+987963702
565+987765085+986751655+984679955+980844172+975026371+967131305+956650691
555+944063771+932255970+925036907+924155057+928270824+934387607+939715357
545+942542891+942457495+940459805+938453159+937805813+938274371+938562159
535+937534337+934394067+928185300+918182712+905088405+891407393+880468264
525+874623661+873526243+874634919+875760291+876255588+875870250+873659166
515+869012345+862877204+856617454+850502015+844257425+838283481+833320919
506+829382597+825806712+822002401+817820685+813652081+810170100+807702508
496+806031689+804911243+804515863+805156237+806736926+808839394+811249224
486+813911276+816269548+817222017+815996601+812235915+805086768+793770234
476+779664481+766547658+758303332+756598674+760737789+769465706+781445707
466+794581911+807018893+818299286+828420405+836855993+843136723+847708447
456+852175072+858582266+867847570+878426245+887225933+893119599+898288199
446+905461781+915005022+924733255+931833211+935374874+937307190+940543410
436+946056856+952224876+957510280+962091662+965660767+965866740+959836377
426+945035430+919416188+884445670+845496467+806220200+769469032+746019168
416+747309894+772756234+814652078+861930300+903644094+935750041+960125380
406+977900154+987765724+989240100+983972863+971217966+942629758+889928220
396+827025860+785799814+784745126+821051147+878067326+934697079+976921522
387+1002813328+1017560670+1026993312+1034798121+1042116141+1048913981
378+1056020334+1064615071+1072218832+1073188636
##END=
