##TITLE=SG-X14324
##JCAMP-DX=4.24
##DATA TYPE=INFRARED SPECTRUM
##DATE=18/3/2022
##SAMPLING PROCEDURE=Diamant-ATR
##ORIGIN=Angelika Moesle
##XUNITS=1/CM
##YUNITS=TRANSMITTANCE
##RESOLUTION=4
##FIRSTX=3997.453
##LASTX=373.96442
##DELTAX=-1.4165319
##MAXY=0.90520978
##MINY=0.36544871
##XFACTOR=1
##YFACTOR=8.430423e-010
##NPOINTS=2559
##FIRSTY=0.77744812
##XYDATA=(X++(Y..Y))
3997+922193483+921126521+920153452+919516711+919422960+919892350+920607428
3988+921113865+921231230+921149853+921094281+921066990+921010994+921064657
3978+921442134+922107297+922763622+923221063+923560644+923795869+923667899
3968+923072377+922421567+922223389+922427859+922494955+922112882+921648513
3958+921682732+922252943+922838566+923075276+923122081+923259737+923446743
3948+923371870+922833688+922000113+921273934+920930253+920944747+921146318
3938+921337707+921372422+921380482+921684995+922301374+922894279+923321389
3928+923657364+923798556+923605610+923238809+922997150+922994110+923175107
3918+923379082+923392939+923199287+923038370+923063893+923083124+922722757
3908+921897030+921029660+920684493+921038921+921856800+922937832+924095362
3898+924885597+924960753+924429711+923682605+923115010+922870382+922708192
3888+922487178+922450625+922674326+922737887+922544022+922732443+923613670
3878+924471425+924625555+924175467+923426806+922587857+921926866+921613940
3869+921415338+921177851+921276197+921971408+922727635+922861049+922483855
3859+922033767+921686550+921652189+922618613+924890687+926823605+927063284
3849+926066671+924840065+924315881+924810511+925602867+925683679+925010032
3839+924330516+923957706+923512779+922951548+922836304+923582703+924911686
3829+926107890+926611075+926251839+925393660+924918968+925596362+926890418
3819+927284298+926597147+925802105+925354350+924880718+924125128+923296926
3809+922843445+923214700+924214141+924884183+924784917+924398320+924161822
3799+923859784+923424402+923328176+923855329+924623222+925078401+925060584
3789+924774665+924525088+924531522+924799835+924976166+924605052+923749135
3779+923093446+923160825+923643153+923978421+924049689+924145985+924619192
3769+925480341+926319854+926817171+926994279+927010399+927112351+927501211
3759+927877911+927462891+926060308+924407087+923309723+923298340+924485141
3750+925838163+926098911+925540437+925260599+925726807+926182481+926170956
3740+926152008+926456733+926858956+927051901+927311518+927888587+928287133
3730+928068735+927425914+926742793+926123586+925561294+925432829+926214933
3720+927608254+928558275+928320434+927138723+925999646+926015200+927428671
3710+928901037+929276040+929013948+928857273+928864343+928774481+928544064
3700+928303324+928079977+927879678+927759627+927660785+927441468+927183548
3690+927204900+927517968+927658735+927427045+927058194+926835483+926975967
3680+927502767+928056645+928226047+928146507+928239975+928325807+928233117
3670+928502844+929462339+930339183+930408542+929794638+929018826+928577152
3660+928568738+928573688+928157607+927562227+927498242+928141982+928998818
3650+929369225+928934267+928458726+928747685+929470116+929920558+929823060
3640+929433281+929118445+928908814+928652379+928416235+928369218+928441475
3631+928471594+928608049+929200318+930135703+930896526+930931028+929912498
3621+928306647+927428954+928037697+929303613+930153944+930294853+929932436
3611+929501791+929450885+929809909+930077304+929936748+929732137+929879480
3601+930155288+929934981+929191127+928652732+928901320+929784527+930751941
3591+931478119+931993819+932457905+932871794+932989513+932635014+931894765
3581+931051929+930430530+930176710+930186609+930211213+929960221+929304886
3571+928600625+928607483+929762115+931316919+931869737+931223310+930296692
3561+929763741+929631741+929514588+929132868+928648702+928480573+928762037
3551+929134070+929267626+929315421+929583451+930010773+930242817+930154298
3541+929975140+929907619+929861734+929642346+929296685+929010201+928733686
3531+928320716+927901949+927697833+927641625+927639858+927898414+928523489
3521+929169209+929495852+929617742+929829070+930168580+930463689+930599790
3512+930523998+930130401+929446502+928836840+928672317+928894250+929103598
3502+928925288+928230077+927247533+926523193+926474833+926930294+927378190
3492+927593901+927762667+928119216+928592353+928796045+928509278+928072553
3482+927996548+928253974+928363774+928071280+927540946+927077778+926903357
3472+927010611+927146359+927089797+926921032+926903851+927164883+927567105
3462+927919130+928269458+928803186+929427624+929801708+929824615+929714391
3452+929602258+929448340+929266566+929113284+928968840+928814993+928711768
3442+928764017+929018190+929312380+929378062+929224781+929152736+929293574
3432+929472662+929504265+929323834+929007797+928849283+929087831+929516143
3422+929735955+929679252+929520385+929355226+929272151+929412989+929742813
3412+930049871+930217293+930264027+930175367+929925860+929616116+929404293
3403+929301987+929159664+928862010+928456747+928091572+927915241+928063644
3393+928636895+929574119+930544643+931084239+930952451+930345829+929688514
3383+929243305+929021654+928984819+929163694+929573836+930134926+930699268
3373+931080634+931064372+930573136+929914053+929664476+930101696+930849085
3363+931262903+931046272+930375100+929646376+929257233+929408535+929944455
3353+930523220+931011911+931499330+931907774+931915481+931458676+931019971
3343+931084946+931502370+931813246+932076964+932793669+934005569+935097771
3333+935631994+935763005+935686222+935295100+934614594+934088149+934112753
3323+934540216+934868768+934763987+934178293+933141027+931739575+930213122
3313+928766986+927364898+925948952+924728992+924006490+923809232+923939465
3303+924341405+925182969+926473772+927792856+928615190+928795903+928574677
3293+928303253+928299577+928720253+929439220+930200042+930853327+931306314
3284+931432446+931230734+930939654+930844065+931039485+931470413+932098245
3274+932853977+933489728+933713782+933487041+933004784+932494600+932170573
3264+932181320+932466814+932805829+932991916+932881268+932477348+932048471
3254+931891796+931958892+931970204+931872494+931958326+932492479+933301096
3244+933847055+933771829+933190377+932407424+931650349+931134508+931029375
3234+931279447+931679195+932121011+932608005+933093162+933433096+933515322
3224+933394281+933239656+933148592+933088212+933002027+932864300+932712503
3214+932745662+933259382+934309516+935532941+936457226+936903213+936933191
3204+936564127+935806557+934894857+934219654+934035405+934314889+934798207
3194+935190178+935420454+935601239+935689970+935494408+935093953+934902775
3184+935171301+935698454+936134048+936344527+936417916+936494062+936662120
3174+936895436+937057979+937075584+937080180+937239188+937503613+937693236
3165+937721799+937584425+937290235+936953765+936755729+936708430+936623799
3155+936409007+936242929+936347214+936684815+937021709+937238481+937413115
3145+937607474+937735798+937693165+937511744+937337393+937252622+937167567
3135+936925060+936460125+935784003+934904543+933919454+933150571+932978483
3125+933396190+933861973+933828743+933331144+932810566+932534263+932460734
3115+932441291+932242972+931581839+930386059+928938297+927720034+927177750
3105+927508282+928547528+929942334+931410528+932776700+933902627+934724677
3095+935293544+935716624+936085617+936432268+936668837+936598559+936132917
3085+935542485+935255153+935283717+935151080+934581011+933926666+933695753
3075+933998711+934641603+935427736+936188630+936804655+937340787+937988274
3065+938815981+939719833+940583315+941281566+941602270+941445029+941083106
3055+940978043+941325613+941944113+942555826+943027053+943307881+943298266
3046+943008176+942802999+943088422+943721063+944148950+944117488+943823227
3036+943571740+943679702+944353773+945290573+945835896+945788597+945571754
3026+945544251+945646698+945721783+945782163+945935515+946229352+946555358
3016+946695489+946598840+946548783+946843185+947334846+947521145+947160566
3006+946602446+946405894+946745193+947352521+947987565+948692321+949481637
2996+950080198+950216229+949953713+949448972+948593834+947193654+945298138
2986+943038790+940249178+936528352+931665691+925796378+919178827+912037021
2976+904650941+897439283+890951823+885765136+882127879+879607288+877343768
2966+874693439+871394137+867222587+861846631+855018742+846791876+837594839
2956+828061048+818706841+809872009+801916779+795204912+789917758+786116897
2946+783945926+783568096+784859041+787194747+789640111+791487338+792523474
2936+792617154+791376337+788721765+785649841+783850267+784457596+787405509
2927+791828687+796766999+801646840+806484755+811689754+817561825+823970169
2917+830432318+836363283+841377529+845539463+849293802+853067230+856928752
2907+860561272+863544041+865811873+867826664+870108283+872684022+875208219
2897+877472092+879500740+881283134+882707069+883713297+884288033+884294042
2887+883432965+881331564+877537774+871529178+863055633+852595507+841309584
2877+830536815+821556337+815666308+813877057+816206895+821451275+827846610
2867+834049777+839684078+845121615+850703738+856152870+860845917+864449166
2857+866945365+868265934+868422680+867933777+867667090+868243027+869840252
2847+872427516+875805367+879436614+882597764+884894796+886546250+888075106
2837+889779021+891559788+893204171+894679860+896120764+897643682+899273854
2827+900968719+902650927+904242002+905668270+906833931+907695645+908376504
2817+909055030+909741120+910303200+910657628+910792669+910736390+910644266
2808+910772165+911252231+912010791+912905523+913802588+914591903+915299487
2798+916105559+917096516+918064707+918686035+918846245+918744576+918732769
2788+919074895+919810265+920793727+921810986+922634450+923056186+923002877
2778+922635228+922285607+922238944+922516802+922891593+923177440+923432037
2768+923763276+924087726+924267521+924347485+924466193+924664583+924937280
2758+925308394+925713869+925956023+925918197+925718252+925559173+925537963
2748+925638430+925785843+925861141+925785773+925610644+925446899+925356400
2738+925374005+925552456+925901724+926351529+926800627+927141975+927253755
2728+927082939+926764498+926556281+926603298+926859804+927276026+927882294
2718+928595252+929125515+929203782+928814286+928216290+927816683+927924220
2708+928487078+929135343+929549444+929749883+930012046+930522584+931140659
2698+931547761+931603474+931434355+931224512+931082472+931061968+931186191
2689+931464757+931869454+932244103+932395688+932347398+932295150+932269768
2679+932101639+931720980+931251520+930848873+930639454+930700894+930934705
2669+931073351+930960653+930743103+930704358+931000316+931610190+932424605
2659+933261856+933890254+934201413+934304779+934317859+934176738+933804422
2649+933334608+933017511+933015036+933330861+933803079+934188333+934387288
2639+934512360+934680276+934883474+935071046+935227155+935408435+935766469
2629+936422511+937282670+938046957+938383144+938159231+937679166+937590364
2619+938288192+939425784+940217857+940268267+939958593+939924020+940315850
2609+940839680+941335653+941839899+942220487+942297340+942213204+942246081
2599+942451965+942772102+943199424+943663653+944064249+944440383+944861554
2589+945262999+945558816+945750983+945880226+946067020+946493353+947114398
2580+947595594+947749159+947754744+947786843+947784580+947737493+947813851
2570+948035430+948114829+947743432+946933472+946068081+945617498+945716127
2560+946010671+945997662+945530393+944984363+944842465+945100880+945268938
2550+945019573+944562980+944284132+944328462+944613249+944949931+945090982
2540+944903622+944561354+944397750+944487046+944536891+944376681+944340906
2530+944838081+945746246+946610223+947218966+947623097+947776450+947522135
2520+946917564+946313346+945950504+945636941+945118838+944608229+944520276
2510+944821325+945052944+944871240+944307534+943672985+943315163+943297488
2500+943386007+943468516+943743192+944324008+944945053+945255010+945218457
2490+945101799+945206579+945684099+946429226+947085834+947369843+947432061
2480+947675912+948209357+948745065+948999450+948928253+948638234+948333156
2470+948283665+948594823+949015217+949206889+949197910+949317396+949702651
2461+950209724+950780642+951491902+952237736+952742264+952881618+952724518
2451+952374190+952008167+951921981+952255765+952761212+953044797+952990993
2441+952767081+952511564+952262199+952063880+951886701+951621074+951401969
2431+951638538+952415905+953171990+953261569+952624758+951746712+951185551
2421+951221892+951763751+952461931+952981166+953235551+953397812+953697234
2411+954210176+954838433+955471992+956086320+956611988+956827417+956540792
2401+955861276+955185932+954924123+955235565+955923423+956518096+956579890
2391+956031314+955189467+954463783+954087296+954149302+954710109+955690531
2381+956695346+957200086+957035422+956610150+956565325+957184461+958145370
2371+958898274+959290457+959633644+960130041+960570372+960783468+960947072
2361+961079284+960677981+959404782+957785073+956663247+956247096+956174061
2351+956199372+956373440+956761735+957291928+957765560+957964020+957897206
2342+957952637+958588458+959725273+960576594+960466511+959643471+958824390
2332+958263018+957772206+957260819+956763361+956306415+956001690+955915717
2322+955866862+955700359+955610992+955829036+956263075+956677670+956951569
2312+957079752+957147272+957331874+957732895+958196487+958522140+958809543
2302+959327858+960056794+960670910+960971817+961037924+960990836+960894965
2292+960834514+960886551+961036792+961181307+961203437+961092718+961006673
2282+961102333+961262261+961127574+960535728+959873889+959787137+960512255
2272+961689583+962801864+963582129+964058306+964429067+964825846+965102855
2262+965016599+964651424+964465620+964806403+965466616+965871950+965741152
2252+965415994+965529188+966459765+967974481+969335068+970073619+970533323
2242+971162286+971682510+971640019+971311114+971327587+971771383+972174383
2232+972244590+972406497+973499406+975735706+978175838+979509487+979068661
2223+977011025+974156509+971745718+970743661+971152741+972053766+972234268
2213+970913062+968172164+964882548+962134651+960327229+958537765+955200709
2203+949730012+943090968+936839935+932167674+929598299+928972941+929799940
2193+931700689+934186848+936419825+938018818+939823553+942925808+947001275
2183+950166525+950703506+948870278+946907807+947257286+950544497+954971635
2173+957984594+958686875+958074527+957326430+956941530+957118426+957662123
2163+957916720+958091566+959986446+964575702+969465725+971243028+969570151
2153+966871603+965098260+964239657+963891945+964699714+966999998+969383993
2143+970415392+970706825+971604456+972857929+973231234+972589474+971907696
2133+971777746+972035878+972365419+972435344+971886273+970772790+969834435
2123+969957527+971302417+973001807+973888408+973613166+972867261+972471684
2113+972580424+972830143+972865635+972590463+972205138+972142638+972737099
2104+973773800+974569196+974821036+975172636+976427523+978356057+979854371
2094+980163903+979336692+977753960+975864949+974268430+973534969+973843936
2084+974863386+976076842+977295600+978674216+980080617+980835783+980495142
2074+979571705+979008140+979161351+979707311+980261543+980665887+980839530
2064+980688440+980144602+979306290+978569789+978309748+978336897+978081098
2054+977442377+977159499+978264711+981067544+984381834+986279825+986121736
2044+984939601+983988944+984245804+986417623+989765709+991890794+991325674
2034+989546321+989051620+990323051+991830910+992212134+991465805+990291730
2024+989070851+987818297+986549977+985142444+983471689+982395890+983666331
2014+987626059+991764450+992970906+990935541+988191461+986890618+986820694
2004+986672362+985912670+985001111+984629644+985116073+986239949+987436295
1994+988150313+988434464+989281825+991390861+993540480+993865921+992594207
1985+991628702+991603462+991346885+990227887+989329903+989967704+991979808
1975+994044938+995315379+996087726+996836883+997240025+996696610+995386010
1965+994143425+993683298+994469856+996511372+998642042+999092696+997557476
1955+995745741+995270908+995967816+996894151+997793620+998723632+999379675
1945+999653291+999942744+1000342422+1000334503+999607900+998465571+997383550
1935+996567933+995931263+995433310+995190166+995125333+994977636+994891239
1925+995400433+996545026+997574657+997933327+997934458+998122313+998457440
1915+998508204+998228578+998007776+998066034+998205600+998215215+998154765
1905+998142534+998194570+998308259+998537969+998964938+999527795+999908454
1895+999837540+999508706+999394946+999770444+1000622047+1001753843+1002899707
1885+1003897381+1004690868+1005167045+1005190942+1004886924+1004712785
1877+1005026065+1005622082+1005971137+1005944482+1005988954+1006507127
1868+1007231609+1007483166+1007058531+1006325707+1005721913+1005529180
1860+1005856317+1006588929+1007395425+1007972140+1008259048+1008327983
1851+1008227940+1008025803+1007828828+1007723341+1007744410+1007808536
1843+1007761378+1007685232+1007830242+1008274815+1008949098+1009786491
1834+1010625934+1011208800+1011440136+1011462549+1011471882+1011583308
1826+1011817119+1012156275+1012669783+1013446301+1014359203+1015137914
1817+1015679985+1016090055+1016478633+1016928367+1017567370+1018476525
1809+1019485087+1020242233+1020607691+1020796748+1021062799+1021448619
1800+1021927765+1022461140+1022842223+1022878422+1022701526+1022722312
1792+1023203509+1023805323+1024023014+1023933294+1023968220+1024288782
1783+1024664421+1024921564+1025050029+1024986185+1024773090+1024711438
1775+1025122711+1026096134+1027251190+1027928443+1028041141+1028028839
1766+1028129943+1028355694+1028814478+1029551898+1030298156+1030867023
1758+1031440274+1032147999+1032922185+1033816351+1035020120+1036457842
1749+1037616787+1038172291+1038390619+1038567161+1038724473+1038904974
1741+1039284714+1039850824+1040388935+1040939420+1041882936+1043457749
1732+1045207478+1046653826+1047925328+1049169044+1050320494+1051402798
1724+1052538128+1053593777+1054233276+1054276828+1053598161+1052145874
1715+1050740887+1050618290+1052072839+1054550020+1057288090+1059806207
1707+1062018680+1063836071+1064944958+1065287438+1065218928+1065040264
1698+1064740701+1064360042+1064025976+1063814012+1063924377+1064608559
1690+1065916189+1067663020+1069690466+1071929452+1073741823+1073559624
1681+1070578552+1065076959+1056611332+1042105930+1015753302+974566156+920392565
1672+849649715+756011840+655066789+578402871+531984707+502524345+482090522
1662+472870755+479570037+501391878+532502987+568909452+616312422+680311306
1652+735264031+764729731+784111581+805757162+829505416+848166461+860711655
1642+870535252+879206126+886655767+893304002+900603049+908737578+915923572
1632+921732436+926818797+931264105+934833770+938169059+943051163+950877008
1622+960372761+968811591+975628734+982011272+988130658+992622912+995229971
1612+996960258+998597147+1000223855+1001197490+1000570789+997561294+991710434
1602+983227626+973138473+962505765+951459662+938780913+921876526+897406194
1592+862554710+816479026+761920535+705771252+656930065+622763541+606650520
1582+607174208+618921956+636029964+656430132+680854438+705570953+723749458
1572+735004696+742086193+745970057+747519630+749696469+755190143+763856917
1562+773702078+784741534+800661115+820479336+834493714+842618487+849204364
1553+855001562+859171274+861191225+860770549+857341863+849432024+834446485
1543+808475507+766477905+715782986+683169428+677111270+689172368+714389029
1533+746005267+772889501+791421020+805795553+820098324+835190410+850120024
1523+865039173+880099090+893173557+903238530+912001317+920277745+927252906
1513+932806960+937667288+942349093+947705606+955205163+963461088+969152445
1503+972872705+976298351+979998956+983973177+988072541+991719413+994292324
1493+995902134+997033222+997844455+997554082+994579797+987514491+974715266
1483+953678922+923217882+886749871+850942852+821103563+799828035+787601989
1473+782504245+780589710+778563112+775552133+771779765+767433794+762692033
1463+758027903+753977112+750765622+748476155+746925734+744754127+740538742
1453+734827518+729489458+727331425+731326574+742084920+756066563+768251885
1443+775585292+777062678+773740540+769059583+767254635+769460886+771152428
1434+768887070+765513390+766792104+776160027+791335542+807822292+822951568
1424+835102811+843718891+850815730+859629280+870310278+879399283+885347570
1414+889151047+890843720+887652380+875709849+854571553+830192002+813464087
1404+812755089+826527031+847557577+869742260+888381245+899962490+903100450
1394+898991188+891740643+885904772+883374918+882567150+878648429+866335986
1384+844291152+816683779+792659151+782565685+790731465+812631997+839116130
1374+861649656+876690483+887252632+898119788+910049734+918785937+918166023
1364+902045013+865436022+810085741+747173756+691063077+654250041+644126244
1354+658280470+685647952+715442345+743338393+769778408+795728671+820739378
1344+843534712+863481470+881115853+896981912+910068116+917758568+917144523
1334+906194504+884981264+856972870+829045430+809678569+805777242+819148516
1324+845094112+875210482+902468446+923944555+939754053+950888038+958112140
1315+961757244+961937817+959273983+955617143+953621512+954894994+958271643
1305+960284808+957468612+947696415+929439927+900656641+859206130+804909164
1295+741536557+676708906+619425353+576670605+550923433+540038920+539856933
1285+547659235+563247330+586715251+615821751+646011509+672561889+692427269
1275+705063668+712716435+719691384+729997309+744717079+761357889+775281981
1265+781969951+779919032+773073821+769482309+775448201+790641957+809537590
1255+826530636+838633024+844361429+841835676+829279878+808019692+783982479
1245+764210002+751640557+744834374+742165945+743053748+744519397+740232744
1235+725730665+703564082+681853949+668345514+666160686+673784112+687596141
1225+704425654+722641701+741765631+761607962+781731120+801354417+819634944
1215+836068386+850499268+862589637+871084676+873144927+863949799+837362724
1205+789064881+722028858+649714447+590894932+558017904+550401972+558959617
1196+575169146+594602643+615687064+638613833+664218223+691484742+715923683
1186+730719387+730001127+713323906+688888359+670710985+669614895+686232161
1176+712855789+740746040+765029719+784670479+800441373+813449735+824418348
1166+833451357+840270479+844653004+846762252+847351269+847727827+849195950
1156+852068142+854996895+855625718+852684592+847849575+845073185+847531488
1146+855224767+865517683+875451858+883240161+888232559+890424670+889975148
1136+886315762+877539400+861800604+840239370+817613296+798062681+779226083
1126+751538959+705642362+642164833+574002919+517955659+483726457+470418850
1116+471540075+481505076+498306379+522433843+554032052+590250096+625065875
1106+652541602+671134348+684893705+700012162+720012512+744016283+768688681
1096+790995324+809467736+823912194+834619139+841997937+846731991+849933724
1086+852956511+856839385+861606740+866110094+868898080+869430606+868481787
1077+867536291+867943110+870480811+875264781+881612463+888008576+892748569
1067+895136099+896056001+896925987+897593978+894872593+882644568+853776299
1057+804759559+741617157+680095877+635975099+614253160+609539751+615428719
1047+629599631+650335775+672319806+687218735+686820542+666422848+628994565
1037+587866171+562286775+565890731+597843686+644973252+691026948+723344336
1027+734257307+721552540+690164951+652324123+623353548+614492980+627782806
1017+656984293+693094553+729498578+763447129+794338744+821757767+845290593
1007+865116733+881718233+895134968+904680282+908662705+903995252+886991318
997+856046181+814716500+772355915+740659006+727989235+735743248+758969793
987+789665423+819931963+843507916+856014012+854792920+838301221+805092494
977+753956891+686329093+609145517+534792525+476784703+443480317+434469720
967+442670144+460118298+482283291+508050613+537062867+567846131+598187368
958+626452480+652120501+675346340+696183304+713533042+723326944+717035540
948+685296422+629147210+568435184+532170370+535832655+570673003+616022403
938+657037108+689609235+715139034+735847321+753444161+768994961+783057770
928+796002500+808205072+820032996+831735282+843314759+854291574+863266890
918+867693815+864637516+852573660+832588582+807374679+779736268+752909373
908+729349963+705178205+669194714+614997014+553730544+508277425+494072434
898+509211608+541249936+578246337+613432948+644243963+670165450+691086479
888+705948572+712336554+707948232+692775405+669616309+642192619+612394974
878+580017807+547160999+522678824+518611842+540015093+579885701+624791835
868+663193966+687552023+692083658+672942831+630917372+572204971+508104276
858+455739733+433487990+447195345+480978948+507715168+510479469+493142917
849+473056559+466496312+479241132+506884174+541485055+577239790+611304964
839+642178125+668851668+690763301+707638275+719421727+726361325+728841263
829+727337294+722551698+714055457+697981040+669380730+630856710+596656744
819+582403641+589985742+605900868+614999418+614091889+612458676+621033184
809+641732845+665948580+680608890+674203374+640993163+586565611+530326113
799+496150468+495849066+522526285+560074514+596070625+625873149+649560458
789+668562427+684222885+697350097+708340274+717591822+725582545+732659587
779+739041135+744942548+750480269+755523573+759823023+763294342+766086217
769+768325415+769840202+770142735+768541550+764289046+757087993+747875543
759+739005148+733328851+732764438+737292113+745124675+754062803+762818802
749+771104845+778959537+786366121+793202282+799231311+804054662+806623472
739+804503689+794555445+775991403+753345037+735203157+728537104+734009922
730+746762413+760865875+772747815+781797651+789066366+795522646+801288664
720+806070089+809928571+813010394+812658793+801307471+773759417+740090280
710+722976687+735027533+764605932+789624062+798655303+793924078+782123869
700+769343168+760222913+756407488+756277184+756948922+755682228+750240873
690+740157800+728482664+720831664+721019518+728093662+738409485+749244401
680+759588576+769063188+777490282+784998394+791778913+797779237+802908726
670+807551009+812445203+817188873+820416977+822288455+823580461+824053102
660+822641540+819135153+815219897+813279697+814021642+815397571+814053387
650+807846543+797168019+784627846+773859743+768029103+768535046+774534663
640+783582660+793015417+801370113+808732225+815650542+822083561+827567974
630+831849819+835016130+837315142+839070669+840483504+841061067+839344073
620+833860862+824640210+813457512+802477869+793137520+786649989+784723222
611+788568696+797250599+807972604+818177567+826666525+832848907+836237434
601+837211635+837407408+838585089+841307817+845016270+849045143+853092541
591+856726687+858825824+857427483+849846054+833918272+810607026+785157615
581+764363142+752087252+747866069+749561145+755827096+765904796+778635299
571+792513081+806121135+818094987+827110533+832496175+834553387+833709984
561+830046286+824722932+821060081+822340774+828632107+837102047+845052045
551+851419029+855802048+856928540+851811565+837213968+814207729+791058249
541+778644773+781516328+794505883+808882820+820110343+828701042+836046963
531+842101303+846418994+849065788+850059149+849209525+847005466+844797872
521+843883980+844845737+847184342+848978754+847709161+842593176+836012955
511+832066520+833461962+839822936+848679544+857536576+865168204+871342384
501+875834001+878531064+880296772+882451128+885275808+887730010+888804466
492+888693747+888294777+887641421+885161625+878613573+866721806+850297344
482+832519931+818253713+811837804+813687152+818644058+818670218+807914629
472+787224512+764442894+749248078+748496305+763390779+788252729+813589583
462+830891455+835455259+827284247+812502754+802165650+803636955+815487645
452+830439671+840507684+842173066+837133014+829762771+825430021+828537155
442+839357860+853052524+863450220+867245141+865432629+862580304+862934591
432+865600758+862889342+844010607+804863208+756277962+720402998+713542233
422+732322976+763358398+796414055+822765763+836882730+840062404+833908515
412+817844561+792896780+764766355+742487850+733102746+736518564+747073996
402+759849041+773387949+788192845+805115402+823262302+838638610+847889098
392+852330941+856236581+861957138+868284105+873258121+876490114+878490694
382+879859976+881219997+881972689+879663354+871887990+861452469+857410656
##END=
