##TITLE=X7434
##JCAMP-DX=5.0
##DATA TYPE=LINK
##BLOCKS=1


$$ === CHEMSPECTRA SPECTRUM ORIG ===
##TITLE=X7434
##JCAMP-DX=5.00
##DATA TYPE=INFRARED SPECTRUM
##DATA CLASS=XYDATA
##ORIGIN=ComPlat
##OWNER=
##XUNITS=1/CM
##YUNITS=TRANSMITTANCE
##XFACTOR=1
##YFACTOR=8.3106211e-010
##FIRSTX=3997.453
##LASTX=373.96442
##MAXX=3997.453
##MAXY=0.8923461450176265
##MINX=373.96442
##MINY=0.38515284693866775
##NPOINTS=2559
##XYDATA= (X++(Y..Y))
2559A071476442A072214021A072876078A072932236A072611714A072274697A072007823
2552A071962280A072349144A072938045A073243147A073280657A073461537A073741823
2545A073599744A072866109A072007321A071535325A071496524A071591052A071560069
2538A071392098A071210285A071030983A070807285A070737859A071210429A072216388
2531A073092532A073081199A072119923A070980061A070520684A070863012A071404362
2524A071549095A071212508A070721291A070615359A071227427A072066850A072332863
2517A072014708A071582231A071025101A070104777A069286296A069356942A070118332
2510A070669293A070665420A070454489A070398400A070407225A070098537A069209196
2503A067913125A066910464A066850506A067683690A069003357A070564509A072045692
2496A072789654A072310199A070926772A069611551A069013254A068964843A069257608
2489A069973384A070974538A071864811A072355527A072412545A072256193A072152054
2482A071988601A071294127A069820114A068059578A066628960A065658431A065531915
2475A066609739A068149733A068999484A068726370A067821896A067040926A066960383
2468A067860697A069202813A069985218A069672945A068670715A067907316A067835164
2461A068304292A068938234A069218663A068446945A066723990A065989925A066962821
2454A068644967A070196652A071123072A071132468A070272891A069056502A068098739
2447A067707860A067942889A068689864A069534236A069889614A069542484A069031830
2440A069044596A069574543A070031119A069878569A068878777A067147071A065634763
2433A065309938A065797426A066492690A067401539A068427509A069060016A068934361
2426A068118606A067275453A067373137A068198575A068147294A066288070A064220137
2419A064392554A066655568A069298704A070986587A071419209A071067775A070456497
2412A069911560A069590178A069476501A069461941A069422064A069072639A068077725
2405A066725855A065970848A066159402A066768888A067390566A067877050A068012313
2398A067804540A067715821A068007367A068523184A069160928A069810434A070044101
2391A069428304A068294968A067621221A067726077A067799591A066511266A063533193
2384A061102994A061066132A062220697A062636678A061840217A061461315A062383074
2377A063569197A063788520A062610716A060783551A059791219A060504700A062562807
2370A064980738A066883211A067818023A067766743A067039204A066099300A065456034
2363A065463206A065999823A066621071A067051684A067290300A067336990A067110782
2356A066829564A066997176A067670780A068305870A068200296A067137032A065827764
2349A065196619A065238432A065488595A065918348A066857463A068431740A070154695
2342A070877141A069712678A067482297A065589865A064407902A063691409A063216974
2335A063108891A063603121A064257145A064100219A063430416A063488869A063821224
2328A063314013A062639979A063350806A065087029A066432731A066526255A065519579
2321A064336970A063779698A063924359A064304768A064319972A063555641A061942563
2314A059830880A057869238A056589735A056476484A057778009A059982929A062108741
2307A063505078A064201776A064337329A063679575A062109817A060126443A058246132
2300A056359510A054685756A054679158A056507542A058552811A060035859A061154707
2293A062021456A062309273A061942348A061236254A060209493A059029828A058547361
2286A059305093A060773223A062064560A062553340A061935319A060390950A058596705
2279A057281986A056707285A056638290A056655503A056425135A056051898A055932555
2272A056006427A055722986A054881770A054263749A054671699A055616265A056039490
2265A055519083A054633184A054174026A054101158A053933474A053777050A054036035
2258A054519220A054649895A054207018A053431068A052582823A051817560A051387735
2251A051473155A051933102A052430344A052701808A052533694A051772806A050697851
2244A050019154A050044328A050273477A049991183A048996054A047947348A047938312
2237A049454351A051717365A053182052A052970691A051767068A050868403A050662994
2230A050622400A050286028A049699278A049078676A048523842A048237388A048629559
2223A049686799A050514029A050163744A048861935A047828578A047743517A047988731
2216A047657380A046785037A046222314A046474987A047127003A047448744A047188253
2209A046671574A046233072A045863135A045489755A045262471A045402470A045850727
2202A046218226A046208830A046013390A046079804A046516728A046970364A047055139
2195A046644822A045810994A044694584A043544250A042833781A043043852A044072188
2188A045153455A045612182A045338280A044503304A043396791A042542522A042319326
2181A042452440A042405606A042164839A042181335A042702316A043465428A043949330
2174A043889013A043573799A043464639A043545182A043399158A042921855A042495114
2167A042470801A042834857A043237786A043243380A042739253A042095054A041756029
2160A041831479A042186929A042684530A043217489A043666821A043853798A043555725
2153A042752952A041807525A041153572A040931452A041071595A041423243A041681654
2146A041555353A041112619A040737375A040768143A041281953A042081354A042787162
2139A043034385A042682163A041883047A040962507A040192223A039664643A039357677
2132A039158364A038830743A038221183A037523770A037083833A036976610A037034848
2125A037281281A037991750A039140075A040092958A040237981A039763116A039360259
2118A039316222A039317369A039012269A038429965A037911350A037687007A037502182
2111A036986004A036457563A036676099A037594487A038168399A037731976A036810863
2104A036197720A035953796A035700621A035261183A034660164A033935853A033219718
2097A032749874A032702825A033061430A033503160A033445496A032583911A031418085
2090A030862104A031320760A032372980A033252782A033500721A033277023A033133223
2083A033388908A033719972A033498354A032606001A031676425A031329653A031489018
2076A031760408A032035819A032276945A032217775A031789098A031423178A031526815
2069A031959795A032199271A031836793A030863824A029601248A028444674A027716491
2062A027598007A027964645A028364347A028409029A028141007A027857566A027670589
2055A027465467A027277271A027401707A027905547A028274337A027931725A026980991
2048A026062603A025603660A025552163A025683557A025767471A025538609A024910835
2041A024232139A023966484A024043225A023870736A023142983A022266480A021717312
2034A021303048A020485144A019252761A018222558A017915164A018244005A018684587
2027A018782917A018605909A018632805A018985959A019067004A018385295A017368004
2020A016762894A016642546A016542567A016175211A015559773A014841056A014337288
2013A014407431A014982634A015555757A015841852A016078890A016430180A016591552
2006A016366202A016154986A016421645A017015997A017405944A017341393A017011479
1999A016687658A016478878A016441440A016697556A017290760A018101423A018993633
1992A019805874A020237133A020154152A019890505A019794399A019766643A019700588
1985A019901693A020554212A021277088A021652763A021739043A021745424A021658572
1978A021509249A021590652A022037690A022530700A022773332A022943885A023343228
1971A023944824A024568439A025123846A025497441A025497585A024970220A023899927
1964A022636130A021914186A022161839A022954715A023596475A023866361A023835449
1957A023521957A023013957A022425629A021739617A021154230A021243881A022249123
1950A023558463A024316052A024306442A024002560A023921515A024142989A024390857
1943A024420622A024180356A023686126A023021631A022467012A022372412A022837881
1936A023585430A024147293A024183512A023696813A023015104A022619921A022886939
1929A023738411A024583357A024889964A024729667A024453255A024124772A023721772
1922A023514067A023693585A023953072A023930552A023792202A023985562A024624883
1915A025401120A025961118A026178289A026142716A026043956A026044314A026173699
1908A026388360A026741228A027318941A027939686A028194870A027926418A027415549
1901A027084628A027219392A027805209A028391457A028435207A027924338A027211287
1894A026278914A024906890A023455256A022610741A022365096A021991358A021049947
1887A019802001A018556494A017194009A015570459A013960609A012738984A011906375
1880A011295885A010995159A011194615A011840965A012729158A013759718A014948566
1873A016328264A017846168A019316235A020621558A021863694A022999610A023576680
1866A023324076A022750740A022641940A023180565A023943246A024479433A024610395
1859A024380458A023876330A022991078A021440540A019074965A016011329A012439836
1852A008445762A003922459I98572715I92150167I84723593I76612089I68219292
1845I59977683I52177947I44858671I38104843I32281596I27746674I24617126I22939499
1837I22613958I22951259I22748219I21051084I17637162I12718533I06504406H99213388
1829H91269135H83186961H75374173H68265613H62395747H58000036H54780335H52339309
1821H50586088H49559544H49235078H49675446H51036780H53223486H55723036H57942372
1813H59630542H60857761H61672153H61948852H61478363H59985418H57214403H53302809
1805H48997108H45285902H42844231H41825075H42084562H43603470H46619914H51196362
1797H56769805H62434333H67675062H72603804H77451071H82034404H85872054H88747279
1789H90939648H92844915H94570813H96015705H97158150H98139652H99165263I00419593
1781I02042855I04094005I06495011I09045842I11530546I13787105I15711381I17251518
1773I18364916I18958121I18916881I18163954I16621808I14204163I10908652I06845512
1765I02238940H97529521H93316914H90003904H87647437H86336806H86547308H88902125
1757H93610755I00220638I07889627I15874185I23802447I31548535I38904533I45450011
1749I50830595I55127260I58780874I62139784I65210594I67777562I69600782I70614416
1741I71056361I71244916I71168103I70520748I69172751I67387614I65630736I64437728
1733I64399213I65915755I68821892I72408661I75920267I78944672I81362819I83231368
1725I84852909I86665658I88832136I91104259I93180222I94982646I96543941I97878025
1717I99021975I99975865A000566990A000624510A000342647A000223159A000559890
1710A001197275A001860551A002449883A002964123A003453045A004094088A005027537
1703A006083414A006877223A007162745A006970891A006496671A005986304A005671018
1696A005656029A005811592A005877288A005788211A005777166A006057595A006596148
1689A007280439A008052014A008811253A009422675A009830337A010011863A009935265
1682A009657274A009322982A009047000A008921990A009035238A009337183A009627223
1675A009781280A009833708A009786946A009556291A009196610A008987185A009144756
1668A009591721A010120234A010629740A011042136A011186654A011005845A010725631
1661A010594238A010574945A010509751A010453880A010592015A010877895A011024134
1654A010879544A010602056A010410130A010345438A010353829A010448931A010682957
1647A011002546A011219574A011181920A010938356A010643510A010318327A009896321
1640A009497767A009370964A009500062A009596957A009546896A009490236A009405175
1633A009070094A008536203A008166624A008054381A007847896A007301812A006610564
1626A006063333A005703508A005446818A005273612A005216092A005315712A005588970
1619A005968230A006352368A006716855A007029415A007135993A006948155A006651804
1612A006537265A006740953A007256125A007976348A008663723A009122379A009425544
1605A009767796A010158031A010448214A010559884A010535570A010449935A010348522
1598A010222006A010075193A010054250A010362220A010967618A011563333A011915409
1591A012085247A012172962A012035186A011517214A010862690A010523449A010527968
1584A010470161A010239147A010244957A010708489A011287924A011665963A011961385
1577A012319344A012610101A012712232A012649261A012341434A011621212A010642216
1570A009986044A010109260A010787598A011375711A011583271A011645238A011713373
1563A011546694A010983827A010365233A010226309A010678725A011273149A011546762
1556A011579972A011781006A012259386A012801525A013300273A013720200A013876982
1549A013839400A014194133A015189979A015993040A015581218A014081315A012474190
1542A011384317A010877178A010964103A011541673A012142982A012311814A012009007
1535A011421325A010762782A010427917A010833069A011871948A012885654A013334986
1528A013245909A012955725A012688779A012495778A012468524A012761863A013274454
1521A013575682A013464156A013267927A013192118A012879844A012155533A011609665
1514A011826477A012520307A012946688A012842478A012668698A013079587A014206038
1507A015459220A016145232A016109587A015563502A014606744A013301923A011968842
1500A011064441A010863551A011315033A011991507A012201005A011526755A010367528
1493A009654047A009959363A011101736A012505532A013555098A013718694A012906309
1486A011779787A011222296A011372985A011514276A011029370A010202641A009864189
1479A010322917A010954851A011072617A010924155A011248334A011950268A012058136
1472A011169010A010063502A009568842A009694641A010202354A011116511A012262541
1465A013052979A013123194A012689066A012130216A011618917A011185793A010829053
1458A010527894A010312733A010289782A010464566A010627158A010605140A010549985
1451A010706553A010986696A011056552A010746287A010131279A009425400A008974203
1444A009025914A009377204A009546465A009320903A008877882A008499625A008366224
1437A008474522A008655618A008795187A008914603A008931170A008599317A007859443
1430A006997858A006365637A006095822A006108015A006272041A006579868A007110603
1423A007683798A007712128A006804211A005469052A004736347A004989095A005576132
1416A005698344A005290610A004834177A004610192A004398113A003856333A003082247
1409A002475846A001926749A000864704I99564617I99257651A000313958A001627673
1402A002339648A002802822A003432605A003852460A003553311A002668489A001775490
1395A001288217A001245758A001460634A001789187A002277896A002879348A003170608
1388A002757423A001942241A001561044A002035909A002989655A003876773A004424578
1381A004364978A003525770A002370774A001726791A001801453A001976380A001729373
1374A001217357A000786385A000526898A000404542A000378938A000351540A000260741
1367A000214768A000373487A000726426A001077067A001225891A001136814A000954140
1360A000858321A000896620A000925882A000701324A000120455I99508316I99460693
1353A000146848A001046732A001670920A002085970A002378592A002306441A001904157
1346A001647396A001656505A001548564A001202295A000878546A000673352A000502226
1339A000361438A000234635A000167360A000535074A001581413A002638796A002599134
1332A001368186A000045864I99376131I98943510I98359416I98044919I98146763
1325I98048362I97749716I98330298A000188590A002061800A002716542A002650630
1318A003056643A003744017A003402697A001785459A000196623I99582117I99462127
1311I99028861I98256497I97831693I98531260A000352186A002136031A002651419
1304A001881996A000708065I99824534I99442834I99561461A000239010A001634845
1297A003599356A005345835A005961847A005223694A003712101A002269576A001355133
1290A000902071A000757479A000764725A000354406I98965889I97052013I95723955
1283I95414550I95609201I95704303I95819200I96932024I99788745A003322513
1276A005257977A004789710A003232431A001747160A000110988I98228310I97227228
1269I98062061A000048160A001710726A002545200A003185526A004494076A006959415
1262A009719169A010069670A006582593A002145786A000640576A002574964A005534246
1255A007304896A007639689A007430049A007075101A006119992A004240901A001685405
1248I98623922I95242420I92802039I93089497I96121935I99797352A002364104
1241A003696753A003995902A003036561A000964827I98611229I96840006I96107089
1234I96296360I96700293I96741892I96764482I97392545I98313873I98581393
1227I97991200I97333447I97249390I97445547I97202986I96370950I95531957
1220I95189489I95208209I95241200I95284161I95454570I95576568I95448976
1213I95302163I95553259I96242209I97070589I97799634I98227234I98094407
1206I97519132I97147617I97332514I97632452I97646937I97673401I97919479
1199I97954623I97670317I97851344I99037037A000568855A001269283A000507390
1192I98375195I95506783I93009313I92087769I93172192I95064193I95385933
1185I92879498I89296670I88140458I91174115I96857004A002398172A006302594
1178A008439738A008460609A005646777A000788250I96537558I94544717I93798315
1171I93218452I93715837I95912222I98248177I99269770I99846552A001235717
1164A002353490A000866139I96426247I91402546I88733803I89695299I92897500
1157I95060033I94237104I92271734I92119255I93550520I93998275I92614560
1150I91030458I90928754I92314695I93701565I93629055I92146007I90716893
1143I90764587I92392225I94392095I95203690I93907978I90851155I87503360
1136I85672895I86700228I90687269I95683289I98414785I97480475I94879009
1129I93014549I91755629I89773618I87422315I86495034I87568626I89335044
1122I90521812I91285211I92453331I93766616I93663839I91228981I87812765
1115I86019021I87146906I90057131I92499807I93256033I92808351I92205030
1108I91918364I91913272I92216076I92878207I93655950I94115610I93960191
1101I93172335I92183230I91831295I92486251I93307457I93194569I92258463
1094I91468817I91075427I90654998I90392427I90856462I91644748I91745014
1087I91024720I90292662I90011373I89798720I89480422I89553650I90228401
1080I90967845I91237731I91026441I90511699I89826835I89222442I88958365
1073I88936203I88706767I87957856I87069232I86892870I87688615I88659934
1066I88765937I87970192I87240646I87256066I87688615I87884199I87726054
1059I87559661I87592294I87605060I87235482I86601253I86255342I86449347
1052I86906282I87108249I86712922I85879667I85181032I85084855I85561728
1045I86193232I86509808I86288047I85724606I85249383I85053871I84980429
1038I84919753I84980787I85221698I85606697I86044410I86316305I86206715
1031I85701727I84983082I84457654I84629139I85479177I86406026I86902266
1024I86949602I86730566I86294430I85737803I85290479I85029486I84835122
1017I84623760I84324038I83872625I83499676I83588753I84067850I84398914
1010I84234315I83806570I83602524I83777810I84081764I84215524I83984654
1003I83328980I82572897I82347979I82766543I83318795I83520332I83303304
996I82986584I82803767I82628552I82309393I82017417I81987796I82111372
989I82012397I81586374I81301282I81507911I81976034I82267150I82139056
982I81657377I81048394I80461644I79837599I79123258I78492112I78129347
975I77845834I77097066I75490730I73553258I72329840I71918448I71673377
968I71233225I70612121I69744440I68542682I67235207I65911308I64007760
961I61028683I57964186I55875022I54346648I52704880I50499890I47290588
954I42906424I37794793I32323479I25891968I17509714I08031204I00499346
947H96095818H94132024H94214575H96044681H99264095I04026588I10295868
940I16600291I21736953I26374149I31212666I35047375I37043085I37652929
933I36861415I34193177I29165030I21829329I13744789I06907263I02275303
926I00935195I03273158I06896362I09981586I12164703I13447721I14138753
919I14767675I15565070I16610975I18386074I21159813I24111637I26566146
912I28868392I31686311I35046443I38226265I40756227I42676414I44238929
905I45958656I48256455I50058734I50563721I50381407I50231223I50554541
898I50907122I50560207I49417117I47816232I45921075I43005901I37655296
891I30135559I22355905I13760783I01557877H82694668H56149705H23049007
884G83151518G38106041F98775510F75546425F68383644F74995464F93207446
877G14855799G33902184G52615281G74496583G99581593H24623356H45961515
870H61950216H72989376H80058418H83780883H84713185H83551161H80714809
863H76181608H69646028H60608097H48642304H33709982H15945683G95433391
856G72456693G47647092G22258989F98348985F77192208F57589842F37770304
849F19872962F06967836E97255802E87791636E78462126E72223794E71335421
842E75777894E84163053E94782717F10174555F41910258F91895525G31681054
835G56396629G76941410G95922242H12509169H26712590H38293961H46960732
828H53549530H59082808H63914440H69038335H75848536H82297692H86218252
821H88474739H90701247H93863572H97388876I00423752I03061653I05560557
814I07580222I08696990I09290626I10308132I11952983I13454821I14515647
807I15439414I16302290I16901376I17126150I16911274I16427730I17028681
800I19840717I22696365I24195407I24744718I24898847I25103395I25659592
793I26305010I26426003I25772409I24368254I22404962I20296435I17915297
786I14173825I07675037H97059318H81904446H64007893H46421820H31349284
779H20356312H15519516H18615068H27579554H36564193H42331497H44774890
772H43619105H38104185H29152181H18926266H08081972G95804619G82814575
765G74550231G73931565G77818630G83928260G91569563H00457594H10241493
758H20117696H29363471H37860049H45299171H50812941H53650728H53211580
751H48975233H41783262H33290127H24358848H16059074H10097118H06973164
744H05482442H04557528H04205880H05191542H08729541H16170169H26931626
737H37832364H47080291H54999729H62118976H68632753H74388367H79072397
730H82637220H85178368H86475658H86082770H83568159H78581036H71131729
723H61329255H49038204H35140386H21789585H10343334H01544240G97670801
716H01860673H13916336H29875918H45974926H60089772H71319782H79670909
709H85562793H89416939H91484154H91575742H88757320H81240954H67089101
702H45767437H18247713G86398548G55395332G34205348G28507613G37519650
695G57923284G84974813H12061987H33264881H46349884H52364770H53419213
688H51416259H47978024H44675485H43087365H44723538H50428588H59072409
681H67669396H73869035H77172793H77962800H76656330H73732765H69963752
674H66241932H63236820H61380607H60957238H61941107H63879440H66083500
667H67995296H69496131H70932990H72831303H75516969H78909877H82599781
660H86108949H89130700H91512556H93093933H93785396H93799381H93615345
653H93714966H94362176H95532521H97048058H98794107I00690268I02483438
646I03812285I04517948I04692589I04370275I03321498I01166280H97566171
639H92271938H85136770H76245942H66101072H55631018H45851136H37342438
632H30194144H24703970H21996859H23527099H29741943H39273527H49587157
625H58572226H65477744H70478637H73857057H75726968H76177161H75427820
618H73837908H71796512H69700249H68089896H67613812H68626657H70847068
611H73472202H75553045H76286034H75153917H71991163H67003537H60606020
604H53026827H44070733H33470864H21451420H08749408G96227989G84956166
597G76793952G74284145G79142314G90585335H05427504H20060032H32351227
590H41852544H48839393H53605329H56378493H57386247H56856585H55054668
583H52288745H48794568H44627644H39718341H34062993H27894050H21637321
576H15634055H09945643H04520735G99449627G94893332G90920631G87663133
569G85479371G84681044G85207906G86808792G89399858G92982611G97320802
562H01986759H06734477H11603619H16626244H21640836H26461566H31029623
555H35303480H39153825H42426815H44935043H46316749H46110192H44213171
548H41338519H38928477H38406922H40270378H43729843H47125906H48640439
541H46863622H41276911H32699719H23298094H15856533H12655692H14581979
534H20867253H29546575H38424135H46000459H51830448H56254489H59901433
527H63309473H66696141H69914121H72673158H74797392H76202049H76790732
520H76589701H75838782H74690456H72870821H69748159H64642050H57027929
513H46648172H33620761H18440930H01841093G84643390G67606701G51144354
506G35054454G18535160G00467194F79774883F55809438F28671270E99290456
499E69265444E40554074E15023174D94006971D78208044D67964557D63446525
492D64475113D70282438D79634611D91116217E03196696E14331748E23549480
485E31144918E38509415E46953349E56621812E66426366E74830710E80932737
478E85330564E90029440E97113938F07334187F19975093F33771425F47667091
471F61003835F73470531F85012241F95718113G05729582G15152581G23992486
464G32199526G39743504G46543664G52391152G57059834G60408777G62320501
457G62807128G62390286G62215286G63575906G67272266G73284426G80921139
450G89322543G97859571H06059510H13410272H19534317H24464637H28531435
443H32010982H34956565H37285133H38953795H40051700H40702641H40871544
436H40314343H38784891H36340565H33438016H30684788H28495358H26966912
429H25972787H25350822H25090260H25349316H26305860H28106847H30904183
422H34671044H38962329H43104937H46661082H49579626H51972312H53889344
415H55280732H56066293H56130985H55100569H52063900H45676782H34886350
408H19965576H03034029G87299149G75365053G68160244G65428174G66868835
401G72474050G81926597G94099809H07308030H19926201H30780607H39309387
394H45622920H50246058H53610708H55903271H57393204H58555085H59738554
387H60933355H61901230H62389077H62314631H61936732H61685709H61643393
380H61370997H60423633H58819736H56852571H54704167H52429677H50112872
373H47903721H45994506H44592790H43845959H43769719H44170066H44662001
366H45017379H45473740H46317323H47207022H47324501H46040838H42993626
359H37719762H29589608H17871536H01731432G80708558G55663712G29292313
352G05748371F89663494F84915274F93308645G13411982G40354998G67567685
345G89924713H05891683H16898568H24999102H31349857H36391704H40483533
338H43914811H46730363H48980110H50936660H52783047H54312283H55234831
331H55598887H55661428H55603620H55636684H56046211H56821300H57649750
324H58550782H59908461H61546929H62514661H62229713H61171756H60054198
317H58943454H57503583H55542012H53003589H49766316H45716802H40990242
310H36083518H31640973H27909829H24360928H20106507H14856670H09294413
303H04401821H00601036G97622533G95082962G93242959G93238082G96338941
296H02881694H11961148H22055168H31844733H40624608H48164283H54342406
289H59100452H62673092H65508010H67833278H69483006H70211333H70107479
282H69607800H68985836H67865983H65472723H61428445H56164120H50486180
275H44724040H38274094H30048835H19317648H05950494G90242222G73139334
268G56499047G42483607G32471994G26509895G23514609G21847023G19945770
261G16832503G12314148G06859046G01353451F96924605F94740053F95765449
254G00678915G09766043G22433916G36773966G49992801G59760849G65594137
247G69112341G72825698G78455585G86215659G95212060H03890809H10415201
240H13696367H14259306H13612956H12922282H12482919H11885052H10225499
233H06648770H01253339G95327961G90445551G87465685G86423076G86983289
226G88842657G91889152G95962477H00390750H04112284H06487111H07606103
219H07744955H07104701H06099745H05235865H04549638H03552644H01842958
212G99542720G97032125G94656222G93094640G93048451G93669125G93752967
205G93289936G92907519G92933554G93038554G92783514G92058485G90896390
198G89291775G87301729G85149597G83131367G81351251G79653040G78036447
191G76930796G76695621G77171850G78292061G80888076G86104563G93843909
184H02394421H09926132H15847138H20516895H24332455H27485741H30058807
177H31838923H32427753H32014496H31678483H32423306H34089386H35611232
170H36037186H34712786H30917379H24288705H15496422H05563846G94418108
163G80840382G64144367G45581884G27875607G13542084G03872868F98971308
156F97870532F98896288G00711835G02747206G04417661G04957577G04437313
149G04041341G05031019G08044236G13083428G19306879G25113702G29386626
142G32683571G36467287G41300640G46514904G51678819G57543879G64773002
135G72493486G79175091G84527847G89431272G94162136G97969017H00621548
128H03173814H06406927H09326834H10353377H09713482H09272685H10092098
121H11716149H13713867H16267136H19146519H21472004H22693988H23032941
114H23040687H23208872H23733512H24384450H24769810H24768662H24664739
107H24816644H25018825H24253920H21536984H17440206H14154736H12985396
100H12695572H11217975H07905179H03594171G99410323G96379535G95483955
93G96778304G98578933G98715705G97136694G96011606G97042238G99930444
86H03261815H06206036H09023597H12420091H16932923H22474808H27984849
79H32075818H34602407H36822890H39498516H41667504H41784337H39759437
72H37077500H34975356H33502995H32534115H32357108H32656256H32015429
65H28824918H22342698H13361860H04330889G98285020G96807495G98347704
58H00013354H00678710H00770154H00632665H00184193H00045557H02019392
51H07407866H15085819H22295075H27495712H31212010H34303617H37165072
44H39913135H41907482H42039091H40630059H39594550H39464161H38283776
37H34829189H31031775H29304660H29876492H32652670H38030601H43818131
30H46434945H44457955H39489192H34653114H31126303H27568652H23411700
23H20181743H19355301H20931586H23588923H24408766H21158440H18472774
16H22899755H32440734H40789782H44211593H41504338H32791594H21865753
9H16968210H22892225H33376049H40015840H41385281H39683341H36729725
2H34178822H33158088
##END=


$$ === CHEMSPECTRA PEAK TABLE EDIT ===
##TITLE=X7434
##JCAMP-DX=5.00
##DATA TYPE=INFRAREDPEAKTABLE
##DATA CLASS=PEAKTABLE
##$CSTHRESHOLD=0.93
##MAXX=3997.453
##MAXY=0.8923461450176265
##MINX=373.96442
##MINY=0.38515284693866775
##$CSSOLVENTNAME=- - -
##$CSSOLVENTVALUE=0
##$CSSOLVENTX=0
##NPOINTS=41
##PEAKTABLE= (XY..XY)
385.29667513682534, 0.6789513244055231
396.6289302736509, 0.6802017105379932
403.71158973416686, 0.6809351452887451
422.12650433150884, 0.6892036805724326
447.62407838936633, 0.6648875486965453
457.5398016340887, 0.6621965180585144
498.61922650508177, 0.6615350848668486
505.70188596559774, 0.661096574113445
583.6111400312743, 0.5851020823786895
593.5268632759967, 0.5799737584928667
641.6889476075057, 0.6454823024470824
695.5171595074276, 0.6535664208932503
735.180052486317, 0.5773721343476919
794.6743919546516, 0.659230114159273
868.3340503440186, 0.5692071327816681
895.2481562939793, 0.7012250430262471
943.4102406254883, 0.6361183533378871
977.4070060359654, 0.6857012524160486
1017.0698990148553, 0.6334482438574135
1070.8981109147771, 0.38515284693866775
1131.808982275215, 0.6753673565902164
1145.9743011962469, 0.6967682256359254
1177.1380028225171, 0.6521186841036428
1216.800895801407, 0.643478215283246
1242.298469859265, 0.7210409652658634
1264.962980132916, 0.6831304440539125
1323.0407877091475, 0.7155089388320522
1342.8722341985927, 0.7006579644712402
1359.870616903831, 0.6054350740108434
1388.2012547458949, 0.6629139789644501
1423.6145520484752, 0.6683450355072068
1454.7782536747459, 0.6431851994045021
1474.6097001641906, 0.6777473697131388
1566.6842731508991, 0.4748152204939983
1619.0959531587177, 0.5554683214721289
1684.2564201954651, 0.7487331041299614
1712.587058037529, 0.7430792464840107
2865.6440182095384, 0.7366009361650206
2925.1383576778735, 0.6996089230804082
2949.219399843628, 0.7057670958086946
2974.7169739014853, 0.7667495026509314
##END=


$$ === CHEMSPECTRA PEAK TABLE AUTO ===
##TITLE=X7434
##JCAMP-DX=5.00
##DATA TYPE=INFRAREDPEAKTABLE
##DATA CLASS=PEAKTABLE
##$CSTHRESHOLD=0.93
##MAXX=3997.453
##MAXY=0.8923461450176265
##MINX=373.96442
##MINY=0.38515284693866775
##NPOINTS=90
##PEAKTABLE= (XY..XY)
2974.7169739014853, 0.7667495026509314
2949.219399843628, 0.7057670958086946
2925.1383576778735, 0.6996089230804082
2865.6440182095384, 0.7366009361650206
2827.397657122752, 0.8014756448381194
2252.2857089288505, 0.8294373162589191
2248.036113252541, 0.8291919842308608
2226.7881348709925, 0.8292601122094523
2189.9583056763095, 0.8272513162477005
2171.543391078968, 0.8287577642511311
2137.546625668491, 0.8250801573436423
2121.9647748553552, 0.8278268591702979
2107.7994559343233, 0.8287761822496129
2100.7167964738073, 0.8270642765781618
2090.801073229085, 0.8271579156703439
2079.4688180922594, 0.8286916025654919
2069.553094847537, 0.8291259995614509
2056.8043078186083, 0.8244865546103326
2048.305116465989, 0.8212060940018464
2031.3067337607504, 0.8254262224100537
2015.7248829476152, 0.8216992013805664
2007.2256915949959, 0.8245127214319281
2000.1430321344799, 0.823523341989973
1993.060372673964, 0.8233472715092243
1981.7281175371381, 0.8191553958885085
1966.146266724003, 0.8198386444605618
1951.9809478029708, 0.8194430480923943
1940.648692666145, 0.824341536765324
1929.3164375293195, 0.8242734087867325
1917.984182392494, 0.823077620110641
1906.6519272556684, 0.8223196873110105
1886.8204807662232, 0.8201692708861558
1879.7378213057073, 0.820458294342523
1872.6551618451913, 0.8207234156215447
1865.5725023846753, 0.8196394455212916
1855.656779139953, 0.8186666981253441
1842.9079921110242, 0.8185294881088588
1830.159205082095, 0.8181454551388899
1808.911226700547, 0.8173493159208763
1800.412035347928, 0.8174347889967657
1790.4963121032056, 0.8163921841819757
1776.3309931821732, 0.8160928497380096
1770.6648656137604, 0.815522313964625
1712.587058037529, 0.7430792464840107
1684.2564201954651, 0.7487331041299614
1647.4265910007816, 0.7897011651742606
1619.0959531587177, 0.5554683214721289
1566.6842731508991, 0.4748152204939983
1508.6064655746677, 0.7616083629563103
1474.6097001641906, 0.6777473697131388
1454.7782536747459, 0.6431851994045021
1423.6145520484752, 0.6683450355072068
1388.2012547458949, 0.6629139789644501
1359.870616903831, 0.6054350740108434
1342.8722341985927, 0.7006579644712402
1323.0407877091475, 0.7155089388320522
1298.9597455433932, 0.7426498541440779
1264.962980132916, 0.6831304440539125
1242.298469859265, 0.7210409652658634
1216.800895801407, 0.643478215283246
1177.1380028225171, 0.6521186841036428
1145.9743011962469, 0.6967682256359254
1131.808982275215, 0.6753673549280922
1070.8981109147771, 0.38515284693866775
1017.0698990148553, 0.6334482438574135
977.4070060359654, 0.6857012524160486
943.4102406254883, 0.6361183533378871
895.2481562939793, 0.7012250430262471
868.3340503440186, 0.5692071327816681
838.586880609851, 0.7110597497608382
794.6743919546516, 0.659230114159273
735.180052486317, 0.5773721343476919
695.5171595074276, 0.6535664208932503
667.1865216653632, 0.6590725190202916
661.5203940969504, 0.6589553957750051
641.6889476075057, 0.6454823016160203
619.0244373338542, 0.6911764749235791
593.5268632759967, 0.5799737568307425
583.6111400312743, 0.5851020823786895
546.7813108365908, 0.6725558651614654
525.5333324550429, 0.6853476180359394
505.70188596559774, 0.661096574113445
498.61922650508177, 0.6615350848668486
468.8720567709147, 0.6917404544479779
457.5398016340887, 0.6621965180585144
447.62407838936633, 0.6648875486965453
422.12650433150884, 0.6892036805724326
403.71158973416686, 0.6809351452887451
396.6289302736509, 0.6802017105379932
385.29667513682534, 0.6789513244055231
##END=

##END=

