##TITLE=JPK-938,X16515
##JCAMP-DX=5.0
##DATA TYPE=LINK
##BLOCKS=1


$$ === CHEMSPECTRA SPECTRUM ORIG ===
##TITLE=JPK-938,X16515
##JCAMP-DX=5.00
##DATA TYPE=INFRARED SPECTRUM
##DATA CLASS=XYDATA
##$CSCATEGORY=SPECTRUM
##ORIGIN=Angelika Moesle
##OWNER=
##XUNITS=1/CM
##YUNITS=TRANSMITTANCE
##XFACTOR=1.0
##YFACTOR=8.1830626e-10
##FIRSTX=3997.453
##LASTX=373.96442
##MAXX=3997.453
##MAXY=0.8786496545664058
##MINX=373.96442
##MINY=0.48979360073747463
##NPOINTS=2559
##XYDATA= (X++(Y..Y))
2559I87740910I87661006I87585108I87884112I88748274I89856375I90607272I90515422
2551I89479797I87943621I86804419I86794513I87713960I88527499I88411321I87467108
2543I86354346I85608329I85447136I85841122I86553925I87315967I87988490I88455753
2535I88553284I88283707I87957607I87928544I88229806I88570401I88655113I88423484
2527I87931676I87219673I86449474I85908644I85698941I85727639I86011274I86561136
2519I87071811I87243930I87219164I87335051I87693200I88121494I88372789I88382331
2511I88405931I88657517I88886377I88665748I88120402I87918346I88362883I89067455
2503I89536830I89678866I89718782I89855938I90138625I90466547I90646533I90545286
2495I90144235I89535300I89078017I89210584I89638513I89460713I88508780I87578552
2487I87293824I87663847I88429385I89229740I89779384I90031771I89839039I88949893
2479I87757518I87070864I86952646I87029053I87420855I88329450I89268928I89432014
2471I88575864I87314219I86591729I86970929I88076334I89073938I89465375I89316929
2463I89053033I89057695I89612000I90874300I92499339I93076735I91065211I88268047
2455I87368412I88055211I89130315I89932856I90334563I90430128I90327643I90086036
2447I89758406I89481690I89365585I89257346I88964898I88721834I89058860I89992948
2439I90794177I90828557I90262671I89587234I89026447I88867439I89336013I89873419
2431I89657378I88736256I88054409I88154855I88805016I89437186I89543167I89231998
2423I89100014I89207743I89145903I88953462I89035260I89351600I89628243I89807353
2415I89960316I90142195I90447245I90931916I91416150I91559934I91226186I90678145
2407I90262452I90035704I89850765I89587162I89225807I88878729I88738660I88810406
2399I88803486I88616072I88734799I89565528I90702400I91332094I91110226I90332888
2391I89542584I89214590I89444980I89885218I90051511I89680760I89147724I89295368
2383I90135494I90728404I90215034I88672595I87523777I87676156I88692479I89830080
2375I90429764I90212193I89664881I89405064I89482929I89783390I90243223I90685720
2367I90960032I91163908I91365964I91420010I91404132I91705612I92436552I93165598
2359I93222995I92172729I90418911I89152385I88925856I89375054I90017786I90256261
2351I89590949I88521162I88336515I89382265I90878161I92140533I92951233I93193495
2343I92649679I91321751I90006932I89706181I90261651I90924486I91348992I91544055
2335I91583971I91471945I90997908I89967017I89042544I88941371I88955429I88311386
2327I87869836I88941662I91074316I93044831I94163055I94352219I93952697I93413688
2319I92912045I92378791I91961568I91929592I92083210I91660379I90059377I88106124
2311I87088345I87052800I87480438I87902904I88005607I87919512I88245175I89388893
2303I91004755I92334068I92949048I92877957I92329552I91740648I91543254I91720980
2295I92037103I92224372I92114676I91962297I92300197I93087879I93693463I93708976
2287I93285273I92797761I92373255I92049485I92116352I92714287I93378070I93510782
2279I93165889I92958808I93080085I93090937I92783849I92502690I92482367I92477124
2271I92158963I91509020I90943060I90966369I91632700I92550690I93132019I92984738
2263I92362183I91910800I91876857I91973951I91965284I91868699I91609538I90985016
2255I90213577I90021137I90629124I91477116I91964118I91861269I91306309I90674139
2247I90373241I90536619I90875830I91021945I90912905I90607855I90100895I89622707
2239I89640116I90234264I91012695I91647123I92004907I91949113I91452715I90768829
2231I90135421I89587306I89256400I89413513I89964759I90373167I90325822I90051656
2223I89915957I90119251I90765115I91797171I92845252I93423667I93344637I92908622
2215I92653030I92759375I92766440I92193415I91265810I90662412I90669186I90974745
2207I91264718I91557676I91991578I92548433I92991804I93040898I92668253I92198878
2199I92010808I92106300I92124364I91835120I91452060I91295456I91321022I91264061
2191I91094565I91004172I91008251I90826882I90254149I89546008I89312777I89954562
2183I91255249I92569702I93305158I93255263I92692800I92195309I92215049I92737814
2175I93371514I93741391I93756905I93563226I93350682I93243171I93290954I93483322
2167I93705991I93700310I93204786I92270333I91340907I90857547I90862573I91151671
2159I91601015I92081462I92311852I92144322I91827909I91731543I91913203I92102367
2151I92056260I91837014I91654844I91509165I91213220I90780629I90483155I90476526
2143I90644566I90820544I90907952I90827173I90586149I90371638I90393708I90639540
2135I90867089I90865049I90704221I90667729I90912831I91290430I91576687I91783914
2127I92083720I92468237I92694767I92646110I92542314I92630085I92818374I92811091
2119I92527455I92190866I92005345I91939207I91932943I92141116I92675828I93194078
2111I93163193I92615955I92199388I92335452I92781518I93160062I93422647I93558638
2103I93349225I92746045I92115259I91812759I91814070I91962006I92257077I92680199
2095I93041479I93238728I93393147I93520179I93373626I92876791I92403992I92331081
2087I92566278I92807157I93012636I93337717I93811316I94318859I94754145I95043462
2079I95131670I94994149I94604169I93940023I93072437I92182927I91503557I91238277
2071I91433413I91900967I92382141I92741384I92946571I93009723I93035435I93160936
2063I93388266I93624994I93891002I94340638I95033920I95739948I96085351I95997143
2055I95842142I95929184I96092707I96010764I95649919I95164739I94721440I94607010
2047I95048633I95745994I96020160I95593906I94929833I94695874I95101369I95857001
2039I96625453I97308100I97884330I98195207I98080048I97635220I97133432I96703828
2031I96314066I96052428I96121479I96492012I96856498I97037285I97137220I97218435
2023I97151642I96893282I96703900I96941064I97615408I98234103I98267609I97717747
2015I96965246I96275170I95860788I96080325I97049886I98340229I99425458A000096889
2007A000271484I99929577I99394575I99130752I99145829I99033657I98618329
2000I98119017I97704345I97338693I97087908I97145014I97503236I97929199I98243208
1992I98379563I98343653I98322675I98568944I99000297I99242487I99146995I98903931
1984I98661522I98431133I98299367I98400467I98753518I99317220A000018221
1977A000648425A000983850A001054576A001097697A001261438A001447252A001405005
1970A001007158A000479366A000190486A000192016A000217874A000114152I99977141
1963I99884053I99738666I99441410I99138254I99185818I99776033A000702181
1956A001611431A002286940A002606412A002510775A002105862A001600505A001186561
1949A001040737A001248109A001662054A002021660A002183727A002161948A002021150
1942A001760168A001294581A000613827I99897017I99393336I99299884I99716887
1935A000502237A001213584A001408283A001018740A000376809I99897383I99722132
1928I99670562I99536756I99279853I98927748I98568361I98400394I98478478I98493774
1920I98088716I97279547I96407591I95763548I95318793I94787287I93966973I93013365
1912I92351112I92324817I92879778I93575172I93972945I93956047I93599427I92923263
1904I91894630I90498087I88765901I86900931I85262708I84006598I82902577I81725206
1896I80647626I80004603I79823088I79886748I80181529I80895206I81977667I83068650
1888I83929389I84624201I85234300I85698504I85992919I86223527I86447799I86535497
1880I86316689I85834640I85363663I85175883I85337440I85700470I86063573I86338030
1872I86531709I86595079I86488589I86459890I86981709I88260544I89986757I91634958
1864I92836803I93466132I93650123I93763097I94138364I94651150I94802437I94358265
1856I93668479I93206825I93081105I93126702I93179438I93127285I92965728I92917436
1848I93272453I94025317I94822905I95323163I95503659I95591356I95767627I95974126
1840I95974053I95572856I94759826I93634317I92232239I90483883I88334986I85822257
1832I82996612I79845012I76319166I72369177I67949231I63103177I58024693I52900394
1824I47768009I42708828I38087263I34394761I31938774I30790248I30820257I31682162
1816I32977167I34475685I35953662I36917614I36818043I35457117I32926253I29332956
1808I24903906I20189472I15811263I12011978I08667428I05717956I03383027I01900025
1800I01283224I01490160I02624628I04759322I07670698I10906282I14050306I16889936
1792I19451321I21895872I24296647I26538487I28491010I30185465I31768402I33342965
1784I34896622I36360978I37725690I39076781I40550825I42291970I44385801I46759043
1776I49200826I51494819I53469704I55008647I56136778I56995623I57654889I58060894
1768I58117417I57671715I56600908I55106105I53711821I52791354I52249504I51719236
1760I50876051I49536759I47608273I45011925I41709913I37867216I33908196I30335951
1752I27556267I25837411I25268975I25718683I26931818I28687822I30867020I33441006
1744I36392516I39574928I42704457I45561132I48115305I50440182I52613626I54668707
1736I56482399I57824459I58717101I59586289I60805469I62236684I63434521I64148490
1728I64474226I64706801I65192492I66133063I67379339I68552848I69479944I70355323
1720I71368442I72379156I73171791I73819694I74494912I75115136I75518737I75810094
1712I76181937I76602510I77002687I77534048I78314591I79138547I79743329I80180873
1704I80676397I81267340I81790689I82126186I82291385I82381631I82509392I82746119
1696I83070981I83435176I83844531I84295624I84688008I84927430I85047395I85130942
1688I85208370I85315152I85493025I85655601I85659753I85594781I85763476I86285076
1680I86923365I87376788I87575929I87644107I87687010I87705875I87717456I87838442
1672I88095709I88245685I88034961I87594504I87325509I87426027I87741056I88040425
1664I88273364I88539809I88903203I89303891I89632468I89795336I89711279I89396032
1656I89094041I89159232I89681051I90322326I90673774I90715875I90764168I90990479
1648I91215041I91180297I90826736I90301276I89881796I89822650I90111093I90467276
1640I90689434I90859878I91130694I91448345I91601161I91488041I91262095I91171047
1632I91309805I91603419I91995730I92490089I92979057I93218916I93114392I92919329
1624I92993407I93405311I93877236I94080602I93930991I93641163I93497817I93572623
1616I93723400I93836154I93904842I93936162I93979939I94150673I94452081I94739286
1608I94959915I95198682I95439706I95571326I95657203I95920735I96418881I96920742
1600I97149093I97059064I96881118I96900129I97160528I97425590I97462883I97288288
1592I97063069I96870920I96739519I96791089I97134889I97579353I97695895I97338328
1584I96914187I96917173I97350711I97860073I98239712I98531068I98822861I99214954
1576I99770570A000304334A000452125A000124713I99665026I99429464I99406228
1569I99402951I99490649A000014435A001074170A002200772A002807375A002858071
1562A002788874A002858290A002940088A002913866A002853555A002784941A002595414
1555A002310103A002206016A002451848A002801184A003007172A003468754A004852330
1548A006903406A008381383A008528154A007860292A007184419A006661872A006176982
1541A005838718A005770904A005925178A006274004A006825177A007408982A007711337
1534A007556626A007018055A006287115A005606070A005321269A005723778A006691736
1527A007706238A008341686A008535802A008377377A007953381A007472934A007234532
1520A007304312A007398274A007219382A006804563A006446122A006364324A006559606
1513A006894957A007229652A007508553A007738797A007893653A007957168A008043046
1506A008254570A008470975A008490496A008342341A008250564A008341467A008554011
1499A008791030A009010348A009142405A009021201A008518612A007781699A007225864
1492A007166209A007485608A007832104A008117559A008537040A009041815A009221217
1485A008917988A008548330A008541192A008807054A008981941A008891693A008643094
1478A008505501A008711854A009134757A009282329A008901017A008350281A008022141
1471A007749941A007305186A007094681A007688975A008888998A009863876A010085307
1464A009715139A009241831A009024333A009102271A009312994A009561448A009853678
1457A010098418A010123474A009942906A009811359A009966506A010377755A010739765
1450A010752731A010453654A010183275A010216417A010568812A011142127A011838033
1443A012504437A012922096A012906873A012420454A011640930A010930749A010633493
1436A010819816A011212564A011387887A011138705A010665615A010386350A010559197
1429A011080069A011564740A011664239A011423214A011265882A011481558A011857408
1422A011974096A011717994A011341416A011144168A011245414A011617039A012210459
1415A012961575A013693826A014182940A014402040A014544440A014737682A014880374
1408A014817586A014589163A014505034A014882049A015596017A016081999A016004280
1401A015655745A015400736A015057737A014309316A013404218A012881816A012890921
1394A013153214A013292264A013091447A012670947A012463719A012821141A013602777
1387A014326069A014641899A014403715A013584567A012497881A011707723A011406316
1380A011387377A011675747A012462773A013402761A013694190A013122768A012433929
1373A012404429A013050293A013824936A014230577A014137051A013712691A013242005
1366A012999961A013139084A013599207A014151765A014562723A014731345A014715102
1359A014623689A014510424A014449239A014636654A015205017A015957809A016485236
1352A016546130A016238602A015862463A015685974A015818395A016266209A017004142
1345A017853955A018495521A018798459A018904949A018844347A018477894A017903048
1338A017453704A017227685A016991395A016528284A015881109A015376189A015423826
1331A016043249A016660560A016672140A016107857A015505770A015302112A015592885
1324A016328778A017396234A018463399A018992720A018682208A017911497A017529164
1317A018049091A019144153A020033153A020334197A020361585A020528604A020810273
1310A021140525A021894774A023266114A024493161A024623834A023780504A022817935
1303A022170396A021904534A022272517A023269173A024237496A024641461A024648745
1296A024593533A024569860A024710440A025085925A025252216A024578601A023119853
1289A021809916A021707504A023071780A025193581A027133430A028372204A028654674
1282A027878938A026543798A025586912A025290384A025062689A024703301A025080098
1275A026838432A028934303A029461366A028202562A027206197A028125498A030364789
1268A032517474A034076812A035034646A035256878A034828511A033910885A032251466
1261A029943342A028322236A028757012A031044523A033765498A035655817A036149010
1254A034878406A031928425A028919735A028030880A029355677A030959884A031575447
1247A031442224A030994482A030515930A030516585A031028425A031126030A030094337
1240A028566830A027823945A028238836A028999421A029375635A029529835A029864020
1233A030254292A030217290A029411034A028039912A027032840A027306132A028545488
1226A029345479A028818706A027495003A026500095A026322440A026550864A026574463
1219A026293378A026077337A026264461A026883447A027600037A027803622A027149090
1212A026211215A026130363A027312105A028887103A029784043A029920762A029970220
1205A030414829A031258524A032227793A032835198A032676409A031946197A031274767
1198A030941019A030631380A029961843A028973272A028101607A027641993A027332281
1191A026847974A026583568A027299940A029039846A031064772A032726231A033696811
1184A033676125A032719311A031465460A030424080A029891699A030707569A033360732
1177A036178510A036428421A033680276A030672607A030492476A033448211A036884466
1170A038123968A037358211A037044857A038629908A040909114A041885740A041330925
1163A040848075A041739334A043285852A043387244A041041099A037659473A035619543
1156A035829320A037037282A037814256A038560419A040360709A042690466A043914818
1149A043396422A041863597A040241617A039128417A039072915A040365298A042374927
1142A043687778A043403269A042047516A040961559A040957043A041645517A042016778
1135A041550098A040833435A041122678A042921074A045002960A045553259A044216517
1128A042364876A041555124A042328966A044070766A045337073A044854296A042984007
1121A041646246A041927914A042606847A042051595A040405141A038995414A038526404
1114A038659481A038884845A039199436A039881647A040836275A041450236A041258887
1107A040598310A040224209A040361875A040477762A040032278A039257489A038789644
1100A038740769A038723433A038606235A038678200A039135629A039727447A039915517
1093A039404260A038495666A037912516A038183259A039053540A039814344A040183783
1086A040502818A041075042A041716317A042131645A042182632A041781580A041145768
1079A040899063A041379800A042229978A042934841A043343759A043647353A044084897
1072A044585738A044778397A044575686A044363506A044333496A044254466A043941914
1065A043509177A043214470A043292408A043825880A044733091A045889484A047137071
1058A048170366A048522251A047922203A046858170A046158551A045991531A046022488
1051A046179748A046574025A046888981A046759619A046589758A047059352A048081356
1044A048968099A049412927A049816892A050654906A051687618A052017870A051299385
1037A050291949A049665606A049518689A049771295A050248318A050719732A051120784
1030A051501951A051841017A052083935A052205212A052126618A051789884A051333037
1023A051030609A051080213A051456717A051892587A052116858A052068202A051777865
1016A051293340A050795194A050526563A050537562A050727599A051131710A051964406
1009A053208934A054292633A054684070A054675548A054906375A055548597A056348515
1002A057104074A057887313A058774274A059637416A060305496A060774944A061211541
995A061717845A062225023A062655211A063102734A063770158A064693466A065617647
988A066292283A066832093A067433743A068124476A068987764A070139422A071523000
981A072829804A073612461A073741822A073542826A073358325A073288546A073301438
974A073216653A072390732A070048519A066330013A061951658A057247276A052232891
967A046484652A038824242A028581179A016564194A001752083I78170370I40819820
960H98234182H60953630H27587667G96375408G69215113G46848865G28841670
953G15696990G07338200G01930848F97509591F94757805F96974078G05110054
946G17805462G34122355G53147621G73857582G95914556H18133013H37642150
939H53941270H69807287H85961313H99076273I08803564I17526548I25262711
932I31376238I36600910I41566493I46054835I49834671I53196994I56489756
925I59581336I62339532I65053806I67926214I70917641I73973311I77032041
918I79901536I82574728I85339917I88237964I90918950I93273910I95380561
911I97196584I98765100A000293408A001855586A003432917A005063055A006689478
904A007970352A008837355A009783462A010996742A012377041A013632641A014585230
897A015410205A016248509A017127822A018110421A019194630A020057627A020302658
890A020160476A020034609A020014798A020041530A019973717A019666336A019086100
883A018299293A017465577A016620061A015146528A011388470A003497161I91857773
876I77969917I62162242I45506211I31422855I23729377I23418645I28467046
869I36092420I44428630I52816046I61337996I70183132I79217941I87928471
862I95663102A002004470A006921179A010554900A013006881A014421925A015105155
855A015335326A015155632A014483984A013148043A010447025A005166486I97661151
848I90335947I84081987I78657008I75224468I75550494I79114437I84007035
841I88758763I92549744I94785320I93903822I88829198I83141925I78986094
834I75979954I74664335I75781322I79017925I83247834I87524360I91463204
827I94812416I97342553I99305638A001330344A003493737A005518881A007467617
820A009426405A011108841A012017872A011842330A010089531A006055559I99942324
813I93023271I86374013I81223127I79020474I79403171I80564007I81115617
806I80868692I80464654I80515350I81392988I83912927I89829716I98522691
799A005927945A011050060A014635343A016462074A015420912A010797600A004162108
792I98558237I95477072I95142886I97986596A003818745A010609602A016340651
785A020370617A022624912A023064277A021718794A018644914A013760473A006692537
778I96275461I80809401I61499188I43144842I27952439I14821162I03232979
771H95044706H92471521H94973541I00680117I08916829I19618050I29869635
764I36024461I39030747I41331223I44624422I49680398I55430968I58699037
757I56306711I47028765I32176520I15138011H98423126H82018316H67242844
750H59111676H59956026H67989880H80955450H95698145I08263463I16472423
743I20003659I19114076I14283974I05467536H92619748H79005548H69749746
736H66082445H66978511H72069523H80853475H91414262I00761769I06031674
729I05763699I01506257H97307524H96654229I00990338I09610256I20357366
722I31268290I40887050I48305415I53892607I58684105I63112792I66599815
715I68328504I68126958I66319676I63521710I60704296I58742813I57672225
708I56525884I54061885I49961630I45024672I40222248I36388948I34209094
701I33742560I34394833I35421937I36360614I37263381I38537481I40578431
694I43560680I47384001I51790545I56593552I61744583I67122290I72289856
687I76472492I78749440I78196883I73932522I65683864I55003038I44990365
680I37858985I33693976I31268363I29052162I25837047I21174911I15520562
673I09899573I05305323I02241130I00638380I00058071H99909625H99573837
666H98590219H96932330H95103268H93851457H93635270H94226432H94700541
659H93923859H91409236H87786514H84254476H81482512H79040948H75752484
652H70358826H61952690H50280161H35943980H20128002H03846145G87341400
645G70011462G50759011G28676762G03852051F77694675F52451796F30372752
638F13218939F02282011E98545587F02555522F14014633F31583920F53157169
631F76316562F98715951G18526423G34877914G47904448G58303606G66802028
624G73939745G80198148G86123094G92201076G98629120H05276558H11900686
617H18384818H24756486H31013870H36996213H42456737H47227622H51258535
610H54501402H56854103H58277596H58878154H58760810H57852799H56043696
603H53591278H51342664H50425693H51617048H54991609H60144534H66583797
596H73822614H81319863H88646379H95709653I02599134I09178612I14968369
589I19391302I22001562I22542683I20958215I17395002I12175502I05745562
582H98558753H90972421H83375381H76441323H70972712H67238620H64530100
575H61527019H57197685H51528039H45651967H41429707H40730671H44664198
568H52993051H63988177H74870112H82746343H85662090H83237934H76599455
561H67788700H59067827H52383607H48952086H48951140H51556883H55455739
554H59509814H63036608H65636015H67068468H67493993H67686361H68737647
547H71384982H75501845H80065065H83578383H84767991H83253740H79892655
540H76630122H75767052H78780184H85443864H94107048I02857349I10355473
533I15689112I17794014I15283107I06927886H92413614H72773804H50141038
526H27039480H05744840G87896142G74222724G64400452G57171759G50766513
519G43644748G35409420G27318532G21875344G21683340G28256626G41359059
512G59141983G79007448G98712012H16992718H33391846H47749222H60006358
505H70304998H78977650H86321137H92401376H97071598I00121004I01432763
498I01174985I00021943H99098708H99478491I01628336I05304304I09817338
491I14352224I18311099I21593736I24494624I27283048I29989819I32580996
484I35115576I37658023I40201125I42747432I45315737I47786729I49856086
477I51258602I52035867I52541079I53161449I54033478I54970406I55527916
470I55107489I53262914I50193986I46967799I45098822I45694646I48739390
463I52972140I56203207I55654656I48806038I35151121I17101096H98337759
456H81822089H70300700H67074295H73720275H87492317I02953496I16079165
449I25845861I32722158I37075019I38999791I38980998I38338922I38660215
442I40528245I43097423I45084909I45829179I45286820I43482087I40261144
435I35422301I28900220I20842547I11513031I01125965H89891781H78354659
428H67621680H59020555H53346029H50410543H49373096H49513967H50660599
421H52909869H56159073H60093037H64524273H69517316H75182883H81528766
414H88486133H95895611I03409396I10512805I16755621I22075129I26920382
407I31946859I37515112I43516831I49608287I55471466I60898193I65793268
400I70099731I73673797I76353327I78216768I79606100I80751494I81487897
393I81464370I80545214I78914494I76905301I74778547I72559506I70077515
386I67278675I64406340I61743418I59335432I57121999I55098894I53123791
379I50740862I47409859I42829230I36943252I29727453I21071480I10877437
372H99303459H87057249H75530835H66453415H61078403H59591613H61295464
365H65110700H69759870H73963193H77052151H79378047H81955894H85916516
358H92262254I01493001I12991736I24969243I35310347I42555866I46194467
351I46224477I42490310I34316750I20701749I00978174H75701351H47484744
344H21289493H03507589G99592853H11185843H34774841H63275447H89607927
337I09705821I23083003I31339600I36411381I39823382I42790407I46302049
330I50825064I56074792I61237988I65332926I67345323I66461130I62661918
323I57060159I51378276I47036559I44607741I43717211I43382006I42934483
316I42843871I44320173I48049022I53534603I59555333I65022631I69576601
309I73632206I77857308I82541878I87319755I91082910I91993108I88064607
302I78358513I63839798I47021117I30751716I17421006I09100966I07589556
295I13520183I25507012I40445937I54016797I60485706I54082498I33683924
288I06202919H82436777H68035333H59508940H49160625H32541377H11394382
281G91524619G78553078G74261693G75729910G77835468G76690293G71077462
274G62047096G52588145G47417665G51397299G66698524G90966964H18419052
267H43372616H63340055H79082612H92001272I01901773I07456332I08167898
260I05028608H99412645H92062894H83254833H73582390H64437157H57643532
253H54386606H54452308H56685116H60182993H65047985H72193350H82294304
246H94317991I04846583I09301783I04124675H88201914H63684730H36153465
239H12436563G96439871G86416781G76314443G60202884G36191056G07396180
232F80362261F62477653F59360651F72774836F99595628G32677738G64273057
225G89926604H09600793H25831372H41141410H56418671H70879915H83381281
218H93682834I02234721I09038616I13591565I16034369I17442493I18767435
211I20273528I22274562I25693336I30692206I35787152I40324660I44604755
204I48636906I52202740I55241732I57680966I59354370I60300475I60767957
197I60954425I61050864I61506691I62862225I65106323I67424135I68683667
190I68027533I65250181I61057784I56758386I53322277I50958796I49727962
183I50048527I51956108I53639200I51385269I42538748I29371342I18791909
176I16948717I24591791I37562967I50337989I59161274I63484271I65138882
169I65298473I61695417I50402743I32368451I16609943I13428406I24487048
162I41781659I55285727I59063014I51596283I34521208I12722159H93802072
155H84733902H87464201H98138763I11175932I23033982I32384039I39166155
148I44406633I49649150I55629527I61854643I67552768I72350822I75994886
141I78135262I78496616I76725680I72258972I65183387I57272849I51530073
134I50257793I53216442I57788767I61507273I63934343I65358929I65010540
127I62299689I58767068I56922711I57656492I59954781I62621711I65322510
120I68173211I71057710I73707230I76169919I78572004I80399463I80626575
113I78615854I74646199I69760884I65105377I61101414I57292005I53096039
106I48212764I42123857I34149147I24692527I15984110I10561971I09283937
99I11526287I16337088I22623971I29008896I34293660I38018940I40318469
92I41412147I41506182I40866655I39468218I36841133I32843289I28372573
85I24583414I21575672I18803198I16513722I15446703I15419024I15657135
78I16502214I19334851I24512615I30359478I34544736I36624218I38656136
71I42470061I46968892I49907510I51503122I53656681I57047047I60812389
64I64162694I67031314I69581918I71774883I73384262I74494766I75673011
57I77173859I78545491I79378260I79885584I80128211I79303308I76701206
50I73044468I70201852I69849966I72835201I78933140I85985926I90617033
43I91713260I91351322I91367275I91469541I91161650I91372301I93445956
36I97556991A002497518A006649416A008780468A008347586A005058976I98728316
29I90715074I84271514I81562410I81083203I80343523I79338198I79553656
22I81372811I83951677I86558077I88728754I89929796I90408786I90599697
15I89799123I88551390I89399310I92946353I95881329I95027000I91464661
8I88938166I89407176I92427373I96933926A001605968A004502412A002711737
1I96688968
$$ === CHEMSPECTRA INTEGRALS AND MULTIPLETS ===
##$OBSERVEDINTEGRALS= (X Y Z)

##$OBSERVEDMULTIPLETS=
##$OBSERVEDMULTIPLETSPEAKS=
$$ === CHEMSPECTRA SIMULATION ===
##$CSSIMULATIONPEAKS=
##END=


$$ === CHEMSPECTRA PEAK TABLE EDIT ===
##TITLE=JPK-938,X16515
##JCAMP-DX=5.00
##DATA TYPE=INFRAREDPEAKTABLE
##DATA CLASS=PEAKTABLE
##$CSCATEGORY=EDIT_PEAK
##$CSTHRESHOLD=0.93
##MAXX=3997.453
##MAXY=0.8786496545664058
##MINX=373.96442
##MINY=0.48979360073747463
##$CSSOLVENTNAME=- - -
##$CSSOLVENTVALUE=0
##$CSSOLVENTX=0
##NPOINTS=47
##PEAKTABLE= (XY..XY)
382.46361135264897, 0.8096380858097217
392.3793345973713, 0.8089377907687014
407.96118541050646, 0.802221241821354
441.9579508209831, 0.7939222489551936
485.870439476153, 0.7490931178622903
514.2010773182169, 0.7440727377645456
549.6143746207972, 0.7830558447474709
562.363161649726, 0.7776019006256842
592.1103313838935, 0.7239832904408265
604.8591184128222, 0.7474641826916216
621.8575011180606, 0.7503448752200684
633.1897562548866, 0.7771683366016422
698.3502232916339, 0.5395589491292815
730.9304568100074, 0.6991499089682598
757.8445627599685, 0.6116165541040829
767.7602860046909, 0.6335831902600982
791.8413281704452, 0.7426862151854206
820.1719660125095, 0.7715350418419324
857.001795207193, 0.654311837879466
892.4150925097729, 0.7034091979613974
973.1574103596558, 0.695047321532381
1001.4880482017197, 0.7678486138742517
1015.6533671227521, 0.7095323234835867
1032.6517498279904, 0.7733802823612258
1075.1477065910867, 0.7357381011143121
1102.0618125410474, 0.5905579948597084
1136.0585779515245, 0.7166456609533456
1161.556152009382, 0.6947020322961365
1179.971066606724, 0.6879751710533005
1223.883555261923, 0.6959086682467382
1273.4621714855352, 0.48979360073747463
1310.2920006802187, 0.7312673355977902
1365.5367444722438, 0.7640873820764257
1400.950041774824, 0.7337377694644798
1415.115360695856, 0.7087206864196057
1434.9468071853007, 0.7030164625098918
1463.277445027365, 0.7303150325060215
1493.024614761553, 0.8146051197040708
1512.8560612509978, 0.8023203640769341
1519.9387207115137, 0.8011385825423673
1552.5189542298872, 0.7975739267292371
1570.9338688272287, 0.8008411560392701
1606.3471661297885, 0.7556392578042177
1716.8366537138386, 0.5685246610153594
2851.4786992885065, 0.7571533944262835
2922.305293893667, 0.7375257042321822
2949.219399843628, 0.7616714866853526
##END=


$$ === CHEMSPECTRA PEAK TABLE AUTO ===
##TITLE=JPK-938,X16515
##JCAMP-DX=5.00
##DATA TYPE=INFRAREDPEAKTABLE
##DATA CLASS=PEAKTABLE
##$CSCATEGORY=AUTO_PEAK
##$CSTHRESHOLD=0.93
##MAXX=3997.453
##MAXY=0.8786496545664058
##MINX=373.96442
##MINY=0.48979360073747463
##NPOINTS=100
##PEAKTABLE= (XY..XY)
3307.6019685457386, 0.8111364872207141
2685.7444679124314, 0.8110814724908543
427.7926318999216, 0.811073782866929
3474.7527318139173, 0.8109449176337168
3586.6587512900705, 0.8108949093015556
3435.0898388350274, 0.8108249334783443
3392.593882071931, 0.8106696042206836
3503.083369655981, 0.8106652532862991
3409.5922647771695, 0.8105131416088528
3555.4950496638, 0.8104286228467887
3401.0930734245503, 0.810427311101854
3565.410772908522, 0.8101404939394177
3521.4982842533227, 0.8100544244869908
2699.909786833464, 0.809978070784789
3687.2325156293978, 0.809882763472993
3545.5793264190775, 0.8098144561762458
3732.5615361767004, 0.8096363575469007
3467.670072353401, 0.809560838517084
3529.997475605942, 0.809514704865064
3758.0591102345584, 0.8094804914803334
3750.976450774042, 0.8094257746139523
3804.8046626739642, 0.8093867332222877
2718.3247014308054, 0.8093818454789967
3903.9618951211883, 0.8093687329394864
3861.465938358092, 0.8093482883758866
3800.555066997654, 0.8092668088032722
3673.067196708366, 0.8092569146622824
383.88014324472215, 0.8092542919907192
3708.480494010946, 0.8092442186406585
3820.3865134870994, 0.8091964156438681
3773.6409610476935, 0.8090910349820116
3831.718768623925, 0.8090772661608808
3769.391365371384, 0.8089907204542107
392.3793345973413, 0.8089377907687014
3699.981302658327, 0.8087619572110839
3813.3038540265834, 0.8085311089236066
3959.2066389132133, 0.8084281119878854
3639.0704312978887, 0.8084207210457451
3922.3768097185302, 0.808419766900646
3668.8176010320562, 0.8083800708639733
3994.6199362157936, 0.8081470761591761
3742.477259421423, 0.808096888617944
3850.1336832212664, 0.8079697524658591
2735.3230841360437, 0.8079346446723864
3895.462703768569, 0.8079087166385382
3937.9586605316654, 0.8078476218931667
3644.7365588663015, 0.807711485190528
3881.297384847537, 0.807629528545364
3981.871149186865, 0.8075001273215514
3869.9651297107116, 0.8073341879049236
3020.045994448788, 0.8072263032259114
3946.4578518842845, 0.8066036138956707
2756.5710625175916, 0.8065183791156291
3971.9554259421425, 0.8063975602878714
3031.3782495856135, 0.8061755922599276
1512.8560612509773, 0.8023203640769341
3055.4592917513683, 0.8017953666029309
406.54465351837325, 0.8013985780805195
1519.9387207114933, 0.8011385825423673
1569.5173369351055, 0.7980322870695697
1552.5189542298667, 0.7975739267292371
440.54141892885036, 0.7936342984385872
549.6143746207972, 0.7830558447474709
562.363161649726, 0.7776019006256842
633.1897562548866, 0.7771683366016422
1032.6517498279904, 0.7733802823612258
820.1719660125095, 0.7715350418419324
1001.4880482017197, 0.7678486138742517
1365.5367444722438, 0.7640873820764257
2949.219399843628, 0.7616714866853526
2851.4786992885065, 0.7571533944262835
1606.3471661297885, 0.7556392578042177
621.8575011180606, 0.7503448752200684
485.870439476153, 0.7490931178622903
604.8591184128222, 0.7474641826916216
514.2010773182169, 0.7440727377645456
791.8413281704452, 0.7426862151854206
2922.305293893667, 0.7375257042321822
1075.1477065910867, 0.7357381011143121
1400.950041774824, 0.7337377694644798
1310.2920006802187, 0.7312673355977902
1463.277445027365, 0.7303150325060215
592.1103313838935, 0.7239832904408265
1136.0585779515245, 0.7166456609533456
1015.6533671227521, 0.7095323234835867
1415.115360695856, 0.7087206864196057
892.4150925097729, 0.7034091979613974
1434.9468071853007, 0.7030164625098918
730.9304568100074, 0.6991499089682598
1223.883555261923, 0.6959086682467382
973.1574103596558, 0.695047321532381
1161.556152009382, 0.6947020322961365
1179.971066606724, 0.6879751710533005
857.001795207193, 0.654311837879466
767.7602860046909, 0.6335831902600982
757.8445627599685, 0.6116165541040829
1102.0618125410474, 0.5905579948597084
1716.8366537138386, 0.5685246610153594
698.3502232916339, 0.5395589491292815
1273.4621714855352, 0.48979360073747463
##END=

##END=

