##TITLE=JPK-133,  X8120
##JCAMP-DX=5.0
##DATA TYPE=LINK
##BLOCKS=1


$$ === CHEMSPECTRA SPECTRUM ORIG ===
##TITLE=JPK-133,  X8120
##JCAMP-DX=5.00
##DATA TYPE=INFRARED SPECTRUM
##DATA CLASS=XYDATA
##$CSCATEGORY=SPECTRUM
##ORIGIN=Angelika Moesle
##OWNER=
##XUNITS=1/CM
##YUNITS=TRANSMITTANCE
##XFACTOR=1
##YFACTOR=8.0203128e-010
##FIRSTX=3997.453
##LASTX=373.96442
##MAXX=3997.453
##MAXY=0.8611745278881922
##MINX=373.96442
##MINY=0.38161927702697857
##NPOINTS=2559
##XYDATA= (X++(Y..Y))
2559H96966543H97399291H98020211H98464924H98422266H97994423H97545101H97228733
2551H96924776H96634122H96580763H96818429H97076606H97143640H97109529H97127885
2543H97226058H97406946H97726435H98227927H98825139H99181564H98908597H98083975
2535H97288856H96893786H96654857H96273610H95876980H95677289H95605871H95490159
2527H95276795H95013638H94813056H94777755H94888265H95090705H95392358H95714894
2519H95898829H95979537H96123118H96300661H96359818H96332692H96370371H96429749
2511H96329644H96116132H96067083H96304972H96585147H96653147H96635386H96790039
2503H97113319H97374321H97364362H97057135H96706061H96631223H96736680H96574371
2495H96067603H95740756H95982584H96387910H96414367H96242397H96278069H96378322
2487H96122969H95539876H95324655H96086554H97214762H97689202H97566653H97469967
2479H97335230H96822293H96479989H96896239H97429836H97315090H96736011H95934352
2471H94928173H94463541H95481538H97095260H97646990H97328839H97315016H97789307
2463H98061753H97887777H97392900H96626913H96066265H97059365H99920350I01677801
2455I00836903H98920711H97308624H96396828H96061806H96130623H96513653H97206587
2447H98180215H99040510H99226229H98780995H98221759H97769539H97157686H96294865
2439H95653508H95563659H95699287H96045531H97438308H99668935I00806582I00543128
2431I00461379I01108012I01344861I00513624H99021188H97655908H97164523H97335973
2423H97079133H96521012H97147356H99042740I00098489H99569276H98648190H98192106
2415H98014563H97848835H97826912H98037824H98288718H98381838H98278017H97981268
2407H97642977H97749919H98671972H99911581I00484492H99965758H98674796H97456887
2399H97205769H97816432H98167879H97922112H97792577H97901823H97620236H96883308
2391H96371486H96369107H96316342H95786536H95078442H95157664H97043312H99818016
2383I01120497I00589353H99759528H99910912I00353025I00004403H99076703H98197308
2375H97772214H97968189H98783522H99916486I00697410I00591731H99773277H99049353
2367H99047273H99479055H99724896H99740353H99771419H99840534H99744516H99203413
2359H98252749H97777714H98965599I01270098I02649275I02207905I00528636H98781515
2351H98134882H98868317H99933356I00370415I00280120H99985749H99380883H98247101
2343H96853283H96249308H97439125H99559244I00692654I00269269H99188921H98611329
2335H98726149H98838814H98991683I00322629I02337217I02823325I01963476I01654466
2327I02211993I02065216I00851915H99630365H99175024H99331908H99399982H99080121
2319H98937209H99452450H99850343H99264948H98265308H98314060I00098117I02125190
2311I02658787I01779319I00526555H99849229H99902291H99988202H99542521H98902132
2303H98710914H98865344H98723918H98399747H98919373I00226611I00899404I00827539
2295I00716583I00632903I00371084I00212565I00307617I00086003H99370478H98794372
2287H98822018H99229945H99741692I00366402I00952912I01208043I01217779I01330295
2279I01528052I01331632I00580138H99801963H99529145H99652437H99637277H99191077
2271H98586357H98506542H99223851I00000464I00179643H99951341H99768000H99794383
2263H99950895I00177636I00448448I00615587I00465243I00005369H99597294H99697994
2255I00290078I00681209I00437077H99934545H99677854H99594619H99160607H98184823
2247H97097266H96439560H96464456H97126770H98127302H99046900H99639060H99966204
2239I00179494I00292308I00241400H99984783H99573587H99294377H99503431I00093435
2231I00488059I00399621I00158313I00092097I00009011H99634675H99142993H98857170
2223H98767543H98651311H98451696H98304697H98292062H98370912H98578035H99075885
2215H99800551I00263770I00061033H99420122H98916326H98797345H98805148H98641650
2207H98363333H98227481H98374555H98745323H99204751H99636162H99897164H99794085
2199H99245923H98495246H97980823H97934969H98229561H98643062H99073061H99407934
2191H99462185H99189442H98779063H98429624H98193741H98079887H98093339H98165129
2183H98230825H98313689H98332417H98058187H97576537H97465731H98093710H99013310
2175H99459659H99259077H98953411H99172720H99972298I00662927I00499429H99623454
2167H98959802H99141581H99831096I00199188H99863572H99156519H98566144H98202510
2159H97935414H97764411H97779720H97954663H98197606H98472356H98780103H99163654
2151H99670422I00146943I00199931H99616542H98790507H98425165H98717900H99180449
2143H99390915H99414400H99298836H98837846H98136145H97716848H97802610H98058930
2135H98130274H97988552H97807366H97811380H98154130H98779806H99453119H99886090
2127H99878659H99539401H99260043H99263982H99373822H99370255H99289398H99204454
2119H98989826H98496509H97858645H97482824H97658881H98200578H98634367H98790209
2111H98977787H99473853I00086672I00387358I00200526H99724673H99283081H99077446
2103H99132663H99340826H99525652H99583397H99586444H99590457H99400948H98862446
2095H98303359H98217894H98534262H98708313H98515311H98243013H98144989H98182891
2087H98284557H98492124H98837996H99274089H99759677I00301374I00817432I01024480
2079I00661738H99866025H99131772H98837550H98954748H99207798H99355763H99299208
2071H99056637H98730311H98488483H98504535H98834429H99356507H99859708I00183358
2063I00307320I00383568I00634166I01113288I01604153I01864486I01907441I01877566
2055I01744390I01386701I00928834I00686783I00772247I01013258I01240297I01381945
2047I01318552I00915754I00231516H99517626H99003203H98750079H98724142H98948506
2039H99513167I00358301I01099912I01273962I00839876I00277518I00077605I00314603
2031I00779382I01251667I01548267I01567143I01388931I01171479I00960121I00739622
2023I00572855I00594258I00903937I01440358I01947052I02216229I02340413I02529104
2015I02763872I02857140I02712741I02346507I01844049I01420961I01305547I01468747
2007I01667992I01793067I01961990I02257475I02576667I02760304I02713782I02406704
1999I01903577I01353333I00857043I00400216H99936254H99504398H99306788H99624271
1991I00499875I01571602I02391394I02790849I02839229I02696243I02598962I02708803
1983I02909533I02951076I02764392I02483250I02198987I01825024I01278570I00765336
1975I00705882I01257167I02038908I02461996I02272636I01748700I01420813I01589661
1967I02087958I02505991I02577484I02341973I02041361I01908482I01963997I02011188
1959I01877863I01610916I01361135I01126666I00723941I00064749H99390692H99073730
1951H99134446H99160607H98841786H98383250H98180735H98313243H98589257H98883107
1943H99207352H99562959H99848263H99889360H99575965H99005135H98395661H97756459
1935H96692015H94707154H91781884H88502270H85544300H83246118H81757844H81207823
1927H81495504H82254802H83174477H84118155H84980680H85730391H86529299H87602216
1919H89013126H90565907H91881320H92702970H93140548H93464571H93742815H93848568
1911H93726391H93501879H93387505H93524472H93889369H94289120H94392198H93880748
1903H92743473H91357905H90184215H89525764H89581131H90410362H91807598H93454985
1895H95172305H96832029H98131909H98535823H97246570H93204834H85524606H74446378
1887H61932269H50894321H43469744H40055839H39947781H42367473H46633572H51960474
1879H57651900H63244262H68257918H72192935H74956861H76951682H78607764H80058360
1871H81305847H82426103H83437039H84133390H84310859H84144166H84124844H84573942
1863H85313323H85813774H85591863H84515231H82907827H81437463H80739105H80970900
1855H81798124H82856994H84023549H85193152H86138020H86732259H87067430H87292832
1847H87565503H88059860H88776946H89426998H89707173H89671724H89719881H90175445
1839H90937121H91667360H92230759H92690782H92995854H93015250H92798393H92498598
1831H92148267H91731125H91372917H91281877H91500296H91816887H92000896H92048608
1823H92060945H92015983H91822386H91388375H90493225H88882848H86697330H84623363
1815H83509349H83819549H85324173H87229292H88729903H89531413H89855362H90037587
1807H90204205H90284469H90224866H90123795H90159244H90416084H90807587H91170626
1799H91427317H91603077H91725552H91833609H92044149H92427997H92851976H93110228
1791H93155264H93084737H92965830H92772159H92494436H92256845H92208687H92315332
1783H92464487H92742061H93264659H93806505H94000844H93870343H93806654H94116779
1775H94814988H95683904H96393706H96691421H96538253H96047612H95400830H94799753
1767H94344115H93995493H93741626H93674369H93884315H94378449H95004645H95436056
1759H95463999H95294854H95253161H95298495H95154840H94768614H94343669H94080661
1751H94084971H94370646H94808374H95178473H95372961H95496699H95702482H95950999
1743H96047983H95946912H95834023H95837369H95835212H95637678H95199505H94631276
1735H94155571H94035402H94382314H95008956H95530810H95619694H95224326H94637519
1727H94302869H94428093H94790463H95010219H94988221H94961690H95140125H95438509
1719H95642583H95687099H95642732H95543370H95406106H95341599H95462885H95701591
1711H95864123H95872075H95827782H95830085H95845395H95818343H95790251H95784901
1703H95676844H95337660H94869760H94543954H94510882H94656321H94736212H94623993
1695H94417689H94282580H94253076H94289938H94439687H94755906H95138862H95437542
1687H95619917H95696463H95605722H95318412H94967635H94782214H94900527H95239933
1679H95570867H95782002H95988901H96274650H96495224H96524579H96508972H96653667
1671H96897056H96984973H96772129H96321842H95795602H95363969H95200471H95405289
1663H95842868H96149277H96040328H95583873H95097690H94853782H94936868H95271890
1655H95693045H96034755H96219804H96290776H96374012H96571473H96836339H97001620
1647H96976947H96867329H96833441H96880706H96884645H96806241H96753476H96806389
1639H96889030H96837008H96506817H95897417H95265424H94964514H95053769H95237258
1631H95302508H95404843H95787502H96389470H96899509H97131527H97193581H97240253
1623H97229179H97058547H96806241H96648094H96646235H96773764H97022726H97335527
1615H97542575H97527117H97370382H97185332H96871490H96239497H95384777H94725808
1607H94598131H94952921H95487707H95928630H96174471H96282305H96310842H96190226
1599H95888053H95673574H95934204H96663478H97378780H97629228H97404865H97008086
1591H96715871H96607814H96579944H96463490H96183612H95832092H95595541H95581420
1583H95684647H95670898H95470836H95308751H95434124H95819458H96224337H96452417
1575H96462078H96341387H96280150H96498493H97087680H97893649H98607836H98991683
1567H98958241H98468714H97511436H96229094H94951880H94056210H93799445H94211533
1559H95075915H96047314H96821550H97229923H97293464H97233192H97325271
1552H97675602H98144023H98460168H98462546H98313838H98364447H98694044
1545H98989752H99026613H98992278H99168559H99585701I00128214I00689161
1538I01167912I01552503I01927730I02248705I02357431I02340636I02487560
1531I02800807I02992397I03013949I03149132I03542418I03989063I04179241
1524I03949229I03389770I02845026I02617541I02557047I02200028I01486285
1517I01056287I01541875I02755548I03892674I04417279I04444850I04342590
1510I04268199I04150332I03925076I03658129I03462674I03402256I03525845
1503I03815682I03994117I03654859I02826149I02127866I02089593I02596138
1496I03216240I03723677I04056766I04165046I04153453I04237134I04363547
1489I04204657I03665933I03065302I02641174I02195643I01472462I00639517
1482I00083774H99905115H99920127H99982182I00010869H99929714H99814226
1475H99832805H99890103H99648647H99046827H98527945H98591784H99208244
1468H99806571H99932464H99773203H99793937I00064303I00296022I00359416
1461I00427936I00768680I01500852I02367537I02843019I02684204I02174611
1454I01697421I01383654I01210940I01088913I00870718I00550114I00319656
1447I00265925I00191979H99868477H99350115H98991238H99152952H99820914
1440I00587272I01114849I01453438I01766313I02018545I02136561I02180631
1433I02166436I01968307I01542916I01029087I00565423I00206620I00017929
1426I00053378I00229138I00385427I00498389I00712274I01115814I01549604
1419I01702029I01407882I00878075I00608007I00931137I01628455I02155660
1412I02291289I02260745I02198913I02013194I01926318I02497370I03742554
1405I04841704I05168922I05076992I05219532I05664840I06121667I06403701
1398I06258262I05425390I04118672I02926403I02288762I02229234I02429073
1391I02558608I02488007I02202629I01839515I01695786I01864560I01996399
1384I01711839I01133949I00739622I00681581I00579766I00139214H99691231
1377H99785985I00308806I00520684I00174514H99867362I00057688I00427119
1370I00403337H99906007H99370032H99189367H99317713H99485893H99613124
1363H99730842H99683725H99320314H98858359H98697834H99015763H99702601
1356I00385427I00502922H99848932H99040139H98947465H99686697I00563639
1349I00950311I00908694I01000252I01682186I02895413I04171958I05038570
1342I05220870I04651526I03616883I02800807I02728794I03124161I03192756
1335I02587814I01748403I01303169I01489185I02074952I02543966I02493580
1328I02070196I01807485I02010668I02649572I03716543I05107090I06247783
1321I06493847I05951407I05403169I05507213I06372339I07558960I08205593
1314I07806510I07115287I07397395I08574578I09225074I08629126I07595152
1307I07048104I06927265I06682167I06028919I05100847I04286035I04014480
1300I04618158I06112526I07753374I08248474I07188935I05880804I05919376
1293I07327685I08779321I09125193I08148666I06429340I04943369I04313606
1286I04239289I04014034I03443872I02844729I02503093I02662949I03653076
1279I05556263I07952023I10078533I11090955I10536178I08956865I07578134
1272I07017263I06727054I05911424I04402564I02635675I01425495I01565954
1265I02850748I03794576I03400100I02909385I04274590I07140109I09574812
1258I10914452I11564206I11424787I10297694I09014831I08630984I08847173
1251I08612256I08044548I08402831I10223600I12611854I14484794I15517951
1244I15662200I14722981I12929782I11188236I10202791I09779109I09327930
1237I08663461I07964730I07362763I06934250I06712191I06490131I06065632
1230I05735440I06005064I06836449I07698453I08218672I08294031I07837575
1223I06967247I06259377I06280706I06876060I07353250I07437823I07514667
1216I07748617I07677273I07074190I06439150I06159123I05902357I05368389
1209I05035374I05539987I06680903I07629784I08001816I08172151I08399264
1202I08216889I07217472I06011306I05541028I05661942I05512936I05223768
1195I05919673I07808443I09570500I10045610I09440669I08589738I07903420
1188I07343069I06906307I06799514I07163742I07847087I08662420I09719730
1181I11087685I12298682I12740497I12467010I12065401I11626187I10650477
1174I09377128I09317451I11386588I14114546I15012594I13346628I10790342
1167I09668451I10985945I13862313I16424842I17087008I15374444I12348475
1160I10014100I09305188I09103566I08111285I06871973I06919015I08753013
1153I11608499I14404012I16334101I17290487I17864216I18379308I18331744
1146I17408727I16227827I15384997I14629192I13551520I12334280I11462466
1139I11305210I11859988I12483062I12474517I12226223I12933722I14986806
1132I17699678I20519343I23016918I24169577I23181977I20524694I17251694
1125I13983079I11161482I09303183I08241264I06848637I04341252I01502933
1118H99909574I00265256I02003682I04230966I06495705I08662495I10599124
1111I12177694I13189744I13147384I11696936I09420901I07508945I06608742
1104I06571508I07056651I07863140I08722394I09357434I09892889I10642674
1097I11371725I11302982I10003547I07992526I06318608I05667664I05864307
1090I06119734I06105689I06394188I07434479I08778727I09676254I09951674
1083I09872526I09667708I09545828I09718912I10145641I10504147I10545021
1076I10356628I10216614I10298735I10653226I11279200I11912010I12066887
1069I11706672I11329290I11203620I11141416I11047256I11074085I11118229
1062I10743597I09774799I08579557I07648215I07165005I06979955I06759531
1055I06299508I05816001I05708984I06124566I06819505I07359047I07347008
1048I06516439I04860357I02694385I00350052H97758912H94581111H90918838
1041H87756052H86544757H88060083H91204440H94098200H96185173H97865333
1034H99375309I00550262I01162264I01342854I01653277I02522638I03568874
1027I04178646I04493602I04964549I05519029I05770890I05691594I05634221
1020I05915140I06514805I07178754I07716735I08115149I08446975I08743426
1013I08906552I08787199I08437240I08189541I08304881I08581563I08602224
1006I08325987I08081930I08225659I08967344I10063892I10747536I10672773
999I10289519I10097930I10131001I10137838I10045239I09917785I09637089
992I08999449I08069593I07257307I07022093I07233080I07073967I06243845
985I05257136I04539828I04178201I04267827I04817476I05357018I05353228
978I04741598I03605884I02122068I00875251I00664042I01783257I03377805
971I04272285I04321261I03964539I03453014I02932274I02603941I02378909
964I01849548I01081258I00928982I02097470I03680053I04498061I04693069
957I04567845I04130489I03558099I03165630I02977608I02828156I02872598
950I03642820I05236030I06694503I07345521I07469780I07439235I07342177
943I07236126I07306951I07505452I07452910I07256935I07715398I09012826
936I09960815I10218992I10514849I10690906I10289371I09719581I09516993
929I09522418I09424840I09646974I10712532I11725549I11719678I11149442
922I10671138I10674928I11238400I11839180I11898708I11714178I11974957
915I12515911I12412462I11565618I10675448I10205318I09778961I08664724
908I06701638I04220264I01727891I00083031I00091131I00317873H99288952
901H97884953H97476878H98584872I00201418I01625334I03063964I04518870
894I05809684I07343069I09890288I12740646I14198525I14359273I14249581
887I14423036I14694443I14663750I14472755I14529607I14632537I14208260
880I13220437I12116828I11309076I10753853I10182577I09412131I08104596
873I05836957I02906560I00752553I00963837I03931765I08562836I13209884
866I16891628I19618620I21826433I23793384I25517615I26859559I27521650
859I26989762I24896621I21628600I18441066I16749385I17133382I19055519
852I21804955I25662162I31484312I38153158I43107360I46519184I50608482
845I56671421I63487712I69609434I74882902I78358415I77362493I65953256
838I33281672H85640615H56537070H49694471H52295644H57790651H63497090
831H68281328H71756768H74134469H76246413H78749041H81548641H84661413
824H87872655H89217794H87527675H82371257H72355764H58260855H45780263
817H39834151H41496402H49451751H59750096H68656852H76196174H83503478
810H89519002H93478692H96557427H99482771I01835279I03366509I04311377
803I05010255I06171534I08804218I12002157I13659726I14169615I14728926
796I16040995I18625223I22883742I28197490I33180155I37539447I41348125
789I41646731I32023780I11388818H87898072H69825340H60039784H57167428
782H58282184H61019506H64260104H67727889H71740121H76876102H82524425
775H86901479H89582766H91557595H93785027H96343914H97963358H96672024
768H90962389H81160855H72809024H74113958H81917254H88444302H92341343
761H95121843H97835607I00436483I02282445I03116729I03404411I03719367
754I04277191I05212472I06883418I09235628I11241819I12311911I12973333
747I13830135I14844340I15575768I15977082I16401803I16973896I17539525
740I18228593I19383182I20731519I21637965I22204187I22880992I23764846
733I24661928I25446716I26203933I27127918I28293507I29486520I30468621
726I31298667I32105158I32791253I33198584I33263390I32734029I31278603
719I29080228I26920796I25791845I26222290I27691465I29187095I30143260
712I30649954I31246498I32456009I34373613I36728648I39173532I41508501
705I43803116I46227786I48714882I50949226I52804033I54486721I56064027
698I57192681I57689045I57979922I58739517I60468505I63456647I67999057
691I74055827I79412827I78230814I64538035I39747780I14578508I00668724
684I01614335I12607544I26009817I36936587I44755490I50865247I56516320
677I62066768I67253285I71857676I76032662I80079749I84032081I87428894
670I89594717I90441263I91093173I93253720I97626538A003376527A009185524
663A014340753A018858862A023061866A027180446A031068345A034134818A035456845
656A033953558A029203283A022951728A019278901A021958108A031380773A044567676
649A057709764A067956830A073541390A073741822A069283168A062319506A055620562
642A051320426A049246457A045319245A032065458A002899412I57963275I05980242
635H59338230H26437229H08109441H00158849G97760635G97631770G98103460
628G98638841G99320552H00407142H02130109H04697394H08296349H13008128
621H18715756H25103832H31746964H38123669H43348979H46091949H45665963
614H43685412H43673150H48091971H56286844H65840903H75087363H83696331
607H91787829H99472516I06954613I14480781I22208125I30255776I38774821
600I47836752I57210368I66171897I73384744I77077487I75926092I70311806
593I62639306I56007695I52379756I51993159I54304124I59245914I67660246
586I80717390I98766117A020241829A041337409A056758060A061126271A050611887
579A024861082I88389516I49616125I17367035H96729620H86284276H78779437
572H66225197H46041636H22454575H02121861G89131230G83710243G83780547
565G86619832G89820372G91986270G93098723G94127421G96073191G99300337
558H03599582H08526435H13622730H18625609H23573940H28578007H33573827
551H38445239H43244861H48151350H53274326H58579007H64037747H69864208
544H76544350H84618086H94178239I03933920I10959637I13055899I11840071
537I10993451I09805715I01121984H78816818H46194730H14358470G92646058
530G82300745G78508714G76151970G73206412G70412237G69310114G70733659
523G74414956G79387217G84645747G89636586G94327780G98902072H03374847
516H07504723H11063398H14085652H16751332H19136539H21249449H23170621
509H24929112H26355703H27310231H27968013H28667857H29537739H30437645
502H31235142H32038064H33154976H34815740H36885471H38896121H40385436
495H41153280H41246548H40926464H40700391H41151422H42545091H44640833
488H46956034H49163104H51186461H53045355H54754723H56335819H57783516
481H59078938H60317210H61663241H63052376H64113179H64524747H64284405
474H63541532H62364274H60817661H59200446H58030101H57667062H57979416
467H58447168H58446499H57394987H54963331H51188615H45972670H38739312
460H29479549H19880231H12288813H07783189H06383278H08650767H15466909
453H26106369H37560048H45980919H48762237H46137208H41506658H39509980
446H42648836H49375205H55176175H54868874H43923970H19342695G81505700
439G35542799F89324989F49280405F18726227E99608968E93441243E99523726
432F13835120F31136923F47985652F63415890F77442576F89712999F99191031
425G03881704G00958069F89386673F73625426F62575958F62668855F72782521
418F86899130G00092646G10742214G18912785G24999802G29846764G34703610
411G40398900G46824136G53370507G59528051G64970664G69563238G73512598
404G77147151G80480942G83329591G85761990G88064780G90319338G92325156
397G93949951G95335371G96673971G97965825G99131340H00208641H01310392
390H02533206H03927246H05378808H06632537H07626826H08614946H09807662
383H11111852H12305460H13283919H14095090H14859887H15668754H16517381
376H17337173H18092235H18853614H19782801H20993278H22399358H23710459
369H24585544H24726078H23698198H20865973H16088126H10615340H06672371
362H05723416H07347096H09885174H11985004H13551980H15374310H17936393
355H20816106H23233642H24814218H25760795H26597531H27751676H29184807
348H30515752H31533971H32365951H33150219H33835572H34363446H34854978
341H35476493H36179756H36752890H37162005H37663869H38448434H39287698
334H39762583H39860682H40081925H40772553H41637382H42181754H42363757
327H42514026H42860343H43408507H44114074H44965673H45928154H46879859
320H47650602H48148080H48477454H48942753H49808696H50929770H51765020
313H52002166H52012719H52419828H53360831H54439171H55310317H56017445
306H56755488H57620539H58682010H60023583H61631731H63389182H65009369
299H65826040H65078335H62788625H60154009H58682976H58641805H58488860
292H56808996H55089373H56929539H63492928H71221907H74705522H69974866
285H54819973H28699442G93201504G50272375F99616274F40653006E78219575
278E23759218D88465392D75815952D81487090D98683437E21970257E47542402
271E72646870E95677296F16130739F34119937F49988201F64123984F76842614
264F88374696F98889155G08546961G17576935G26142725G34112863G41214606
257G47407896G52950168G58225791G63515832G68705099G73374071G77414395
250G81185171G84838228G88015879G90479045G92579544G94870740G97496364
243H00093004H02217135H03865489H05531530H07577925H09691950H11281518
236H12245783H12965767H13701804H14468905H15395788H16749548H18579830
229H20578366H22334998H23710312H24939962H26276406H27642801H28839307
222H29889407H30967229H32215533H33681066H35122372H36085671H36519014
215H36961721H37798383H38710105H39129922H39001205H39050552H40505012
208H43479480H46377847H48691190H51044663H53810820H57141267H61595984
201H67743272H74188275H75719058H65398568H41742986H13628675G94501384
194G90704969G97841715H08081201H17096684H24157849H29600760H33801237
187H37155465H39919765H42140806H43893203H45415143H46951649H48650093
180H50706298H53411813H56910736H61036971H65502760H70152410H74945863
173H79845219H85033519H91237808H99346622I09587223I21401933I33941682
166I45918776I54193094I52049937I30365840H84632281H23475767G67167626
159G32958347G22973100G28121492G39058444G50921163G61871120G71237083
152G79014517G85635205G91524464G96671295H00724699H03655840H06062451
145H08610190H11324994H13576877H14870515H15581506H16542129H18016135
138H19602730H20967341H21987641H22535209H22834484H23478071H24475035
131H24988789H24568823H23953551H24186387H25518744H27437092H29261577
124H30573422H31397004H31950072H32141216H31818159H31670788H32897466
117H35372301H37225324H37102329H35810326H35024794H35192156H34449580
110H28754436H15187849G97911871G87477749G90018948H01428185H13372505
103H21338704H26288075H30261216H33244528H34568561H34771298H35141918
96H36229250H37408218H37865640H37816293H38533156H40831933H43632424
89H44868244H43369342H39208921H33461534H28456351H26855412H29109449
82H33043203H36646988H39612166H42101566H43762925H44378717H44462175
75H44930224H46354734H48284973H49656643H50236317H50880645H51893960
68H52575076H52746600H53087121H53877707H54578517H54646145H54162713
61H53873025H54645254H56213345H57219375H57098536H56638884H56689569
54H57151895H57396324H56635763H53099829H43046880H21377646G83769622
47G28670101F61171514E98522303E64224289E68465492F01078849F44245421
40F84815724G17581171G42734317G61978211G76585388G88115018G99209447
33H11547499H22673960H29716174H33966147H37519991H40847242H43369936
26H45159046H47790838H52519115H57626707H59996085H59994896H62268257
19H70811231H82696543H89431308H89341384H88604605H92380954I02293890
12I17600093I36895564I58528605I75605785I70522420I27881270H55266768
5G79178311G25454994G07210739G20969288G45144346
$$ === CHEMSPECTRA ===
##$OBSERVEDINTEGRALS= (X Y Z)
##$OBSERVEDMULTIPLETS=
##$OBSERVEDMULTIPLETSPEAKS=
##END=


$$ === CHEMSPECTRA PEAK TABLE EDIT ===
##TITLE=JPK-133,  X8120
##JCAMP-DX=5.00
##DATA TYPE=INFRAREDPEAKTABLE
##DATA CLASS=PEAKTABLE
##$CSCATEGORY=EDIT_PEAK
##$CSTHRESHOLD=0.93
##MAXX=3997.453
##MAXY=0.8611745278881922
##MINX=373.96442
##MINY=0.38161927702697857
##$CSSOLVENTNAME=- - -
##$CSSOLVENTVALUE=0
##$CSSOLVENTX=0
##NPOINTS=31
##PEAKTABLE= (XY..XY)
376.7974837842062, 0.5672051342299159
434.8752913604376, 0.4525255287137599
491.5365670445658, 0.6631639044612874
524.1168005629397, 0.6315817870019887
596.3599270602031, 0.579847040798568
647.3550751759185, 0.6341701183894303
671.4361173416728, 0.6729052103676924
763.5106903283813, 0.38161927702697857
784.7586687099292, 0.6858084243415874
885.3324330492569, 0.6462153826604524
968.9078146833463, 0.5314066436919662
987.3227292806878, 0.47595843972808105
1005.7376438780293, 0.6733132638321744
1018.4864309069585, 0.6467446126249359
1116.2271314620793, 0.6170107754483659
1175.721470930414, 0.628560129342401
1211.1347682330174, 0.7667480753106996
1240.8819379671618, 0.676652256396132
1264.962980132916, 0.6397256294617656
1294.7101498671059, 0.8271996415365794
1342.8722341986145, 0.7223644895656867
1481.6923596247066, 0.6874750894531478
1529.8544439562156, 0.6735732591142433
1555.352018014073, 0.6814815441850529
1579.4330601798479, 0.7393164079689923
1606.3471661298086, 0.7224317230458578
1651.6761866771108, 0.7220830960890674
1847.1575877873515, 0.7120081227133066
1954.8140115871943, 0.7220408956092077
3039.877440938233, 0.6736643947306209
3103.6213760828846, 0.7067562382267034
##END=


$$ === CHEMSPECTRA PEAK TABLE AUTO ===
##TITLE=JPK-133,  X8120
##JCAMP-DX=5.00
##DATA TYPE=INFRAREDPEAKTABLE
##DATA CLASS=PEAKTABLE
##$CSCATEGORY=AUTO_PEAK
##$CSTHRESHOLD=0.93
##MAXX=3997.453
##MAXY=0.8611745278881922
##MINX=373.96442
##MINY=0.38161927702697857
##NPOINTS=227
##PEAKTABLE= (XY..XY)
3983.287681078968, 0.7190858169722666
3977.6215535105553, 0.7195099038440671
3947.8743837763877, 0.7176397481581764
3933.709064855356, 0.7188868562706058
3926.62640539484, 0.7186738295443562
3920.960277826427, 0.719129626326874
3911.0445545817042, 0.7191262882726867
3905.3784270132915, 0.7184121050828477
3899.7122994448787, 0.7188144368561782
3892.6296399843627, 0.7180783790652084
3881.297384847537, 0.7190049930720559
3871.381661602815, 0.7173877395035937
3864.299002142299, 0.7196747108457004
3855.799810789679, 0.7186731734827692
3844.4675556528537, 0.7186695972252917
3826.052641055512, 0.7182700677492535
3816.13691781079, 0.7221981923899351
3807.6377264581706, 0.7195540107522794
3803.3881307818606, 0.7190378948012554
3790.639343752932, 0.7200852674498074
3782.1401524003127, 0.7199377458263205
3770.807897263487, 0.7195870913344543
3765.1417696950743, 0.7200577297058085
3753.809514558249, 0.7178809085376657
3745.310323205629, 0.7216352859340358
3736.81113185301, 0.7200413979428539
3725.4788767161845, 0.7210640351446994
3712.7300896872557, 0.7200458091148939
3702.8143664425334, 0.720332269023109
3690.065579413604, 0.7188199796943542
3681.566388060985, 0.7207143944203711
3670.2341329241594, 0.7231550854836964
3663.1514734636435, 0.7211664954427507
3657.4853458952307, 0.7209757603738975
3651.819218326818, 0.7204368747548342
3641.903495082095, 0.7217072289418831
3634.820835621579, 0.7207942647053899
3630.5712399452696, 0.7205446998401174
3619.238984808444, 0.7219986357790332
3613.572857240031, 0.7208612006319561
3595.1579426426897, 0.7214505115616556
3588.0752831821737, 0.7206303519686338
3580.9926237216573, 0.72164208074304
3569.6603685848318, 0.7215051691913563
3554.0785177716966, 0.7189725677494367
3537.0801350664583, 0.7212622202821125
3515.83215668491, 0.7204583331017306
3503.083369655981, 0.7208635850709516
3497.4172420875684, 0.7204065363176057
3483.2519231665365, 0.7201719325438303
3469.086604245504, 0.7202881613128653
3457.7543491086785, 0.7197955889900657
3450.6716896481626, 0.720988754884696
3442.1724982955434, 0.7209938806666065
3429.423711266614, 0.7200351396927761
3412.425328561376, 0.7205650850691612
3401.0930734245503, 0.7199969926790054
3394.0104139640343, 0.7200695909464084
3382.678158827209, 0.7212346833401451
3369.92937179828, 0.7198092981107347
3352.9309890930413, 0.7210882348345109
3338.7656701720093, 0.7203988472437243
3331.6830107114934, 0.7203403751532559
3313.2680961141514, 0.720895830738564
3303.352372869429, 0.7206158680857482
3279.2713307036747, 0.7223789734485723
3263.6894798905396, 0.7208048739751618
3252.357224753714, 0.7218903936374844
3238.1919058326816, 0.7222875996289044
3218.360459343237, 0.7228752415315102
3195.6959490695854, 0.7212721742923286
3184.36369393276, 0.7239126008195313
3170.198375011728, 0.7223942914439889
3161.6991836591087, 0.7229676884690306
3151.7834604143864, 0.723358814261317
3137.618141493354, 0.7210852544862744
3130.535482032838, 0.720369045365422
3103.6213760828773, 0.7067562382267034
3076.707270132916, 0.7165247241711564
3063.9584831039874, 0.7134274878959291
3039.877440938233, 0.6736643947306209
3014.379866880375, 0.7090957803131203
3003.0476117435496, 0.7063803117292043
2981.7996333620013, 0.7135445515795267
2961.9681868725565, 0.7148359454531438
2943.553272275215, 0.7086021340704367
2927.97142146208, 0.7139071266623076
2901.0573155121187, 0.7155792752617294
2889.725060375293, 0.7168608947801371
2871.310145777951, 0.7167547980722623
2861.394422533229, 0.7180210394429073
2854.311763072713, 0.7170806569650761
2838.7299122595778, 0.7184869089362707
2828.8141890148554, 0.7170443578313745
2818.898465770133, 0.7172588747317423
2811.815806309617, 0.7177872697816632
2800.483551172791, 0.7180919686832167
2793.400891712275, 0.7184819026570209
2779.2355727912427, 0.717425707664389
2770.7363814386235, 0.7172189391882172
2755.1545306254884, 0.7176433244156539
2742.4057435965597, 0.7190282383446441
2731.073488459734, 0.7179787796127328
2721.1577652150118, 0.717700724190301
2702.7428506176702, 0.7192884726320344
2697.076723049257, 0.7192243382007293
2687.1609998045346, 0.7177895347179979
2665.9130214229863, 0.719138328366262
2648.914638717748, 0.7174956840915376
2636.165851688819, 0.7183582230173947
2616.3344051993745, 0.7182843126268176
2610.6682776309617, 0.7180656235597312
2600.7525543862394, 0.718844715943092
2583.7541716810006, 0.7168551129366396
2573.838448436278, 0.7196090854382458
2565.339257083659, 0.7204757973328526
2558.2565976231426, 0.7210199274344559
2544.0912787021107, 0.7237054152870941
2521.4267684284596, 0.7226753272146573
2504.4283857232213, 0.7245568677345676
2494.512662478499, 0.723504070948469
2486.0134711258797, 0.7251593512260098
2470.431620312744, 0.7217520512619972
2463.348960852228, 0.7216791554409893
2456.266301391712, 0.7206475178441196
2449.183641931196, 0.7216462537117898
2416.6034084128223, 0.7210190933219246
2393.938898139171, 0.7218425316188191
2378.357047326036, 0.7223157926324589
2367.02479218921, 0.723373119291227
2359.942132728694, 0.7259000583923098
2345.776813807662, 0.7236160673984395
2337.2776224550425, 0.7231882254161861
2324.528835426114, 0.7215805096037057
2317.446175965598, 0.7217217721750834
2308.9469846129787, 0.7211779989773998
2297.614729476153, 0.7207837741362475
2287.6990062314308, 0.7209839860067052
2282.032878663018, 0.7225569530119483
2267.867559741986, 0.7240167301446763
2260.78490028147, 0.7228733343011263
2252.2857089288505, 0.7232778115081308
2240.953453792025, 0.7261616625491263
2232.4542624394057, 0.7275348347401773
2215.455879734167, 0.7250478905329344
2206.956688381548, 0.7265447415615803
2188.5417737842063, 0.723835710882749
2167.2937954026584, 0.7229714435794836
2160.2111359421424, 0.7241615697755628
2147.462348913213, 0.7287504711451795
2143.2127532369036, 0.7282801311294614
2114.8821153948393, 0.7264281550865944
2103.5498602580137, 0.7268483681473126
2085.134945660672, 0.7258666794544987
2070.9696267396403, 0.7262722297793558
2066.7200310633307, 0.726017777335463
2052.5547121422987, 0.7272815749167979
2034.1397975449568, 0.7293010391518673
2025.6406061923376, 0.7295825521311473
2010.0587553792022, 0.7273396893013154
1985.977713213448, 0.730895284849
1980.311585645035, 0.7316339652822554
1956.2305434792804, 0.7217556275194748
1936.3990969898355, 0.7270987077748015
1919.4007142845971, 0.7263737958125299
1915.1511186082876, 0.7267251055639519
1903.818863471462, 0.7294842046494998
1895.3196721188428, 0.7300221960036859
1881.1543531978105, 0.7306883968701676
1864.1559704925721, 0.7264069357450195
1845.7410558952306, 0.711036626233999
1818.8269499452695, 0.7263469734804329
1803.2450991321343, 0.7283964200508425
1796.1624396716184, 0.7283101126627703
1786.246716426896, 0.7299270077232504
1773.4979293979668, 0.727460090237069
1764.9987380453476, 0.7251791998961272
1752.249951016419, 0.7223607344552337
1735.2515683111806, 0.7225732246225569
1721.0862493901482, 0.7240964215767197
1708.3374623612194, 0.7276317522000525
1702.6713347928066, 0.7276484408669268
1689.922547763878, 0.729461078077541
1687.0894839796715, 0.7293871684889952
1678.5902926270523, 0.7303867384691967
1671.5076331665364, 0.7312232891754878
1654.5092504612976, 0.7218947454592096
1647.4265910007816, 0.7198045292327439
1630.4282082955433, 0.7332567616888936
1624.7620807271305, 0.7334357542177764
1606.3471661297885, 0.7224317230458578
1583.6826558561374, 0.7352616826907628
1555.352018014073, 0.6814815441850529
1529.8544439562156, 0.6735732591142433
1481.6923596247066, 0.6874750894531478
1457.6113174589523, 0.7000201387142707
1388.2012547458949, 0.7425140184589116
1342.8722341985927, 0.7223644895656867
1264.962980132916, 0.6397256294617656
1240.8819379671618, 0.676652256396132
1208.3017044487879, 0.7635282918640135
1175.721470930414, 0.628560129342401
1116.2271314620793, 0.6170107754483659
1069.481579022674, 0.6742680106902305
1036.9013455043, 0.6878758115496993
1018.4864309069585, 0.6467446126249359
1005.7376438780293, 0.6733132638321744
987.3227292806878, 0.47595843972808105
968.9078146833463, 0.5314066436919662
885.3324330492569, 0.6462153826604524
784.7586687099292, 0.6858084243415874
763.5106903283813, 0.38161927702697857
671.4361173416728, 0.6729052103676924
647.3550751759185, 0.6341701183894303
596.3599270602031, 0.579847040798568
555.28050218921, 0.6608365211690753
541.115183268178, 0.6670259874402799
532.6159919155589, 0.6697160043635563
524.1168005629397, 0.6315817870019887
504.28535407349455, 0.671954873879645
491.5365670445658, 0.6631639044612874
458.9563335261919, 0.684832875198222
451.8736740656759, 0.6870511806322915
434.8752913604376, 0.4525255287137599
402.29505784206367, 0.6897428072323468
393.7958664894445, 0.7126886887620444
376.7974837842062, 0.5672051342299159
##END=

##END=

