##TITLE=SG-X19134
##JCAMP-DX=5.0
##DATA TYPE=LINK
##BLOCKS=1


$$ === CHEMSPECTRA SPECTRUM ORIG ===
##TITLE=SG-X19134
##JCAMP-DX=5.00
##DATA TYPE=INFRARED SPECTRUM
##DATA CLASS=XYDATA
##$CSCATEGORY=SPECTRUM
##ORIGIN=Angelika Moesle
##OWNER=
##XUNITS=1/CM
##YUNITS=TRANSMITTANCE
##XFACTOR=1.0
##YFACTOR=8.236199e-10
##FIRSTX=3997.453
##LASTX=373.96442
##MAXX=3997.453
##MAXY=0.8843551320614578
##MINX=373.96442
##MINY=0.4249262237449646
##NPOINTS=2559
##XYDATA= (X++(Y..Y))
2559A072282210A072503443A072597161A072796899A073190660A073623138A073741822
2552A073176258A072003227A070829038A070165848A070030734A070236987A070640951
2545A071081390A071449604A071683935A071550920A070887223A070091091A069774114
2538A069971392A070262822A070504680A070867756A071287207A071382735A070966684
2531A070290757A069738363A069549480A069877240A070803564A072069662A072977099
2524A072881282A071868404A070698485A070090439A070027985A069807838A069139943
2517A068592543A068630826A068950843A069041087A068956632A069190023A069874490
2510A070501785A070517272A069948522A069388748A069264635A069545789A070276211
2503A071515894A072684438A072905019A072078129A070791768A069556862A068490792
2496A067457434A066517504A066259869A067309656A069221069A070782650A071505834
2489A071590000A071142324A070221210A069121996A068366317A068278172A068443390
2482A068300968A067933043A067699219A067457288A066802565A066199152A066623597
2475A067828542A068606076A068643346A068372541A067871892A067038706A066629820
2468A067365742A068412055A068898375A069294958A070275776A071280549A071387004
2461A070530154A069134370A067644074A066902290A068118887A070284099A071291839
2454A071097745A070348001A069360018A068245389A067144799A066086835A065020910
2447A064515991A065527711A067541671A068914658A069164838A069084726A069309576
2440A069541446A069218102A068290330A067140963A066183810A065960334A066879855
2433A068264060A069380932A070453298A071568144A072168591A071930279A070997948
2426A069746686A068830927A068692268A068745893A068435140A068400910A069209200
2419A069816088A069477618A068887447A068656228A068514674A068268619A068253060
2412A068541885A068613458A068175408A067672732A067500348A067376742A067122582
2405A067211234A067898813A068639800A069009462A069088633A068976461A068704860
2398A068409305A068197191A068146098A068424719A068914296A069140884A068953159
2391A068687636A068483628A067980373A067081548A066325073A066575833A068244231
2384A069809285A069385419A067546954A066312699A067222306A068920013A069104917
2377A067591244A065310531A063443914A063201333A064875665A067215431A068897290
2370A069704495A070150506A070734814A071356392A071359866A070488397A069321807
2363A068521043A068152249A067852714A067296485A066461996A065891221A066642340
2356A068781209A070646379A071113666A070529067A069842430A069742995A070089715
2349A070184519A069823108A069290833A068663031A067761673A066482404A064961785
2342A063785786A063839122A064989212A066179974A066923639A067192563A066881954
2335A065917636A064614992A063712693A063926327A064610215A064124619A062578814
2328A061644383A062408313A063457882A063262268A062164935A061195913A060850857
2321A060789633A060472366A059873946A059373731A058988221A058312148A057412455
2314A057268223A058895299A060977358A061512021A060783336A059754754A058904128
2307A058252299A057594898A056824456A056162568A055939093A055978099A055628267
2300A054789581A054436565A054954655A054905300A053769032A052231116A050771141
2293A049604189A048958802A048494699A047322898A045476255A044011938A043557460
2286A043516137A043245405A042986396A042970619A042689393A041732456A040384798
2279A039134549A037956670A036437569A034539400A032672856A031050702A029419936
2272A027585668A025861836A024857208A024546817A023850481A022063831A019472511
2265A016781393A014731828A013602146A012907185A011940985A010462339A008597821
2258A006441294A004150667A002253800A001247000A000496678I98945590I96735799
2251I94757951I93550834I92862025I92154979I91298346I90550917I90066334I89593691
2243I88836927I87936004I87260582I86900185I86676347I86520247I86457431I86470529
2235I86575899I86712242I86614110I86163178I85641614I85343453I85221582I85005634
2227I84439563I83437033I82218771I81216604I80624190I80168771I79519402I78716396
2219I77959632I77148302I76027087I74746732I73864263I73611189I73492431I72920425
2211I71921515I70969571I70228077I69284818I67832153I66185683I64995862I64622004
2203I64791347I64850761I64385718I63545368I62680412I61816904I60759157I59544080
2195I58474826I57800491I57557982I57619351I57660673I57201491I56030270I54535485
2187I53303763I52475354I51729373I50779311I49656866I48558954I47577484I46602528
2179I45481529I44266670I43218403I42486462I41814370I40724274I39129475I37590328
2171I36778347I36760183I36966507I36748676I35778568I34225672I32700926I31725608
2163I31303117I31135293I30928462I30355371I29157083I27497587I25944039I24970096
2155I24601954I24497598I24240108I23564543I22425236I21003327I19690045I18876906
2147I18579975I18381611I17914396I17248239I16607699I15947259I15156192I14450376
2139I14068628I13742606I13066751I12264467I11947128I12181315I12404501I12189854
2131I11593895I10847696I10066400I09234879I08320349I07368479I06459740I05624600
2123I04926166I04489201I04328904I04305456I04298798I04257620I04094645I03689884
2115I03018371I02302641I01990802I02300253I02797356I02829560I02336944I01826163
2107I01680339I01862564I02126350I02207982I01941229I01363290I00662684I00026053
2099H99582575H99425462H99587858H99993559I00481761I00910187I01192064I01222676
2091I00942174I00548992I00411708I00613907I00809087I00701329I00480097I00562598
2083I01023300I01531114I01812919I01918144I02001151I02124179I02335713I02675051
2075I03024668I03161807I03035378I02925884I03274051I04234752I05371381I06014525
2067I06036887I06013584I06498385I07444394I08462049I09314702I09939608I10217579
2059I10042446I09564737I09148615I09119522I09629001I10603306I11756290I12852973
2051I13896968I14838709I15382707I15430182I15426057I15925765I17033230I18395579
2043I19567741I20385440I21107756I22105364I23390639I24561427I25191907I25226355
2035I25072643I25376376I26559610I28372385I29931505I30490195I30250653I30141231
2027I30762592I31927590I33213807I34391614I35240721I35521512I35355643I35300498
2019I35825029I36882704I38140190I39425972I40697642I41780356I42545298I43211890
2011I44088280I45122145I46046443I46814569I47519806I48040285I48199207I48197471
2003I48440703I48986366I49604109I50314701I51387212I52835245I54314325I55475560
1995I56198094I56602999I56968752I57507106I58199027I58936396I59710818I60578741
1987I61553408I62579892I63513381I64168394I64605431I65285918I66581542I68151735
1979I69246028I69629440I69765349I70160123I70906103I71734585I72264472I72328736
1971I72172997I72257162I72885109I74031363I75408765I76719153I77827631I78617322
1963I78973957I79169282I79777327I80884285I81937400I82587347I83038714I83471409
1955I83824497I84195172I84816461I85618600I86299594I86793151I87284536I87838089
1947I88363416I88893882I89564454I90338369I91037599I91594046I92033254I92294072
1939I92282566I92051346I91815278I91837713I92283941I93070593I93886989I94477159
1931I94897913I95392555I96033891I96644469I97064283I97345654I97651848I98069707
1923I98515066I98785872I98793905I98714805I98759023I98904195I99052335I99280080
1915I99681874A000106391A000297735A000198517I99995956I99930606A000119200
1908A000529606A001095098A001778118A002446302A002818930A002745186A002432407
1901A002182806A002031192A001857579A001673255A001522365A001323567A001064703
1894A000941748A001072229A001289046A001390943A001394995A001428792A001528082
1887A001587280A001425173A000970406A000466500A000330446A000656613A001023452
1880A000989439A000655455A000516579A000843253A001433930A001965554A002373643
1873A002819292A003424153A004153344A004896358A005554845A006060487A006420741
1866A006744376A007149064A007668602A008273825A008860955A009190307A009019154
1859A008349089A007422981A006488768A005636115A004782521A003728754A002253076
1852A000188891I97492996I94314329I90854868I87023502I82401865I76671389
1845I69807178I61770805I52393287I41686276I29911821I17215383I03444987H88395974
1837H72065593H54676597H36624410H18451295H00859014G84758767G71244702G61416108
1829G56204446G56251558G61620695G71479613G84310802G98660150H13621742H28596721
1821H42892517H55790646H66845753H75933867H83089509H88425210H92087161H94085200
1813H94230083H92458197H89212153H85304510H81367485H77512817H73513047H69297691
1805H65381003H62796919H62483778H64739233H69267224H75479968H82588497H89726697
1797H96284715I02042329I06963574I11065166I14471870I17375681I19846217I21718696
1789I22742719I22915754I22629461I22395420I22492973I22930010I23616575I24530092
1781I25820071I27702971I30130520I32686380I34930474I36700044I37976200I38636135
1773I38432054I37129482I34620011I30934903I26166719I20413374I13891252I07165628
1765I01213124H97078966H95354699H96052120H98990958I04036388I10806229I18457816
1757I26073291I33132826I39460636I44936446I49488680I53202808I56215100I58569774
1749I60335146I61810753I63472927I65650369I68244150I70748918I72619877I73741453
1741I74554737I75636800I77169361I78898766I80518893I81893255I82955489I83666009
1733I84132356I84594215I85203057I85868129I86376667I86648775I86821737I87055634
1725I87337150I87526684I87545500I87486954I87555632I87853720I88242270I88540720
1717I88792927I89146522I89588046I90011695I90400390I90768459I91115035I91531157
1709I92124077I92779886I93233423I93408701I93515156I93771198I94143972I94423823
1701I94499738I94456462I94395889I94297177I94106701I93878015I93748981I93784442
1693I93863685I93796745I93578479I93408557I93405155I93469926I93478682I93405734
1685I93250213I93049461I92944237I93020079I93139923I93105837I92877223I92496923
1677I91988096I91470946I91159180I91095640I91071179I90930565I90775262I90725834
1669I90632260I90232493I89591086I89142976I89175615I89466539I89623001I89558446
1661I89442802I89412045I89530730I89826430I90206079I90512779I90726123I90956546
1653I91261799I91601499I91926075I92188412I92300079I92199848I92003583I91989181
1645I92351027I93006402I93696441I94183413I94345230I94252308I94181097I94357533
1637I94686451I94911808I94980486I95032954I95083685I94948499I94537443I94062122
1629I93839442I93941483I94165030I94316789I94357967I94282848I94077899I93847258
1621I93752889I93788856I93808324I93759402I93690217I93570011I93326273I93015520
1613I92773156I92645352I92578121I92520805I92469712I92436640I92370494I92181828
1605I91929115I91852404I92046425I92250506I92179657I91958641I92003004I92466311
1597I92987368I93105837I92832788I92626970I92856163I93472097I94128051I94449659
1589I94326487I94045622I93986424I94181531I94360211I94343059I94206209I94144623
1581I94294717I94630147I95005380I95313384I95558281I95773797I95944225I95996332
1573I95866066I95622473I95467241I95513630I95621894I95568051I95328654I95095119
1565I95046270I95210331I95497781I95726178I95680151I95312516I94849860I94604456
1557I94761063I95348339I96227623I97083316I97609439I97762862I97773717
1550I97912159I98248097I98608784I98735647I98461224I97790145I96931196
1543I96195418I95749481I95557702I95619578I96025569I96662417I97108573
1536I96991696I96337986I95491629I94794642I94437501I94548009I95178561
1529I96070365I96667410I96653443I96342256I96288558I96661259I97239994
1522I97840224I98436691I98934156I99100025I98791806I98166609I97607920
1515I97417372I97576728I97871994I98201491I98584758I98951959I99190849
1508I99342173I99492194I99535905I99313298I98904629I98576435I98490171
1501I98566448I98554073I98225735I97630137I97093375I96823294I96636509
1494I96262795I95771626I95452984I95387780I95360062I95165968I94832564
1487I94551337I94501403I94703674I94972092I95010881I94626891I93910654
1480I93220758I92880407I92834380I92748550I92499890I92355876I92562055
1473I92982520I93293200I93375774I93395386I93547433I93836403I94162788
1466I94551193I95088751I95682250I96125438I96376776I96542067I96701496
1459I96921498I97224942I97417589I97205619I96602351I96007621I95799343
1452I95973535I96234643I96364690I96398849I96408401I96287690I95884521
1445I95224587I94524706I94097728I94171834I94633838I95073046I95238772
1438I95256575I95300863I95366357I95414918I95395306I95127179I94532232
1431I93870055I93437504I93243121I93190292I93266713I93394662I93411669
1424I93255641I92936927I92477962I92101498I92185519I92781622I93414274
1417I93534407I93028908I92268671I91778732I91794002I92066906I92252677
1410I92395679I92716853I93162285I93672921I94535633I95765402I96582593
1403I96319966I95401385I94729655I94594397I94707727I94829307I94918538
1396I94907466I94596858I93797613I92656786I91831127I91873608I92498877
1389I93058363I93337273I93521959I93701796I93652658I93170824I92521601
1382I92246453I92411021I92461244I92004162I91355879I91216424I91949089
1375I93186818I94133695I94242756I93668868I93135146I93249996I93929542
1368I94658806I95177258I95541275I95722125I95602427I95260193I94903196
1361I94603371I94316500I94113577I94156057I94377073I94389303I93931351
1354I93262082I92842268I92796314I92969493I93289727I93752960I94215472
1347I94438731I94275466I93816357I93444235I93646434I94634924I96117550
1340I97439299I98049805I97981923I97727184I97531570I97147580I96496185
1333I96081510I96374605I97142369I97762428I98025489I98301216I98907886
1326I99556313I99647571I99048499I98178550I97251067I96015509I94512474
1319I93393142I92975355I92634641I91815930I91167140I91759699I93332424
1312I94314401I93900811I93219890I93792692I95517465I96967163I97183619
1305I96375039I95284509I94706786I95214311I96564719I97701493I97871343
1298I97323943I96568192I95665026I94603877I93679795I93335319I93944956
1291I95346385I96439592I96212281I95218436I94847834I95339292I95684710
1284I95171034I94113577I93268812I92919703I92517476I91483828I90380922
1277I90530147I92452995I95273437I97307081I97065368I94568055I91704480
1270I90589924I91846324I94542002I96922005I97243541I95174436I92598963
1263I91912181I93503288I95990397I98549008A001010643A002360761A001403390
1256I98228412I94186814I91084350I90254349I91428103I92854065I93280681
1249I93135508I93378379I94163873I94856011I94674365I93456682I92036004
1242I91380702I91492584I91683349I91542085I91099331I90495047I90014879
1235I90137328I91058441I92306013I93161778I93377655I93157364I92608878
1228I91747613I90938599I90704194I91048383I91420577I91269181I90370212
1221I88947724I87711226I87339683I87740752I88225408I88425002I88575241
1214I88920224I89334103I89616849I89822667I90093833I90286046I90075597
1207I89612869I89670547I90631898I91683060I91689138I90626833I89470229
1200I88919500I88869420I88913204I88906112I89071765I89592388I90118946
1193I90003517I89102015I87870293I86655288I85437243I84230633I83189748
1186I82405773I82160442I83138004I85504908I87962781I89042456I89109614
1179I89518934I90277435I90243493I89349807I88896124I89591954I90640583
1172I91054824I90883019I90633273I90366666I89977609I89662368I89624375
1165I90022623I91306958I93554381I95509287I95590703I94064728I92782274
1158I92671550I92969204I92863617I92654326I92863399I93051415I92453573
1151I91202239I90023347I89306024I89054396I89145437I89177279I88700367
1144I87950333I87732213I88199934I88495273I88016551I87188214I86599708
1137I85989275I84697920I82964680I82031191I82659210I84082566I85130109
1130I85794312I86831145I88394245I89728949I89955102I88894678I87254720
1123I86141757I86282080I87322025I87968787I87328104I85921103I85029443
1116I85370736I86613965I87851839I88304942I87856181I87129161I86880790
1109I87227510I87564895I87299590I86434634I85321163I84266745I83484868
1102I83129175I83109491I83013457I82625920I82361049I82658341I83256979
1095I83568166I83422632I83054128I82685625I82418004I82070415I81294039
1088I80256555I79673984I79907953I80469682I80779493I80912798I81111089
1081I81189466I80863008I80268641I79804393I79657339I79773636I80054356
1074I80356208I80566585I80795343I81161314I81416270I81252354I80803304
1067I80416274I80273490I80433353I80913594I81537272I81936604I81853379
1060I81271532I80277036I79060365I78170877I78306280I79225223I79850782
1053I79833124I79729998I79974895I80289338I80237812I79947322I79823933
1046I79898473I79907012I79777182I79620358I79423225I79138091I78954490
1039I79088228I79299401I79178400I78756633I78404412I78516078I79133965
1032I79782103I79966427I79644963I79063116I78461150I78137153I78467590
1025I79428435I80301424I80434800I79956875I79392396I78982859I78542782
1018I77963684I77525924I77507180I77702143I77665741I77358172I77081288
1011I76989813I76965931I76811062I76452617I76002771I75588820I75237902
1004I75050900I75314396I76054225I76584836I76418675I75897836I75537148
997I75495391I75558063I75504654I75344429I75138828I74800141I74249774
990I73698032I73559517I73840888I73887711I73393213I72634495I71795665
983I70963782I70372381I70236906I70394020I70457125I70237196I69660197
976I68740747I67717810I66905683I66457357I66175045I65676277I64842729
969I63769712I62561076I61347735I60301857I59487632I58814670I58338265
962I58441753I59289413I60018387I60074183I60007604I60217185I60640182
955I61177668I61775509I62230566I62409245I62567806I63226727I64401567
948I65080679I64768189I63978135I63207042I62624471I62287521I62319652
941I62641695I62780427I62556806I62472207I62988850I63667744I64122004
934I64533713I64684892I64400337I64139012I64392087I65006501I65472268
927I65839469I66621635I67478919I67605131I67191976I66694438I66327237
920I66046517I65609987I64946290I64406995I64380146I64543194I64100512
913I63080903I62101387I61593645I61399334I61053265I60442108I59712483
906I59107766I59242735I60618327I61490664I60836881I59820023I59480684
899I59904550I60055078I59593363I58955212I58384509I57871050I57454639
892I57249110I56931555I55956670I54359701I52410583I50266938I47802046
885I44516126I39712264I33081588I25673668I19058480I13698244I09957774
878I09174089I11481795I15139258I19314594I24006284I28879113I33196872
871I36415272I38489732I39720803I40432047I40731872I40568825I39877700
864I38493278I36068551I32308614I27200584I20885945I13497492I05238294
857H96583092H88375638H81596751H76899344H74285082H73297895H73664877
850H75387915H77480395H78320311H77803162H76593801H75213650H74047349
843H73407751H73566817H74491696H75933723H78924811H87728948I03378480
836I14866571I20632291I25063524I29323532I33268083I36750992I39413958
829I41051020I42000865I42751477I43667164I45324851I47866309I49630450
822I49950612I49716354I49738137I50035936I49831926I48739370I46787141
815I43905258I40371257I36761196I33082167I29275117I26144502I24339544
808I23830644I24329049I25187131I25845038I26109403I25705873I23498036
801I16304473I02620558H86493752H68164826H44859799H15122605G80451357
794G46654111G22249290G09426423G02317605F94273054F81941935F70114506
787F69448638F82954741G06558218G36196772G67854716G96402596H18592559
780H35034461H47379691H55888056H59506801H57105305H49755352H39452306
773H26092388H07961319G85563584G64344741G48609886G37558760G29022099
766G22882231G21566705G24960889G30961664G38791351G47646942G56052905
759G62490282G66300589G68370780G70434458G73456954G77075772G80899322
752G85673368G92040908G98612604H04190815H09582242H15764664H22344174
745H27945978H32009215H34883788H36617246H36814307H35225081H31556691
738H25644351H18197569H09612058G99298301G86656213G71735293G55202351
731G37417713G17217030F93093437F66482517F40300601F14401647E87505303
724E62158563E44290157E39218059E49531961E72787017F03590497F37986164
717F71854187F98044426G11260329G13669496G10257438G03813475F95651107
710F88374103F86769245F95862425G16525400G42126409G64044844G77978432
703G82079372G76327837G65140078G56611160G58000503G69034332G81876594
696G90515079G93992053G93286092G89450818G83458076G76345567G69343638
689G63927027G61568807G63205434G68787554G77486901G88361953H00364009
682H11899284H21542542H29092304H35144389H40308215H44977616H49321210
675H53336176H56907448H59868140H62142123H63823185H65080309H66048029
668H66738503H66994545H66658101H65784388H64556501H63076987H61344181
661H59357504H57171305H54889797H52649611H50583689H48709619H46771646
654H44254214H40631778H35551611H28773881H20138002H09721625G97993341
647G85820204G74415555G65142973G59116145G56900203G58496303G63358278
640G70306942G77579967G83209923G85503155G83175113G75171957G60760082
633G40059981G14473590F86625375F59905973F37699003F22551856F15694088
626F16942961F25053730F38445708F55694236F75547038F96843171G18485083
619G39441877G58882176G76299902G91386257H03787575H13086572H18990010
612H21446942H20666586H17178756H11857021H05712448G99594870G94054652
605G89372008G85641596G82879413G81066350G80059261G79476834G78733893
598G77246852G74649235G70814106G65746459G59734322G53845357G50187026
591G51327708G58991163G72887771G90657935H09065889H25354006H37745336
584H45356396H48158455H46939615H43011419H37658999H31529480H24327160
577H15084973H02823763G87163158G68590276G48315271G27988161G09636077
570F95602764F87951177F87501838F93350275G03242555G14429301G24436864
563G31377714G33822777G30627825G21013009G04805221F82624087F55922994
556F26864188E97971868E71624407E49652275E33173103E22505425E17128580
549E15925154E17759892E21969929E28278128E36150187E44105544E49588879
542E49854763E43735303E33149547E22889777E18385270E22913876E36251359
535E55443866E76711486E97050211F14830724F29594965F41622205F51590183
528F60326727F68625873F77138869F86271201F96028150G05918548G15010063
521G22121269G26267368G27418327G27052646G27722349G31649460G39421107
514G49838279G60915603G71064069G79578875G86435704G91867874G96003191
507G98686927G99492250G97624476G91625220G79559190G60390493G35986396
500G11994297F96103703F94110658G06457335G28179288G52249691G73326327
493G89279955H00484214H08347046H14177247H18703067H22207614H24931008
486H27230465H29373676H31356156H33054152H34488291H35804758H37019256
479H37928502H38348749H38336229H38058477H37497615H36357947H34261124
472H31044390H26987160H22841061H19605293H18154437H18907437H21684892
465H25835767H30556405H35163567H39186711H42385860H44778456H46559532
458H47867749H48596577H48409504H46843219H43347501H37310687H28141085
451H15429376G99377039G81533782G65156506G54296724G51840082G57958022
444G70196146G85004966G99428710H11846455H21790912H29529993H35675071
437H40729187H44841055H48029277H50462616H52301298H53399789H53377065
430H51775463H47799070H40073161H27357690H10103155G91506970G76792012
423G70699401G74774072G86589705H01571560H15740565H27136602H35467952
416H41194882H45061636H47983033H50811218H53958623H57285793H60396073
409H62992171H64996723H66505981H67690374H68690298H69581596H70398715
402H71135867H71763090H72284581H72736455H73123051H73400586H73462245
395H73091136H72011895H70078772H67440049H64589791H62310163H61423787
388H62362197H64859077H68094700H71223434H73857525H76104152H78166961
381H79966781H81216958H81798226H81887458H81703351H81303222H80676867
374H79862135H78849474H77400283H74995168H71000827H64945050H56528957
367H45171131H29618790H08435264G81190607G49162858G14926983F81483188
360F51664143F27789572F11521140F04147667F06942020F20708182F44512845
353F74886670G06613002G34750404G56416994G71111543G79743659G83571045
346G83804580G81633434G78315020G75269221G73982498G75492118G79839621
339G86229814G93889072H02592109H12180149H21891578H30633622H37829717
332H43612879H48269180H51896610H54605386H56655169H58258579H59480459
325H60396580H61120922H61631921H61801120H61634888H61313786H61018665
318H60843966H60763998H60579891H60071570H59310536H58653859H58334060
311H58160519H57707271H56751492H55451598H54100031H52828579H51596132
304H50283358H48673724H46385846H42782154H36881610H27478474H13299482
297G92892187G65003807G30300934F93003627F60157094F38959746F34209509
290F46535634F71864102G03230831G34135845G60672949G81400840G96476919
283H07058804H14622317H20314293H24817461H28478470H31414196H33727402
276H35617611H37165587H38261979H38923794H39415760H39963377H40578514
269H41183086H41700597H42088858H42416617H42797062H43185539H43409522
262H43403877H43217382H42862772H42402071H42013810H41701032H41199514
255H40490513H40035094H40115857H40294104H39888619H38700029H36944716
248H34718859H31931490H28861447H26503589H25887366H26978693H28463273
241H28324903H24487024H15834572H03795680G92773357G87692466G90366432
234G98399043H07541144H14763871H19321027H21939486H23632127H24957278
227H25983471H26712012H27251307H27632692H27838510H28006985H28283435
220H28571971H28653459H28382509H27719463H26827369H26054394H25611350
213H25468060H25601581H26003808H26377884H25967841H24288297H21868058
206H18769501H14258156H08159755H01806036G97161024G94998562G94456952
199G94232463G93807077G93441975G93490101G94063336G95061813G96153935
192G96695039G95860696G93120656G88574501G82498462G74470194G63302264
185G48020657G28637023G06024930F81800888F58621494F40166573F30334867
178F31619708F43502645F62537893F84264333G05171554G23292563G37904974
171G49353479G58560422G66002573G71549015G75462881G78755025G82147472
164G85330989G87616985G88860286G89509799G90198681G91413179G93070939
157G94388057G94682237G94334214G94434590G95554140G97386382G99290485
150H00794967H01907063H02861757H03414005H03012574H01775424H00419805
143G99259367G98116658G97009411G95946019G94222620G90889372G86049325
136G81081764G77637573G76832973G78947165G83199791G88034917G92218430
129G95610587G98641769H01422551H03704567H05304793H06134288H06087972
122H05431005H05069955H05681330H06628497H06642609H05658823H04986659
115H05561921H07102370H08940762H10676608H12099530H13155106H13812507
108H13784934H12791451H10950815H08556844H06061847H04366238H04228882
101H05347202H06917828H08651937H10549094H12330387H13658578H14631797
94H15705755H17098933H18416340H19049715H18969530H18485815H17345567
87H15212270H13037289H12646713H14376262H16358886H16923438H16206115
80H14958761H13365555H11496984H09638256H07463492H04059321G99328552
73G94088376G87971159G78754446G65515094G50908474G38364011G30277341
66G28867446G35419239G48657722G64797844G79747349G91585924H00799309
59H08682114H15819736H21722306H25305374H26100059H25079727H23932315
52H23950552H25429414H27722575H29661054H30114157H28914060H27275478
45H26830770H27659252H27840464H25856971H22489853H19690399H18127371
38H16838259H15284494H14456158H15260975H17331600H20029520H22937890
31H25095648H25754858H25293939H25030371H25800740H26220771H23924861
24H18976405H14694976H14998058H21702550H33690132H46554177H52898922
17H49324684H41600800H34622681H28606853H22946720H18118107H15464694
10H15369166H15785651H14489882H12609877H11835382H11241304H09435260
3H06658458H05043685H06989474
$$ === CHEMSPECTRA INTEGRALS AND MULTIPLETS ===
##$OBSERVEDINTEGRALS= (X Y Z)

##$OBSERVEDMULTIPLETS=
##$OBSERVEDMULTIPLETSPEAKS=
$$ === CHEMSPECTRA SIMULATION ===
##$CSSIMULATIONPEAKS=
##END=


$$ === CHEMSPECTRA PEAK TABLE EDIT ===
##TITLE=SG-X19134
##JCAMP-DX=5.00
##DATA TYPE=INFRAREDPEAKTABLE
##DATA CLASS=PEAKTABLE
##$CSCATEGORY=EDIT_PEAK
##$CSTHRESHOLD=0.93
##MAXX=3997.453
##MAXY=0.8843551320614578
##MINX=373.96442
##MINY=0.4249262237449646
##$CSSOLVENTNAME=- - -
##$CSSOLVENTVALUE=0
##$CSSOLVENTX=0
##NPOINTS=44
##PEAKTABLE= (XY..XY)
375.380951892103, 0.6630499993353315
386.71320702892854, 0.6715542709640033
405.12812162627006, 0.6709989946636223
412.2107810867865, 0.6795114316599828
423.54303622361203, 0.6708022994063442
466.03899298670785, 0.6003097329877753
492.953098936669, 0.6693120044963887
517.0341411024233, 0.6623789113699518
536.8655875918685, 0.6630030315869141
562.363161649726, 0.6398150955389627
592.1103313838935, 0.6542294659012585
626.1070967943701, 0.5191563401250533
651.6046708522281, 0.6534946001053025
706.8494146442531, 0.6487591900776734
784.7586687099292, 0.5223475723816291
857.001795207193, 0.6374673876045102
878.2497735887409, 0.4975880410797733
923.5787941360436, 0.7094857733065613
971.7408784675526, 0.6347633635816798
1004.3211119859261, 0.6192304531528318
1035.4848136121968, 0.6738482755864963
1077.980770375293, 0.5716833507308942
1106.311408217357, 0.5988150275932553
1134.6420460594213, 0.426952424238873
1150.2238968725565, 0.4249262237449646
1177.1380028225171, 0.5662401950633762
1211.1347682329942, 0.6178689633354174
1260.7133844566065, 0.5070979031891512
1283.3778947302576, 0.6233980695048397
1347.1218298749022, 0.6272432246644593
1364.1202125801406, 0.623160007938084
1376.8689996090693, 0.5656368168899755
1395.2839142064108, 0.4441107238317741
1456.194785566849, 0.5942966974154295
1487.3584871931193, 0.5513712202846962
1517.1056569272869, 0.7608853026282155
1566.6842731508991, 0.7193560045378449
1579.4330601798279, 0.7192655249501104
1616.262889374511, 0.748813872264771
2869.893613885848, 0.73743194765491
2902.473847404222, 0.759703223580858
2926.5548895699767, 0.7103588029879822
2963.3847187646597, 0.6228250301940754
3326.0168831430806, 0.7416533274431303
##END=


$$ === CHEMSPECTRA PEAK TABLE AUTO ===
##TITLE=SG-X19134
##JCAMP-DX=5.00
##DATA TYPE=INFRAREDPEAKTABLE
##DATA CLASS=PEAKTABLE
##$CSCATEGORY=AUTO_PEAK
##$CSTHRESHOLD=0.93
##MAXX=3997.453
##MAXY=0.8843551320614578
##MINX=373.96442
##MINY=0.4249262237449646
##NPOINTS=100
##PEAKTABLE= (XY..XY)
1991.6438407818607, 0.8135159064978387
2811.815806309617, 0.8133139063047846
2099.300264581704, 0.8131926109784917
1944.898288342455, 0.812814657571721
3541.329730742768, 0.8124659706744769
1963.3132029397966, 0.8122059752861642
1954.8140115871772, 0.8112898513407156
1927.8999056372163, 0.809092108941275
2051.1381802501955, 0.8089268850239958
1978.8950537529317, 0.8088204313283008
1882.5708850899136, 0.807372753806451
1855.656779139953, 0.8070024897150667
1862.739438600469, 0.8069251229797602
1912.3180548240812, 0.8068789887346816
1898.1527359030492, 0.806865279581446
1845.7410558952306, 0.806286399158351
1838.6583964347146, 0.8058333439709988
1869.822098060985, 0.8056409998976523
1827.3261412978886, 0.8056132241401447
1811.7442904847535, 0.805094365840882
1784.8301845347928, 0.8034374163858808
1794.7459077795152, 0.80307132475291
1773.4979293979668, 0.8018429920355883
3164.532247443315, 0.8007010265718403
1762.1656742611412, 0.7991064234960293
3494.584178303362, 0.7944818784722796
1670.0911012744327, 0.7942826794105053
1691.339079655981, 0.7940840766495387
1701.2548029007035, 0.7927112628821192
1708.3374623612194, 0.7925591518172679
1729.5854407427678, 0.7906813668057195
1647.4265910007816, 0.7902473850080116
1655.9257823534008, 0.7899402423221433
1736.6681002032838, 0.7893064659854735
3479.002327490227, 0.7886638093790418
1535.5205715246284, 0.7822052885098446
3211.277799882721, 0.7809543062452728
3446.422093971853, 0.7715343282464416
3233.942310156372, 0.7703321026327101
3245.2745652931976, 0.7660828276620969
3255.1902885379204, 0.7619082377203956
1517.1056569272869, 0.7608853026282155
2902.473847404222, 0.759703223580858
3272.1886712431588, 0.7539631175237342
3396.8434777482407, 0.7510978023686472
1616.262889374511, 0.748813872264771
3284.9374582720875, 0.7487689297976877
3299.1027771931194, 0.7462108174527216
3307.6019685457386, 0.7436677262874916
3365.6797761219705, 0.7428975741441598
3357.180584769351, 0.7426418706391461
3326.0168831430806, 0.7416533274431303
3331.6830107114934, 0.7415970009017891
3344.431797740422, 0.7407847090698938
2869.893613885848, 0.73743194765491
1566.6842731508991, 0.7193560045378449
1579.4330601798279, 0.7192655249501104
2926.5548895699767, 0.7103588029879822
923.5787941360436, 0.7094857733065613
732.3469887021106, 0.6918696201167706
436.2918232525408, 0.680994276104323
718.1816697810787, 0.6802172697961834
674.2691811258792, 0.679871921030394
412.2107810867865, 0.6795114316599828
447.62407838936633, 0.6786070508870685
1035.4848136121968, 0.6738482755864963
386.71320702892854, 0.6715542709640033
405.12812162627006, 0.6709989946636223
423.54303622361203, 0.6708022994063442
492.953098936669, 0.6693120044963887
543.9482470523844, 0.6630716358301044
375.380951892103, 0.6630499993353315
536.8655875918685, 0.6630030315869141
517.0341411024233, 0.6623789113699518
592.1103313838935, 0.6542294659012585
651.6046708522281, 0.6534946001053025
706.8494146442531, 0.6487591900776734
562.363161649726, 0.6398150955389627
857.001795207193, 0.6374673876045102
971.7408784675526, 0.6347633635816798
1347.1218298749022, 0.6272432246644593
1283.3778947302576, 0.6233980695048397
1364.1202125801406, 0.623160007938084
2963.3847187646597, 0.6228250301940754
1004.3211119859261, 0.6192304531528318
1211.1347682329942, 0.6178689633354174
466.03899298670785, 0.6003097329877753
1106.311408217357, 0.5988150275932553
1456.194785566849, 0.5942966974154295
1077.980770375293, 0.5716833507308942
1177.1380028225171, 0.5662401950633762
1376.8689996090693, 0.5656368168899755
1487.3584871931193, 0.5513712202846962
784.7586687099292, 0.5223475723816291
626.1070967943701, 0.5191563401250533
1260.7133844566065, 0.5070979031891512
878.2497735887409, 0.4975880410797733
1395.2839142064108, 0.4441107238317741
1134.6420460594213, 0.426952424238873
1150.2238968725565, 0.4249262237449646
##END=

##END=

