##TITLE=X7604
##JCAMP-DX=4.24
##DATA TYPE=INFRARED SPECTRUM
##DATE=29/10/2018
##SAMPLING PROCEDURE=Diamant-ATR
##ORIGIN=ComPlat
##XUNITS=1/CM
##YUNITS=TRANSMITTANCE
##RESOLUTION=4
##FIRSTX=3997.453
##LASTX=373.96442
##DELTAX=-1.4165319
##MAXY=0.93082291
##MINY=0.48508161
##XFACTOR=1
##YFACTOR=8.6689639e-010
##NPOINTS=2559
##FIRSTY=0.88581675
##XYDATA=(X++(Y..Y))
3997+1021825404+1022518468+1022917187+1022786343+1022549202+1022612733
3989+1022881296+1023081514+1023201082+1023318311+1023296859+1022975354
3980+1022454731+1021953154+1021603665+1021533465+1021813991+1022219722
3972+1022380199+1022270258+1022247087+1022564329+1023052018+1023300778
3963+1023133082+1022882946+1023058756+1023685676+1024237928+1024187323
3955+1023447092+1022448268+1021868308+1022073890+1022783180+1023384180
3946+1023519630+1023303597+1023209195+1023665187+1024448391+1024941443
3938+1025026701+1024982972+1024795404+1024276087+1023670069+1023460499
3929+1023655080+1023925567+1024173640+1024476512+1024751469+1024727060
3921+1024220051+1023325943+1022405639+1021928195+1022165336+1023065219
3912+1024447841+1026046220+1027269464+1027329970+1025915033+1023689252
3904+1022012834+1021738840+1022444418+1023377510+1024278769+1025095594
3895+1025647021+1025663247+1025083493+1024462486+1024531655+1025052828
3887+1025030413+1023863068+1022094310+1020642382+1019854159+1020102232
3878+1021536077+1023251136+1024111760+1023803387+1022966004+1022417603
3870+1022639342+1023779185+1025274567+1026106726+1025680299+1024484488
3861+1023637960+1023604613+1024184366+1025096763+1025916752+1025725815
3853+1024084188+1022917187+1023508560+1025086106+1026735365+1027755159
3844+1027605821+1026271672+1024421163+1022721300+1021502868+1021373262
3836+1022794938+1024906239+1026196453+1026023530+1025117115+1024560739
3827+1024720872+1025363469+1026065609+1026309557+1025708489+1024767008
3819+1024622207+1025400185+1026376732+1027020016+1027315531+1027324195
3810+1026869715+1025852121+1024883481+1025075655+1026148254+1026254139
3802+1024368840+1022158529+1022173518+1024282207+1026757161+1028302873
3793+1028733563+1028583949+1028229510+1027696923+1027030467+1026477047
3785+1026309351+1026551717+1026861877+1026762868+1026191708+1025716052
3776+1025788521+1026275454+1026925958+1027581481+1027974011+1027849974
3768+1027365105+1026918945+1026786520+1027109950+1027770630+1028264850
3759+1027984943+1026962811+1026075441+1025839813+1025722309+1024718122
3751+1022636248+1020997096+1020819774+1021307944+1021575887+1021499705
3742+1021595620+1021917606+1021847544+1020925521+1019516359+1018627889
3734+1018546826+1018931518+1020153868+1022428329+1024991635+1026793395
3725+1027353829+1026973193+1026209929+1025479736+1025160363+1025521059
3717+1026420873+1027272146+1027420935+1026736946+1026058596+1026399146
3708+1027437436+1028248830+1028464931+1028153396+1027619228+1027410071
3700+1027860425+1028658412+1029333256+1029804993+1030354769+1031218624
3691+1032204315+1032599114+1031770737+1030239739+1029042829+1028461425
3683+1028165291+1027767811+1027253788+1026891648+1026678022+1026477254
3674+1026671078+1027315119+1027599839+1027250213+1027535345+1029338137
3666+1031404128+1032311506+1031903575+1031003485+1030316472+1029816200
3657+1029346044+1029226408+1029627602+1029893620+1029274538+1027634011
3649+1025650527+1024471768+1024666761+1025979939+1027697748+1029033478
3640+1029667274+1029832564+1029653110+1028856705+1027398658+1025788590
3632+1024368633+1022893603+1021540547+1021531677+1022894634+1024285369
3623+1025138223+1025695769+1026266722+1026875697+1027288441+1027163030
3615+1026373913+1025359069+1024905552+1025248715+1026069322+1027349153
3606+1029012988+1030210174+1030201855+1029213551+1028018428+1027100599
3598+1026393233+1025619174+1024669099+1023915804+1023851035+1024201624
3589+1024112585+1023407419+1023333575+1024824557+1026870196+1028043455
3581+1027977861+1027417153+1027149416+1026998839+1026470722+1025847583
3572+1025622268+1025426313+1024567614+1023286064+1022768879+1023445235
3564+1024357426+1024823457+1024924047+1024984622+1025298288+1025858584
3555+1026189990+1025778826+1024820707+1024143388+1024108459+1024252916
3547+1024080269+1023574222+1023110598+1023269632+1024439384+1026207110
3538+1027453869+1027449125+1026623361+1025866972+1025443570+1025016112
3530+1024306821+1023439254+1022777611+1022567423+1022859706+1023654667
3521+1024712690+1025378733+1025130866+1024285988+1023667387+1023526987
3513+1023324912+1022654743+1021874634+1021610266+1021938852+1022367892
3504+1022451912+1022233198+1022115625+1022264276+1022357372+1022094310
3496+1021661902+1021482860+1021637837+1021838399+1021893404+1021940571
3488+1022228041+1022752171+1023122631+1022855993+1021896430+1020772469
3479+1020060291+1019892044+1020168101+1020813586+1021574306+1021989869
3471+1021848713+1021293642+1020416311+1019242434+1018142951+1017661312
3462+1017854243+1018298615+1018731368+1019216031+1019742705+1020071292
3454+1019996072+1019618806+1019317928+1019362620+1019509002+1019194786
3445+1018280945+1017309005+1016925413+1017285559+1017922105+1018149689
3437+1017745608+1017192188+1017075577+1017386012+1017608233+1017379824
3428+1016880584+1016592426+1016690404+1016737502+1016217979+1015311770
3420+1014780077+1015101100+1016081772+1017177474+1017850049+1017840079
3411+1017354384+1016820972+1016456495+1016270784+1016342015+1016732689
3403+1017202364+1017329357+1016914000+1016085967+1015135616+1014386447
3394+1014072643+1014118228+1014161682+1014006430+1013903296+1014132323
3386+1014491094+1014567345+1014446127+1014650334+1015271135+1015692818
3377+1015451414+1014919309+1014752918+1015038738+1015317958+1015205404
3369+1014799466+1014602961+1014940073+1015448251+1015590646+1015623718
3360+1016258820+1017355897+1017885802+1017340427+1016342909+1015665315
3352+1015403078+1015293825+1015212004+1015148474+1015107426+1015152943
3343+1015342917+1015617736+1015843257+1015848276+1015431131+1014654322
3335+1014094438+1014370083+1015382039+1016360442+1016681328+1016404102
3326+1016035637+1015996927+1016320082+1016665239+1016580187+1015945979
3318+1015233388+1015103094+1015705125+1016605833+1017336576+1017689434
3309+1017577980+1017040786+1016410222+1016113332+1016188001+1016159330
3301+1015585489+1014662985+1014005193+1013809993+1013660723+1013230102
3292+1012741863+1012579117+1012764622+1012981410+1012899659+1012378830
3284+1011522607+1010678897+1010212660+1010009073+1009285687+1007290034
3275+1004171107+1000684197+996990124+992301215+985825259+977576970+968255876
3265+958942414+951011848+945688937+943340013+943468725+945411092+948678739
3255+952724019+956891755+960761707+964334357+967853514+971506196+975147533
3245+978251195+980346408+981670174+983040901+984733889+985920418+985858262
3235+985216765+985251350+986025890+986467856+985876139+984478665+982784646
3225+981116204+979510262+977593128+974855593+971281638+967277061+962873422
3216+957673515+951836100+946449382+942597376+940577933+940207061+941283717
3206+943508741+946358211+949267912+951910563+954347289+956904544+959779316
3196+962781288+965525836+967816042+969773604+971585403+973154080+974235686
3186+975003832+976049204+977617055+979269546+980433522+980932693+980999181
3176+981032184+981332718+981972152+982899744+984059870+985358884+986614651
3166+987593054+988149774+988377014+988441164+988317265+987969839+987625369
3156+987522579+987695295+988199622+989060796+989958479+990499042+990635592
3146+990442661+989940602+989386495+989136497+989167437+989265759+989471546
3136+989832586+990044906+989748772+988955392+987974652+987085219+986368503
3126+985730719+985032085+984241594+983510920+983075211+983030175+983240363
3116+983522058+983827268+984170912+984481209+984631648+984624498+984724882
3106+985302367+986385761+987480568+988076617+988251052+988474785+988991215
3097+989723539+990601282+991551633+992319023+992704127+992929579+993451577
3087+994408666+995424541+995979749+995906317+995498179+995139134+994891886
3077+994550579+994056702+993652346+993501976+993338336+992708321+991469813
3067+989867033+988322903+987282413+986865268+986528568+985538545+983807397
3057+981832508+980027928+978676728+978190071+978753667+979897635+980853899
3047+981299165+981587460+982202967+983091162+983815579+984344247+985125938
3037+986298990+987472249+988350199+988934559+989142685+988774907+987772577
3027+986152195+983912457+981263549+978852676+977650333+978385958+980803225
3017+983655721+985837498+987338655+988793334+990509011+992337999+994057596
3007+995476452+996494184+997280894+998122954+999057215+999870534+1000371218
2997+1000534583+1000558235+1000772893+1001306098+1001941063+1002457424
2989+1002903377+1003406674+1003916159+1004234019+1004239245+1004021768
2980+1003755063+1003533873+1003534423+1004126759+1005416354+1006856043
2972+1007725055+1007843316+1007572210+1007322487+1007194944+1006985237
2963+1006573180+1006225548+1006276496+1006673977+1007159328+1007663174
2955+1008223195+1008723604+1008961707+1008874249+1008629614+1008528955
2946+1008726629+1008991066+1008851491+1008076881+1006942058+1005971011
2938+1005521620+1005661539+1006187938+1006643380+1006658575+1006470595
2929+1006775255+1007964052+1009785683+1011678271+1013211194+1014361076
2921+1015441582+1016577025+1017400313+1017537620+1017102048+1016467152
2912+1015872891+1015385477+1014974451+1014597804+1014346362+1014394285
2904+1014733116+1015121452+1015319883+1015266803+1015052490+1014803660
2895+1014609699+1014534617+1014632320+1014881149+1015180583+1015485105
2887+1015868559+1016369312+1016857826+1017188269+1017415165+1017686271
2878+1017961159+1018042085+1017877139+1017640204+1017531019+1017637592
2870+1017915917+1018203319+1018305903+1018135938+1017787480+1017551027
2861+1017764653+1018491821+1019409374+1020162875+1020737403+1021368518
2853+1022144296+1022780705+1022875589+1022419047+1021882885+1021699030
2844+1021829186+1021922419+1021732171+1021357586+1021140935+1021284360
2836+1021612122+1021831661+1021900417+1021975843+1022148284+1022392025
2827+1022674545+1022991237+1023315217+1023610732+1023887339+1024100759
2819+1024001062+1023399994+1022643261+1022389206+1022799132+1023367885
2810+1023633697+1023679145+1023873313+1024389742+1025031170+1025420468
2802+1025327647+1024824763+1024211800+1023853029+1023952726+1024384585
2793+1024808124+1024976715+1024887606+1024720460+1024683606+1024861342
2785+1025186490+1025548424+1025837201+1025937310+1025841395+1025730903
2776+1025783227+1025919846+1025879555+1025567882+1025204023+1025033851
2768+1025076274+1025316302+1025881823+1026746091+1027513687+1027803014
2759+1027660619+1027414815+1027305837+1027339596+1027372874+1027323301
2751+1027304874+1027470989+1027780599+1028068138+1028286165+1028473938
2742+1028544895+1028351208+1028006464+1027891985+1028187224+1028612345
2734+1028798606+1028720155+1028564078+1028402569+1028249449+1028226003
2725+1028393012+1028580923+1028652499+1028792143+1029269656+1030008168
2717+1030611093+1030774801+1030561657+1030303270+1030301208+1030610611
2708+1031080905+1031546179+1031922414+1032177225+1032277678+1032177844
2700+1031866928+1031420493+1030984440+1030709414+1030665479+1030777139
2691+1030926822+1031155093+1031537447+1031858264+1031798171+1031500937
2683+1031491037+1031924958+1032369743+1032422204+1032146697+1031786620
2674+1031416023+1031052233+1030812480+1030754106+1030777896+1030818462
2666+1030915064+1031052233+1031168707+1031272460+1031349880+1031317564
2657+1031210717+1031219999+1031465322+1031918770+1032453557+1032807790
2649+1032730783+1032329452+1032041706+1032173650+1032632461+1033076146
2640+1033187462+1032866439+1032271421+1031652476+1031203704+1031128759
2632+1031664646+1032800983+1034058949+1034848479+1035070837+1035061967
2623+1034950582+1034539281+1033912154+1033572911+1033750921+1034092640
2615+1034253392+1034297465+1034372616+1034485789+1034684907+1035044365
2606+1035461442+1035790372+1036046421+1036213224+1036078599+1035537692
2598+1034881894+1034564446+1034726505+1035102877+1035413725+1035686206
2589+1036041952+1036359262+1036396666+1036153956+1035926303+1036055772
2581+1036612286+1037249657+1037550810+1037540634+1037518838+1037512375
2572+1037432687+1037541047+1038058370+1038622722+1038905929+1039338819
2564+1040367277+1041413611+1041460434+1040375528+1038911498+1037731777
2555+1037066353+1036954624+1037244844+1037585807+1037738034+1037699874
2547+1037483429+1037114276+1036887655+1037245601+1038253156+1039414933
2538+1040119617+1040168434+1039849060+1039631309+1039812963+1040344794
2530+1040893263+1041107577+1040928329+1040693595+1040787585+1041028576
2521+1040697583+1039557121+1038500679+1038591988+1039705772+1040723710
2513+1040945106+1040778990+1041057522+1042048714+1043236343+1043927207
2504+1043933051+1043574624+1043121107+1042506356+1041700325+1041089288
2496+1041174821+1041979476+1043011509+1043747202+1043968667+1043821734
2487+1043740808+1044123368+1044976429+1046015269+1046951593+1047517251
2479+1047575419+1047418105+1047494631+1047746898+1047712795+1047296268
2470+1046910889+1046840551+1046845914+1046497320+1045793529+1045334099
2462+1045652510+1046443690+1046889781+1046736385+1046465554+1046405874
2453+1046373558+1046260248+1046250553+1046326254+1046170039+1045692526
2445+1045173897+1044865800+1044826471+1045039753+1045354589+1045433384
2436+1045057905+1044414002+1043896885+1043744177+1043972930+1044495272
2428+1045073375+1045369921+1045316154+1045240109+1045390342+1045645566
2419+1045910828+1046323985+1046813049+1046942655+1046474492+1045739487
2411+1045308728+1045458892+1045958476+1046354444+1046527297+1046748830
2402+1047096669+1047189352+1046713558+1045890338+1045241347+1045108991
2394+1045478763+1046079831+1046609186+1046922234+1046942242+1046409311
2385+1045057080+1043153491+1041386178+1039950201+1038263263+1035922316
2377+1033389744+1031298450+1029575209+1027677327+1025324416+1022772042
2368+1020454127+1018351145+1016045400+1013714903+1012228116+1011811383
2360+1011823278+1012155990+1013437953+1015690618+1018106510+1020131797
2351+1021827398+1023294796+1024325111+1024506559+1023576491+1021975087
2343+1020795846+1020668097+1021214366+1021851532+1022542946+1023507666
2334+1024575109+1025287837+1025503801+1025401904+1024970595+1024086251
2326+1023113073+1022857162+1023755808+1025413936+1027212328+1028995868
2317+1030684524+1031779469+1031898074+1031465940+1031389346+1032191183
2309+1033728231+1035536936+1037187570+1038410471+1039129869+1039517380
2300+1039969865+1040812337+1041928459+1042828067+1043144415+1042974862
2292+1042788807+1043064589+1043890766+1044914342+1045761626+1046318759
2283+1046494294+1046217137+1045846609+1045927329+1046366407+1046621975
2275+1046674161+1046892119+1047129741+1046954756+1046545999+1046513271
2266+1047130634+1048320326+1049856068+1051071268+1051023139+1049571279
2258+1047801284+1046827900+1046652365+1046686743+1046753024+1046912814
2249+1047098181+1047641907+1049229973+1051606605+1053354461+1053732552
2241+1053702780+1054386975+1055436678+1055669006+1054667088+1053120345
2232+1051977889+1051743774+1052329578+1053319876+1054486397+1055883251
2224+1057269448+1057993796+1057769238+1056887025+1055512792+1053608447
2215+1051672749+1050795211+1051715584+1053966048+1056100659+1057063798
2207+1057200348+1057427519+1057810767+1057737679+1056959769+1055744019
2198+1054559828+1053905887+1053814303+1053544297+1052306407+1050169253
2190+1047966987+1046494157+1046069380+1046888956+1049315712+1053133134
2181+1056834220+1058878278+1059420010+1059491241+1058865008+1056365921
2173+1052465785+1049754171+1049861775+1051365751+1051938561+1051425501
2164+1051450597+1053289555+1057106633+1061327724+1062704845+1060130538
2156+1056764364+1055597224+1056481019+1057911426+1059027548+1059980787
2147+1061160027+1061811425+1060291497+1056529079+1052410779+1049097273
2139+1046420656+1045170253+1047024337+1051721772+1056637577+1059526651
2130+1060179492+1059648350+1058995714+1058543022+1057952130+1057144036
2122+1056632489+1056528254+1056064149+1054848193+1053711994+1053467152
2113+1053637599+1053281304+1052374682+1051595879+1051325323+1051502989
2105+1051983871+1052582739+1053085623+1053414210+1053581907+1053577781
2096+1053509506+1053657126+1054080528+1054440536+1054486397+1054411727
2088+1054492310+1054739764+1055050680+1055231991+1054980892+1054512112
2079+1054814296+1056311053+1057873679+1058365356+1058388939+1059077534
2071+1060104135+1060413195+1060057519+1059986700+1060575117+1061208225
2062+1061071606+1059963735+1058404616+1057233213+1057291038+1058987120
2054+1061243841+1061410369+1057848308+1052557299+1049806151+1051838589
2045+1057157856+1063099713+1068312270+1072249054+1073741823+1071654724
2037+1067086138+1063343592+1062482281+1063141517+1063372332+1063661315
2028+1064938808+1066060224+1065973798+1066132419+1067842321+1069114382
2020+1067191748+1062907951+1059928532+1060572641+1064234674+1068602766
2011+1070840786+1069307450+1065458744+1062523741+1061777940+1061724310
2003+1061056961+1060582473+1061723554+1064132158+1065506461+1064056526
1994+1060630328+1057822731+1057389015+1058891754+1060563084+1060755396
1986+1058747710+1055213564+1051943717+1050646079+1052045408+1055868881
1977+1060786611+1064503718+1065401195+1064031224+1061877775+1059431079
1969+1056576246+1054018028+1052856802+1053021680+1053507581+1053938271
1960+1054823578+1056361726+1057709214+1057687212+1055949807+1053498918
1952+1052144555+1053143447+1056089176+1059271633+1061301596+1062025532
1943+1061822495+1061074975+1060656180+1061470324+1063098613+1064049376
1935+1063559624+1062249334+1060905560+1059921931+1059766198+1060453555
1926+1060838591+1059842036+1058000191+1056689282+1056255842+1056158689
1918+1056258317+1056731017+1057201792+1056990435+1056083813+1055402231
1909+1055889233+1057387434+1058976119+1060173992+1060997418+1061333087
1901+1061154183+1060949082+1061196812+1061724379+1062023951+1061886438
1892+1061390223+1060545895+1059418772+1058554298+1058736640+1060115068
1884+1061867530+1062892962+1062923834+1062589472+1062398192+1062269067
1875+1062044303+1061851097+1061811700+1061738130+1061201625+1060042874
1867+1058968212+1058957829+1060102004+1061539837+1062251878+1061944400
1858+1061200318+1060809988+1061135962+1061990673+1062855490+1063257784
1850+1063118002+1062770714+1062573795+1062520715+1062352331+1062036327
1841+1061833977+1061895445+1062170883+1062436351+1062315271+1061584322
1833+1060379986+1059060620+1058222342+1058525971+1059910243+1061583222
1824+1062830257+1063444526+1063572207+1063468247+1063494649+1063883810
1816+1064393639+1064636074+1064573712+1064300061+1063704012+1062803098
1807+1062049253+1061809293+1061858317+1061696395+1061202587+1060738963
1799+1060588249+1060618227+1060563772+1060273139+1059808689+1059532151
1790+1059742546+1060247355+1060729887+1061026021+1061034340+1060776710
1782+1060464694+1060305798+1060356196+1060576423+1060836391+1060866575
1773+1060417183+1059674271+1059237668+1059289029+1059466214+1059398558
1765+1058908669+1057972894+1056775709+1055693208+1054826328+1053919569
1756+1052930028+1052107358+1051421169+1050403919+1048745446+1047082092
1748+1046449465+1046802392+1047343229+1047633312+1047729227+1047687217
1740+1047469741+1047181308+1046890675+1046531973+1046292907+1046538711
1731+1047115852+1047799771+1048591020+1049323000+1049729006+1049797213
1723+1049665269+1049272808+1048474684+1047570056+1047488855+1048545778
1714+1049909148+1051081444+1052091887+1052862784+1053140697+1053008066
1706+1053106731+1053776143+1054457381+1054484746+1053914206+1053454914
1697+1053490117+1054073858+1055053155+1055914673+1056302183+1056249379
1689+1055935162+1055316974+1054225604+1053253389+1053641518+1055004751
1680+1056220845+1056924222+1057143693+1057058091+1056928004+1056789804
1672+1056581403+1056743874+1057845489+1059304086+1060108123+1060069620
1663+1059660726+1059486291+1059622085+1059666295+1059325745+1058515588
1655+1057278868+1056191004+1055934406+1055773103+1055144189+1054575092
1646+1055118061+1056478819+1057374439+1057440308+1057021375+1056469399
1638+1055866956+1055375279+1055483570+1056033827+1056293520+1055937568
1629+1055112355+1054168742+1053234274+1052081093+1050528643+1048741940
1621+1046869223+1044686071+1041879573+1038388813+1034176248+1029059124
1612+1023678595+1020148849+1020795778+1025516452+1031558968+1036459715
1604+1039719523+1041889680+1043341952+1044092566+1044131069+1043477334
1595+1042014129+1039387293+1035432976+1031066947+1028239961+1028203382
1587+1030076993+1031745916+1031717520+1029729430+1026010604+1020014293
1578+1009374727+991607394+970783498+955002674+945600654+941481185+943772216
1568+951823242+961945554+972089043+981354651+988488262+993396366+998532879
1558+1006469908+1013605168+1017243136+1018491408+1018698227+1019172577
1550+1020904963+1023733187+1026497330+1028266501+1028874032+1028680689
1541+1028987480+1032281460+1037837524+1042253058+1044818908+1046667973
1533+1049013665+1051712421+1053751391+1054757159+1055033354+1055011627
1524+1054794013+1054487841+1054659731+1055456755+1056294827+1057218775
1516+1058633368+1060085846+1060720330+1060161822+1058365562+1055561402
1507+1053260539+1053132446+1052446945+1047551561+1036269191+1017774554
1499+995488210+979173837+977400816+986759589+999015618+1010694780+1021629242
1489+1031484230+1039307123+1044808594+1048352985+1050648141+1052534816
1480+1054348265+1055631465+1055775991+1054655606+1052590027+1050045285
1472+1047437563+1044541682+1040169809+1032859357+1022475289+1012882676
1463+1009822606+1013460092+1019649265+1025447283+1030463885+1035342149
1455+1039463612+1042253677+1043904379+1044268857+1042318514+1036358850
1446+1025372201+1010533203+995121326+983263603+977455203+977087906+980535900
1436+986694683+993526728+998807630+1001825278+1002211138+999626724+994885835
1426+989544772+984694217+980783698+977617949+974876220+973627948+976015307
1417+981289608+986081308+988608379+989916194+992863504+999250971+1007946932
1407+1016610990+1023792455+1029010101+1032277197+1033908442+1034349239
1398+1034109485+1033655212+1033356259+1033541145+1034160777+1034735718
1390+1035019888+1035386428+1036345030+1037649407+1038526875+1038630010
1381+1038197395+1037657932+1037188945+1036595165+1035665854+1034553926
1373+1033563628+1032565767+1031072792+1028843573+1026119789+1023187124
1364+1020039595+1016789619+1013981678+1011928269+1010280042+1008664130
1356+1007278551+1006707805+1007228909+1008566083+1010309538+1012255206
1347+1014389885+1016714950+1019012238+1020821286+1021769437+1021779887
1339+1020827818+1018823433+1016166755+1014056622+1013779603+1015679617
1330+1019006875+1022713461+1026027174+1028343439+1029200281+1028587661
1322+1027091317+1025769407+1025868485+1028160547+1032367405+1037541597
1313+1042869184+1047954542+1052639394+1056811049+1060394562+1063415992
1305+1065914598+1067761807+1068739797+1068805597+1068084068+1066671950
1296+1064696717+1062503320+1060552221+1059205902+1058694630+1059093623
1288+1060198675+1061559570+1062735992+1063472922+1063684967+1063424862
1279+1062857347+1062128598+1061203275+1059899929+1058152073+1056163158
1271+1054183662+1052171576+1049842729+1047095637+1044212408+1041518740
1262+1038941683+1036092488+1032792801+1029304309+1025887049+1022240624
1254+1017472370+1010447257+999957511+984642581+963157867+934786928+899993113
1244+860318627+817777964+774620900+733837030+699445784+675615103+665130101
1234+668371964+683187516+705527147+730617651+754151992+773216551+787109600
1224+797555617+807453096+818816460+831752902+845049626+857346771+867902867
1214+876658371+883796863+889377336+893505537+896752144+900112061+904422398
1204+909846588+915900792+921883214+927315242+932107630+936377812+940164019
1194+943396050+946060565+948183005+949635415+950087213+949179629+946847138
1184+943640822+940637132+938790405+938353320+938903853+939686850+939895182
1174+938959270+936745315+933451404+929508983+925667633+922740331+920857851
1164+919128353+916373079+912302702+907896657+904545197+902794316+901965870
1154+900903103+898809403+895325999+890233284+883498805+875487038+866765774
1145+857674189+848153564+837799268+825869901+811426801+793785568+772870363
1135+749052745+722839656+695090068+667734798+644262063+629114623+625390091
1125+631730390+641780096+648504468+649523919+647097919+643202665+636654859
1115+625369189+609546218+591883601+575854499+564418459+559561234+562074967
1105+571502221+586487258+605359093+626502225+648548610+670594994+692189306
1095+713059269+733052245+752240359+770702681+788194644+804202501+818255958
1085+830245143+840706699+850722370+861221261+872378150+883809790+895121312
1075+905990456+915958685+924608442+931990469+938503622+943969340+946691611
1065+943992442+935042426+923693226+917052117+919690436+929593278+940439939
1055+946861233+946861302+940796990+930041845+916793456+903901637+893824773
1045+887550961+884548233+883320794+881511333+875444753+860231444+832106928
1035+792428661+748320215+707017098+670430529+637280885+608551176+587894357
1026+578286618+580750708+594826305+618159259+646475262+675384632+702320419
1016+726784415+749245676+770039320+789145201+806643077+822859884+837257674
1006+846800576+847325737+839439038+831930293+835040487+850128728+869512728
996+885890357+897983089+907672924+916001382+922681544+926966372+928202406
986+926561122+923687519+922252298+924297800+929774520+936882897+943753239
976+949482913+953811470+956344455+956363294+953485427+948234229+941674665
966+935193622+931105712+931991088+938142720+946721383+954442929+960237784
956+964847486+968992051+972663503+975588330+977660853+978926176+979461307
946+979268239+978070022+975566809+972451940+970654098+971525448+973874027
936+974732657+972498900+969063695+968421098+972939078+981230134+989801783
926+996193788+1000211703+1002877663+1005022311+1006819671+1008160558+1009123078
916+1009978682+1010932883+1012023084+1013117823+1013897176+1014031664
908+1013512072+1012713329+1012131788+1012135295+1012844104+1014059992
899+1015299600+1016121857+1016548147+1016980693+1017559484+1017882364
891+1017633260+1017163929+1017083415+1017545389+1018266437+1018965483
882+1019502333+1019858766+1020157237+1020451790+1020516214+1020132622
874+1019345500+1017952014+1015152393+1010593983+1005736002+1003235677
866+1004590865+1008838289+1013695720+1017462057+1019698082+1020784570
857+1021379107+1022107374+1023378679+1025272023+1027474496+1029447529
849+1030910045+1032055595+1033095879+1033847592+1034060462+1033870763
840+1033614302+1033510755+1033789424+1034664899+1035835751+1036420112
832+1035663104+1033393731+1029950756+1026335616+1024150882+1024449422
823+1026744097+1029714991+1032460295+1034643035+1036130166+1037047238
815+1037750066+1038429516+1039054580+1039732931+1040667536+1041656390
806+1042040119+1041290262+1039406338+1036796828+1034065344+1031729621
798+1029877462+1028313049+1027023317+1026018374+1024776496+1022339702
789+1017932006+1011255763+1002225027+990256125+973466027+948678739+913352200
779+869661517+827596786+801244258+798498335+814580862+836523699+852365922
769+856375862+849401285+835692641+817180471+791286687+757232140+723366742
759+703814701+706633093+727573669+755681340+782376343+804676851+822757369
749+836908254+845990007+846650756+833230063+799877244+746450936+684850802
739+636078199+615292531+620463491+639000482+662163676+687991868+713782380
730+734700954+751106842+770150017+797063871+828947986+858705122+881632482
720+897089050+905786937+906607888+897688399+882517170+872149260+876167726
710+892729965+911742957+925858845+934486050+939284488+940405492+937154553
700+930224805+922973553+920141341+924246852+933534255+944151201+953482677
690+960774702+965940781+969123719+970935862+972086500+972822674+973248757
680+973968361+975811444+978937109+982608630+985752171+987420200+987041972
670+984939264+983176970+983610341+983472966+979842218+974469664+972023794
660+975419189+982643214+989672728+994644982+997995892+1000324189+1001527975
650+1001764360+1002116598+1003579390+1005886785+1008059692+1009677392
642+1010956192+1011934320+1012274251+1012004451+1012008852+1013125593
633+1014716477+1015042795+1013350770+1010790214+1009223463+1009719265
625+1011911905+1014244052+1014415737+1009063879+994640788+972479923+952904711
615+948410589+960986334+980644261+996281796+1004191665+1006836104+1007790992
605+1009024688+1010289805+1009678148+1005236006+995830410+980057150+955418581
595+920594720+880006325+845482723+829234906+832181322+842764715+849300282
585+851037893+856193383+870625206+891236577+910220347+922583017+928039522
575+928222276+924341323+916711979+905752490+893844437+885538806+884154809
565+888106237+891650903+889327832+879275995+861788982+835359035+796460947
555+744681766+687280583+637497674+608046229+604663553+623694421+655564372
545+690778013+723418241+751441204+775088718+794899834+811129155+824435162
535+835892860+846210371+855573888+864011050+871495868+878033086+883753753
526+888643912+892283599+893977137+892845407+887859883+877408503+857623584
516+822760875+771980174+717141129+680325670+678914171+712154229+763153438
506+812958899+852167079+880075150+898524408+910318462+919159156+926990300
496+932708148+934609743+933402174+932248855+934361876+940713933+949591342
486+957590458+961490662+960760126+958030773+955710796+952476428+943342901
476+921423647+879623902+818639550+759430350+732138061+746012408+785914545
466+830824759+868234341+895280139+912587079+921447918+923572214+920155436
456+912322986+902630744+895116293+893824223+899573149+909293168+920173450
446+931587556+943053574+953027166+959725755+962388552+962039338+960964745
436+961273736+963745390+967839144+972209298+975269575+976434996+976337981
426+975245786+972801222+969721487+967478379+966445177+967054496+971022976
416+977069136+980449474+978000922+970670393+961832863+951748023+936987338
407+917992773+902908726+900293441+910545290+926403739+938882882+943214602
397+942991143+943631884+944902639+945033689+943480689+938790267+929292056
387+918016425+913908301+923134786+940257115+956009336+966679430+971595648
377+969594631+960904583+950320916
##END=
