##TITLE=X8212
##JCAMP-DX=4.24
##DATA TYPE=INFRARED SPECTRUM
##DATE=31/10/2018
##SAMPLING PROCEDURE=Diamant-ATR
##ORIGIN=ComPlat
##XUNITS=1/CM
##YUNITS=TRANSMITTANCE
##RESOLUTION=4
##FIRSTX=3997.453
##LASTX=373.96442
##DELTAX=-1.4165319
##MAXY=0.8707701
##MINY=0.53412068
##XFACTOR=1
##YFACTOR=8.1096785e-010
##NPOINTS=2559
##FIRSTY=0.72103429
##XYDATA=(X++(Y..Y))
3997+889103420+889780191+890215153+890088663+889641427+889067627+888380419
3988+887847337+887901946+888531605+889221532+889567561+889596225+889497444
3978+889386829+889319211+889292972+889239686+889109153+888937314+888791862
3968+888720568+888779587+889007505+889302086+889452169+889402117+889269159
3958+888994202+888360427+887564589+887372980+888342347+890015165+891179890
3948+891165558+890630638+890557655+891006435+891303000+891062734+890602415
3938+890407425+890621745+891060970+891533122+891927146+892009611+891686513
3928+891384877+891461682+891530035+891071113+890466517+890433296+890770579
3918+890498562+889223810+887910692+887687772+888532266+889661565+890643574
3908+891716353+893125534+894522440+895078306+894266592+892451702+890429033
3898+888932023+888646335+889948796+892378498+894396905+894463641+893315159
3888+892953842+893473033+893335077+892171013+891261106+890634093+889356621
3878+888326030+889076887+891117564+892906068+893835526+893977818+893032264
3869+891754793+891925015+893356171+893835452+892053563+889525520+888466044
3859+889738150+893149347+897595471+900069860+896903192+891064278+888113033
3849+888161321+889632607+891611251+893532493+894959019+895854741+896213118
3839+895396847+893183744+891051268+890246978+890096307+889434456+888415110
3829+888107814+888836769+890168997+892079287+894596599+896315501+895563762
3819+893745491+892714532+891608385+889747705+888540204+888856319+890044785
3809+891106466+891349230+891163721+891767802+892840287+892336090+890079990
3799+889157147+890490698+891645281+890995851+889620333+888932317+888902403
3789+889051604+889418654+889978342+890156796+889778133+889419977+889151047
3779+888369027+887271699+886822772+887305582+888539616+890418523+892238631
3769+892698583+891675341+890388756+889648703+889765565+890964688+892704022
3759+893525217+892776932+891952503+892705271+895065076+897524766+897648978
3750+895143352+893207778+893180363+892808830+889672810+885908529+884952171
3740+886631604+889116797+890578602+889537647+885895005+881806082+879822661
3730+880676709+883351087+886149309+887789494+888194101+887937666+887179679
3720+885983791+885020156+885272476+887285443+890609986+893477663+893503755
3710+890589039+887367835+885540670+885224114+885886847+886337023+885328555
3700+883321981+882172691+882800071+884788343+887622285+891293665+895293215
3690+897275387+894841054+889901610+886202227+884748140+884972309+886376271
3680+888814131+892270456+895844598+896859093+894304150+892035997+891934422
3670+891401781+888819056+886700398+886582654+886943677+886387296+885367729
3660+885212648+886291822+887685053+888508306+889353608+891411630+894707287
3650+897613037+896993521+892051799+886947646+884727634+884957095+885911322
3640+886523120+886976457+887663665+888299571+888552919+888887777+889939315
3631+890926469+889440630+885137092+881764702+881300268+883063121+886252647
3621+889791730+891781620+891527610+890763670+890526124+890073963+889105037
3611+888530649+888754157+888870064+888071286+886875838+886270948+886441758
3601+886674086+886390309+885936164+885694723+885228818+884273121+883818756
3591+884950113+887181664+888370497+886934857+884466789+883233931+883331536
3581+883915332+884631792+885400142+885775424+885406610+884809070+884943130
3571+886210459+888231806+889970552+889889924+887629488+885097624+884042410
3561+884396966+885006486+885117982+885019495+885160464+885323336+885068151
3551+884648697+884829208+885762414+886571997+886173196+884622090+883239370
3541+883180791+884353896+885565807+885642612+884585488+883449427+883149114
3531+883807951+884898443+885594251+885392425+884601217+883936426+883811994
3521+884152364+884535730+884462673+883845288+883209676+883089139+883371299
3512+883539095+883344178+883035045+883067457+883654855+884494424+884888962
3502+884387484+883321761+882426186+882081700+882029443+881719428+881008406
3492+880370295+880282465+880671417+881182156+881711637+882317115+882827118
3482+882951036+882670126+882237516+881881271+881750150+881986226+882599568
3472+883282145+883516531+882969337+881840185+880790925+880377792+880541399
3462+880759174+880675754+880463785+880542061+881042069+881605432+881785355
3452+881682238+881895456+882611622+883089654+882565538+881427272+880718309
3442+880773359+881054931+880958648+880326711+879458992+878915693+879037921
3432+879558067+879930335+879980241+879985973+880257843+880820472+881343925
3422+881316511+880519717+879394901+878735770+878952222+879740490+880449526
3412+880677003+880482601+880132749+879874918+879894027+880195443+880513543
3403+880517586+880115624+879503458+878987060+878744222+878668886+878531886
3393+878316610+878233116+878392166+878643677+878694317+878288827+877475864
3383+876825553+877015913+877962275+878765169+878849692+878718939+879110463
3373+879867862+880181038+879627008+878570913+877769195+877717526+878180344
3363+878480217+878446481+878662198+879474720+880320684+880476794+880006994
3353+879493021+879232029+879113330+878964496+878707032+878370043+878049591
3343+877730903+877291898+876787040+876422415+876184943+875902783+875696400
3333+875942031+876775794+877889218+878741723+878941418+878612587+878340056
3323+878553568+879064895+879328312+879054384+878496901+878157119+878269938
3313+878657862+878980151+878910548+878238334+877171435+876429251+876623212
3303+877531796+878225325+878025484+877179079+876420872+876091526+876053454
3293+876235362+876693109+877214358+877414420+877251695+877055602+877020470
3284+877014810+876989380+877242949+877978592+878787659+879005361+878545924
3274+877980650+877782572+877895612+878068847+878153076+877960438+877311081
3264+876486726+876201333+876755215+877581114+877967200+877859672+877619994
3254+877355621+876891186+876214048+875654874+875605189+876099685+876702223
3244+876936020+876907356+877196130+877919132+878336307+877832771+876895229
3234+876510245+876939548+877590080+877751115+877156000+876213239+875819657
3224+876500985+877656302+878140361+877655714+877029804+876937049+877037742
3214+876806737+876531192+876777044+877346949+877545835+877211565+876790347
3204+876551992+876336055+876072711+876060290+876550890+877368410+878117944
3194+878528211+878482201+878016517+877385976+876845985+876389709+875956290
3184+875737486+875957833+876502896+877013193+877232806+877091322+876567648
3174+875746967+874955171+874533218+874486547+874629281+874939222+875447830
3165+875995538+876421092+876769326+877108374+877353416+877289105+876653640
3155+875457825+874285162+873851523+874233272+874933122+875551388+875973268
3145+876144592+876047722+875696915+875065125+874339257+874066138+874516975
3135+875116500+875096582+874528294+874144634+874335141+874844042+875269156
3125+875441435+875369113+875120910+874839485+874735485+874928565+875307816
3115+875607982+875589828+875105696+874147868+872985127+872185026+872274253
3105+873235020+874411506+875104520+875219691+875113927+874973546+874719610
3095+874375271+874102005+873941117+873815656+873739806+873865488+874315296
3085+874967152+875416887+875295615+874653241+873914878+873424499+873150939
3075+872904867+872740525+872935515+873545109+874189615+874413269+874148676
3065+873807645+873941705+874698810+875627827+876177666+876238743+875940488
3055+875206609+873983379+872698557+871985258+871960268+872121156+872041337
3046+871906174+872081393+872400816+872403830+872154965+872153936+872455646
3036+872614255+872498642+872465862+872750594+873207165+873536951+873443241
3026+872841585+872081908+871649004+871653340+871861119+871981068+871745066
3016+871105779+870436652+870163973+870322215+870784959+871543019+872406549
3006+872908542+872835778+872514518+872419632+872718034+873180852+873420383
2996+873278017+872939264+872648799+872497172+872486736+872570156+872680771
2986+872814831+872884949+872613373+871912862+871130033+870571521+870221743
2976+870182568+870766291+871848698+872719357+872865178+872484825+872051333
2966+871686414+871191992+870569389+870179114+870261579+870590263+870802599
2956+870842214+870883006+870997075+871076086+871012877+870869629+870796940
2946+870788267+870644651+870247173+869737096+869348144+869184978+869286258
2936+869806258+870866469+872150261+872971897+872967340+872495776+872204356
2927+872441755+873114263+873848142+874285162+874373507+874313091+874210194
2917+873968753+873511815+872957197+872549209+872394422+872249263+871774539
2907+871081157+870711167+870948713+871464303+871726765+871498626+870910935
2897+870293183+869929808+869852121+869923928+870092386+870375060+870661115
2887+870771509+870659424+870390789+870071586+869887179+869981624+870206823
2877+870235561+869975598+869664700+869557614+869699391+869955533+870121638
2867+870031971+869661540+869186374+868952430+869261636+870033514+870780476
2857+871109307+871156272+871353100+871865970+872432788+872663646+872362818
2847+871623941+870747108+870026605+869486394+868856882+867979902+867175538
2837+866962100+867427637+868134322+868650720+868910315+869015932+868992339
2827+868858793+868725908+868663655+868617646+868555393+868517468+868441176
2817+868172320+867764332+867511866+867599329+867944696+868412733+868946697
2808+869482792+869924369+870201016+870230636+869863513+869020489+867922353
2798+867030085+866660243+866744618+866995688+867141141+867036553+866796802
2788+866778428+867204643+867871419+868361504+868425301+868094412+867588083
2778+867161941+866942476+866865155+866750572+866454007+866039183+865774516
2768+865882706+866378377+867143272+867932863+868354522+868160708+867567798
2758+867048386+866855527+866886617+866911165+866805181+866606883+866409246
2748+866250637+866153326+866218960+866525373+866899700+866984149+866674942
2738+866339056+866396678+866811208+867171937+867169585+866817455+866306128
2728+865822143+865500074+865426649+865588051+865827949+865967449+865990748
2718+866019633+866132746+866298779+866448788+866535810+866566018+866602473
2708+866702137+866834580+866887131+866768946+866513761+866222708+865896597
2698+865449728+864951778+864666678+864709160+864835798+864770825+864605161
2689+864614568+864764725+864732312+864429132+864165862+864198789+864428691
2679+864611702+864603617+864364675+863975649+863657843+863572805+863633956
2669+863668132+863646010+863619403+863591621+863592870+863695400+863846145
2659+863891640+863840927+863912293+864288236+864948544+865653612+866029040
2649+865883294+865499045+865365646+865609733+865928568+866047488+866008902
2639+865994643+866013532+865857716+865423563+865014325+865114944+865803181
2629+866610778+867083592+867241393+867266970+867044270+866431222+865805018
2619+865734827+866113416+866243728+865880354+865516538+865468617+865396442
2609+865036154+864738633+864895111+865364470+865806194+866130615+866343245
2599+866343759+866166555+866145020+866552715+867239482+867871860+868407588
2589+869040848+869734377+870107233+869862998+869176305+868583910+868477632
2580+868771477+869195562+869710563+870269076+870500668+870237325+869972217
2570+870138910+870415558+870428493+870543297+871196476+871935500+871867661
2560+870822149+869464050+868440809+867959176+868028484+868503944+868934349
2550+868869083+868309100+867590950+867047872+866962320+867438882+868163868
2540+868637564+868664758+868390757+868058472+867920442+868105216+868473369
2530+868799113+869012698+869139262+869215186+869299268+869288243+868860263
2520+868026573+867526051+868071040+869290815+870028957+869714679+868926044
2510+868532241+868745165+869140144+869267957+869039819+868570092+867866127
2500+866943798+866185812+866134951+866826201+867687379+868128883+867906404
2490+867071318+866015884+865462884+865966126+867373542+868946550+869963911
2480+870154419+869742682+869247451+869056209+869011008+868623011+867868111
2470+867422124+867800126+868586703+868898041+868421993+867680544+867321065
2461+867408233+867524654+867419626+867248301+867148564+867028909+866922631
2451+867075360+867457771+867660773+867505986+867281376+867158854+866922043
2441+866494431+866152003+865926510+865417315+864556799+863966755+864164392
2431+864903931+865613776+866057264+866326193+866505088+866523169+866249094
2421+865769592+865506762+865761654+866217269+866282683+865865507+865402983
2411+865241655+865350799+865551155+865739017+865967743+866372718+866881693
2401+867104465+866777619+866134951+865538293+865026011+864578554+864461104
2391+864874678+865511834+865722774+864905327+862772116+859597731+856087532
2381+852645025+848968794+844628802+839690828+834468857+829030140+823235472
2371+817039209+810650382+804405758+798404633+792621063+787661995+784652098
2361+783897419+784525314+785909064+788560951+793154512+799476603+806587330
2351+813256626+818181738+820289004+819075402+815090259+810217992+806565354
2342+804849833+804588400+805165729+806356913+808136010+810050196+811306500
2332+811790706+812279027+813270003+814432818+815468407+816646215+818321458
2322+820562197+823415322+826930886+830657242+833700654+835570300+836606330
2312+837487867+838663985+840306669+842440394+844927057+847423790+849516503
2302+851073047+852451211+854086324+855867846+857184860+857568888+857153550
2292+856633036+856768419+857726027+859034073+860296919+861518826+862582565
2282+863063463+862793578+862110927+861487589+861227185+861307151+861308768
2272+860861826+860209750+859917595+860104501+860427158+860731587+861164050
2262+861595778+861543374+860890858+860075542+859313587+858444692+857788427
2252+858025385+858917946+859486161+859703936+860566878+862237858+863576407
2242+863846586+863606174+863539952+863508421+863148427+862571834+862142311
2232+862191995+862972913+864209079+864953615+864598031+863533851+862410505
2223+861602908+861416590+861643258+861369110+860423189+860027475+860927974
2213+862159656+862475331+861956875+861725135+862658268+864467425+865889247
2203+865921439+864626695+862771381+861311928+860905925+861292598+861579976
2193+861229537+860168885+858479971+856620467+855218417+854411554+854205465
2183+855095822+857250494+859817637+862024640+864050837+865998612+866808488
2173+865308464+862064770+859011583+857341043+856911006+857494434+859115950
2163+861324791+863395160+864605675+863863638+861010586+858101455+857120108
2153+858115199+860237238+862774836+865065406+866560800+866931818+865872489
2143+863529515+860778405+858244409+855939874+854527093+855458094+858925664
2133+863004518+865582172+866091514+865154633+863593752+861931885+860345722
2123+859078466+858705022+859412810+860318968+860402462+859882904+859662409
2113+859732380+859303224+858346204+857801362+858119242+858576988+858372076
2104+857759468+857562126+857888237+858070660+857920429+858180539+859304988
2094+860571361+861025506+860651033+860020272+859403108+858792191+858244703
2084+857616147+856596654+855665212+856149712+858401842+860801043+861667660
2074+861300683+860942894+860806041+860442078+860116187+860527115+861649359
2064+862653049+862763003+861876027+860447664+859036205+858139086+858192814
2054+858958517+858997692+856927249+853494738+851471921+852893376+856957897
2044+861131196+863653139+864446919+864009531+862314517+859440224+856739902
2034+856128691+857976435+860706083+862666573+863318575+862827975+861953273
2024+861998622+863403245+864646393+863783525+860650225+856911814+854839680
2014+856037774+859811537+863034064+863413388+862305771+862277621+863074561
2004+862511124+860207839+858055078+857675827+858770068+859722237+859369225
1994+858004144+856769081+856447600+856969069+857686338+857637976+856090105
1985+853695020+852460913+853620787+856306483+859219068+862374785+865618700
1975+867125853+865667650+862504142+859471461+857141128+855827716+856363077
1965+858524731+860434434+860769953+860321320+860480003+861128698+860937014
1955+859061268+856077243+853735371+853699577+855958322+858746181+860469493
1945+861037119+860899383+860059740+858837760+858248452+858811889+859919065
1935+860652944+860702702+860230183+859390393+858377367+857544927+857160532
1925+857232707+857632390+858145260+858469828+858418379+858113656+857820839
1915+857513617+856967085+856376527+856389242+857184051+857966439+858009509
1905+857596596+857329504+857204337+856883885+856386890+856023589+855909005
1895+855927821+856112154+856667065+857385951+857452393+856530873+855675722
1885+856016680+857209482+857956443+857684647+856981711+856528595+856414599
1875+856500959+856890353+857819737+859172471+860062754+859310574+857115919
1866+855136393+854424342+854768681+855435677+855820366+855682043+855171966
1856+854698491+854579864+854813295+855202614+855658744+856366090+857544707
1846+858820414+859086184+857946301+856675371+856370794+856764891+856867568
1836+856107083+855039301+854656964+855137936+855731066+856053429+856635829
1826+857471723+857582779+856493242+854902521+853645335+853089101+853228307
1816+853778073+854479319+855224958+855667123+855266705+854152546+853211770
1806+853095496+853776530+854827480+855655216+855812502+855540559+855586275
1796+856331840+857448277+858021416+857087842+854994468+853229777+852444669
1786+852195217+852021100+852098934+852567558+852822523+852402628+852003166
1776+852613715+854210683+855646102+855666829+854479907+853160689+851984791
1766+850990288+850573112+850721799+850703572+850149983+849631748+849378253
1756+849028842+848818932+849484899+851025199+852361911+852388223+851353883
1747+850162625+849178779+848495319+848199710+848092182+847929751+848168840
1737+849447782+851272006+851789433+850312120+848498553+847124211+846081199
1727+845572518+845671961+846057238+846703581+848102692+850522472+853177079
1717+854044871+852291132+849750447+848150025+848016479+849155039+850936340
1707+852514419+853379125+854012606+855189679+856733361+857574327+857235574
1697+855865494+853329440+850781333+849895533+850586048+851767751+852986130
1687+854695330+856757100+857249171+855084723+852551095+851109796+850598690
1677+850581565+850542978+850383340+850793680+852005518+852850526+852075562
1667+850629338+850139179+850696222+851229965+850736793+849647109+849289173
1657+850559074+853569853+857010890+857173247+854031568+852661636+853491577
1647+853961745+852118852+849469611+848014053+847782240+848594101+850577008
1638+853117178+854009886+851882556+849278001+848262845+848523028+849224642
1628+849947716+850767147+851522341+851495808+850664985+850198051+850643156
1618+851051512+850114337+848364640+847285172+847114142+847399903+847701245
1608+847704259+847367343+846959502+846731437+846625306+846448837+846237897
1598+846219743+846479118+846832570+846984785+846748562+846201295+845671593
1588+845466019+845611399+845941258+846334767+846852488+847734466+849145925
1578+850730325+851450019+850856521+850241856+850451620+850931048+850845276
1568+850298964+850008720+850099784+850586048+851941575+854434412+856566814
1558+855100011+851684698+849595881+848765719+848727133+849057066+849164447
1548+849137693+849849890+851782819+854441173+856736594+857164648+854597357
1538+851432526+850325203+850760900+851154409+850536437+849722518+849903912
1528+851067975+852533382+853792552+854720834+854950222+854040461+852749613
1519+852104005+851762607+851073488+850358498+850429717+851738573+854188854
1509+856685734+856341983+852261145+848981436+848232637+848827017+849683711
1499+850058772+849341871+847769304+846767304+847351320+849228978+850894152
1489+850469480+847967603+845021576+842562842+840619624+839154659+838543154
1479+839245282+841169170+843615041+845615882+846166824+844959543+843225795
1469+842277301+842285680+842669635+842782675+842863817+843839799+846065323
1459+848865971+850351662+849203768+847378000+846466109+846261857+846339177
1449+846389744+846210188+845943684+845934864+846265459+846821766+847601655
1439+848615415+849477990+849464687+848654296+848028532+848002000+848245132
1429+848386028+848544122+848973057+849476299+849745156+850040839+850793019
1419+851532484+851213575+850077882+849191641+848804379+848588956+848335681
1409+848149363+848196623+848305841+847952976+847021828+846248922+846299268
1400+846990885+847585559+847539623+846825662+845896571+845484394+845958677
1390+847056740+848142161+848610050+848460702+848271297+848509210+849232432
1380+850287278+851572393+852977384+854086471+854305422+853608366+852588138
1370+851543288+850444564+849703482+850017540+851324190+852586300+853077562
1360+853349799+854107712+855291253+856547704+857782473+859120140+860594954
1350+862033092+863229495+864199965+865196894+866532429+868405530+870696468
1340+872823872+874128391+874626267+874940178+875558885+876585728+877958159
1330+879699478+881941833+884700733+887777734+891025324+894556175+898558224
1320+903062779+908024713+913575294+920085908+927986740+937630433+949362577
1310+963668112+981172875+1002341447+1026707190+1051604030+1070766838+1073741823
1300+1048147926+986588440+895543476+797447760+719329506+675962798+663835529
1290+669299896+679761404+688928535+696083728+702861361+710451149+718802083
1281+727354843+735755463+743915596+751837742+759570189+767282278+775256608
1271+783697798+792582035+801584825+810148904+818124630+825645403+830002006
1261+823430095+799539591+763497711+730316378+711479682+707052888+710483561
1251+716498063+723136490+729871126+736426427+742650472+748429706+753654029
1241+758285148+762371278+765913375+768692414+770431968+771212225+771491444
1231+771729064+772197835+773004183+774067922+775192885+776251626+777248555
1221+778263932+779381472+780618519+781931711+783275845+784554346+785584422
1211+786262369+786699904+787080992+787453113+787760041+788033013+788435930
1201+789093959+789984463+791020346+792103930+793101667+793938591+794709292
1191+795552831+796465898+797332809+798066835+798676061+799210981+799616985
1181+799713415+799475501+799241336+799394800+799896057+800362183+800565846
1171+800624645+800722250+800895044+801122742+801407253+801691691+801880508
1162+801990314+802115555+802239399+802253511+802163255+802094167+802089537
1152+802056536+801931221+801782902+801723295+801777978+801879111+801982156
1142+802177734+802615195+803263008+803827548+804006736+803805131+803532673
1132+803513784+803819169+804220689+804362467+804041721+803423896+802973572
1122+803063461+803610728+804166668+804358278+804169167+803830414+803554061
1112+803354734+803081468+802660397+802297389+802325907+802836057+803548549
1102+804081043+804278238+804260084+804219219+804241122+804303007+804367465
1092+804444050+804560104+804689828+804742967+804658518+804501232+804421045
1082+804494323+804639408+804749655+804893785+805263775+805865431+806395059
1072+806537057+806322002+806094010+806122822+806344345+806552492+806740868
1062+807021410+807257854+807134083+806647819+806186765+806034036+806105549
1052+806257250+806568514+807160248+807878987+808349889+808373997+808145638
1043+808008711+808127998+808469177+808902301+809182476+809032540+808420448
1033+807628137+806977826+806628930+806604749+806779969+806893597+806822745
1023+806768135+806910575+807017294+806700811+805998169+805401805+805308315
1013+805641776+806062627+806390134+806701693+807083957+807434690+807532149
1003+807260279+806793419+806528825+806707867+807140624+807461150+807572279
993+807642911+807768666+807872666+807897508+807916471+808023851+808202085
983+808339159+808339894+808173347+807863184+807506645+807244109+807150620
973+807200599+807312757+807364058+807280491+807188765+807295558+807572352
963+807778074+807778074+807619685+807375892+807116370+806912780+806734326
953+806476715+806132523+805794138+805547772+805494706+805731958+806181841
943+806576452+806693902+806498324+806077253+805620976+805418856+805663826
933+806244314+806876766+807413302+807868035+808163718+808094557+807658198
924+807207948+807082414+807225514+807348036+807311581+807174727+807027657
914+806941738+806927553+806826493+806401747+805593561+804559148+803514151
904+802657604+802079688+801599671+800885122+799864380+798792997+797765272
894+796408864+794330850+791770689+789508930+788065573+787257167+786662126
884+786201145+786031585+786185049+786592523+787239086+788108937+789158711
874+790377311+791700792+792988553+794237067+795587963+796993321+798171129
864+798981446+799539959+799887311+799799407+799020253+797665315+796405703
854+796079004+796896083+798189357+799176804+799784414+800462875+801401667
844+802266520+802690457+802774907+803011865+803833427+805252089+806729549
834+807353769+806412772+803883039+800082522+794855186+787564904+778247542
824+768658163+761777780+759882410+762927218+768839189+775249772+780756181
815+784891408+787653689+789312543+790327185+791148159+791987141+792729619
805+793092186+792989509+792815318+793180237+794167096+795112062+795503072
795+795715629+796324708+797171187+797697507+797745869+797523390+797195368
785+796857937+796647806+796712044+797103715+797665535+798103364+798252933
775+798101232+797617320+796879031+796216740+795890187+795766857+795541659
765+795132201+794732959+794505629+794304611+793938223+793688991+794084264
755+795037241+795778617+795795375+795369673+795069213+795089351+795250018
745+795466250+795935830+796701239+797313112+797316934+796893290+796668533
735+797017649+797751308+798376850+798573091+798449246+798378026+798632845
725+799141672+799520188+799512103+799427727+799796688+800574960+801169193
715+801219392+801033221+801307810+802375150+803691576+804447725+804617800
705+804771778+805045853+805023436+804418840+803425439+802283939+800066500
696+794429411+784640706+774636945+770118866+772400910+777692484+782146987
686+784967699+786921280+788398373+789293654+789635788+789918976+790732527
676+792124729+793410359+793293056+790448898+785152988+781604129+784815484
666+791229228+794856142+795143372+794292631+794057070+794389061+794302774
656+793456516+792433936+791775172+791413929+791271416+791700057+792839940
646+794098596+794784113+794930448+795153883+795810809+796554390+796882412
636+796932832+797317962+798192297+799029147+799442133+799696363+800171529
626+800719972+800890488+800545634+799877389+799121975+798805933+799865629
616+802685974+806240198+808869154+809572237+808349154+806089968+804275739
606+804103166+805766355+808644837+811781298+814235107+815653181+816595354
596+817894213+819687715+821170908+821416025+820752704+820975109+823759146
586+829468042+837711155+848681490+863015542+877647115+880693834+855909446
577+799259269+730335635+678749261+658621275+663433714+679460502+696776742
567+711623812+723947983+734159524+742039849+747904121+752874066+757361937
557+760827816+763340572+765837745+768634497+770881703+771712673+771233098
547+770159069+769061595+768453398+769067034+771225013+774132600+776570020
537+778218290+779615196+781033122+782157864+782810381+783440187+784676279
527+786487568+788014418+788527289+788132677+787127149+785615218+784212726
517+784193102+786112066+788924840+791017994+791672863+791445019+791275238
507+791468244+791780611+791900560+791182998+788977979+786146242+784652098
497+785079710+785996012+785917001+784891114+783800034+783270480+783622462
487+784749336+785804770+785932069+785578322+786234513+788637536+791731661
477+793498484+792957537+791126992+789841877+790004234+791171458+792425043
467+792836486+791871234+790209220+789341575+790063915+792094595+794939856
458+798096381+800787958+802552942+803120863+801685223+797908814+793307609
448+790321305+790239061+792199330+794014220+794164818+793182809+792586151
438+792949158+793854582+795036359+796450023+797408439+797246816+796958262
428+798351714+801208808+802845686+801417910+798261605+795621184+794752215
418+796421064+799637123+801721899+800768628+797088134+792787536+788963941
408+784725008+780077279+777584147+779671128+785603826+791937603+794568249
398+791712478+787471855+786999850+789949110+793727577+796550054+796302291
388+790853726+781399069+773368146+771379212+774350302+778812963+782416064
378+782632442+777543430+771445140+774013607
##END=
