##TITLE=F. Hundemer FHU 145
##JCAMP-DX=5.0
##DATA TYPE=LINK
##BLOCKS=1


$$ === CHEMSPECTRA SPECTRUM ORIG ===
##TITLE=F. Hundemer FHU 145
##JCAMP-DX=5.00
##DATA TYPE=INFRARED SPECTRUM
##DATA CLASS=XYDATA
##ORIGIN=Lara
##OWNER=
##XUNITS=1/CM
##YUNITS=TRANSMITTANCE
##XFACTOR=1
##YFACTOR=8.413848e-010
##FIRSTX=3997.453
##LASTX=373.96442
##MAXX=3997.453
##MAXY=0.9034300489964904
##MINX=373.96442
##MINY=0.458383502607048
##NPOINTS=2559
##XYDATA= (X++(Y..Y))
2559I97788307I97910933I98221643I98699394I99003233I98855175I98374872I97899741
2551I97628844I97576563I97684100I97846397I97938136I97898607I97800138I97798650
2543I97913696I97855252I97320189I96520606I96107389I96414415I97015714I97223775
2535I96869144I96419586I96387424I96799720I97285902I97496725I97406686I97328974
2527I97559703I97934878I97884510I97136073I96236603I96046041I96772021I97650167
2519I97798934I97282360I96740142I96439704I96233982I96050575I95987597I96117874
2511I96452740I96930633I97349659I97459746I97210173I96879983I96912428I97595053
2503I98765915I99747985I99864518I99067698I97870554I96905910I96627930I97153784
2495I98188135I99024981I98938696I98075639I97381325I97310838I97550565I97807010
2487I98102630I98504370I98936996I99214409I99327898I99541484I99983603A000309897
2479A000029933I99266691I98519317I97988009I97584285I97349518I97497505I98090657
2471I98970788A000063583A001233099A001853242A001460499A000347160I99191173
2464I98657882I98936217I99582926A000019024I99996780I99676153I99374724I99232333
2456I99155470I99173181I99357084I99663047A000022778A000345530A000446337
2449A000235372I99966318I99960792A000118910A000093690I99841212I99523986
2442I99253798I99127062I99189262I99315288I99302749I99136272I99032703I99132022
2434I99213914I99034828I98806507I98814937I98957965I98937138I98693232I98387553
2426I98222493I98261030I98289933I98139184I97977312I97977453I98130683I98536673
2418I99339374A000291124A000862741A000879602A000582211A000181746I99804871
2411I99614379I99682174I99785318I99583067I99175448I99179698I99986578A001108277
2403A001813075A001997049A001898084A001669551A001411902A001230690A001188965
2396A001289134A001453627A001567894A001609053A001568886A001310103A000762076
2389A000100278I99417157I98660858I98075922I98351424I99626705A000923806
2382A001598356A001779851A001881649A002082626A002164447A002002433A001766532
2375A001831281A002425213A003148005A003397153A003177333A002803647A002365494
2368A001795294A001192153A000884490A001119895A001779780A002428684A002657855
2361A002393051A001822639A001198457A000835538A001052029A001710426A002229550
2354A002321077A002177340A002196891A002602529A003094308A003209070A003094874
2347A003210912A003595084A003870372A003692986A003030621A002285373A002106641
2340A002554851A003045640A003199153A002979262A002474235A001896738A001629809
2333A002057548A003052652A003604222A003109184A002100761A001115573A000278373
2326I99581438I99105031I98881457I98740269I98422761I97992684I98000193I98915744
2318A000260096A000908859A000631941A000043110I99519594I99074003I98955769
2311I99259819I99520444I99374653I98880960I98337680I98021304I98109572I98675593
2303I99524765A000173316A000309685A000148450A000133999A000356086A000608705
2296A000931103A001461491A002137882A002697243A002841830A002541180A002128247
2289A001860043A001635335A001233382A000714400A000399299A000461922A000775465
2282A001182022A001620387A001930317A001854234A001382715A000866213A000648730
2275A000820520A001271495A001785447A002149500A002263979A002154742A001894117
2268A001541824A001234516A001179826A001440947A001790760A001942572A001885191
2261A001789202A001697462A001512496A001208800A000964044A001128679A001818246
2254A002400561A002256753A001719848A001483096A001637672A001654887A001289701
2247A000922886A000916156A001199662A001546357A001811021A001858413A001622583
2240A001246559A000911409A000635129A000438757A000465323A000778511A001165446
2233A001314637A001215389A001146956A001231186A001298839A001240679A001157369
2226A001026668A000638246A000016119I99552889I99595394A000128757A000842764
2219A001332418A001341769A000950726A000489905A000261442A000357786A000660703
2212A000914526A000856507A000464402A000080868A000065566A000360620A000522279
2205A000119689I99197479I98352628I98129478I98421627I98750967I98987152
2198I99353400I99786948I99820243I99225107I98436362I98069476I98203578I98493247
2190I98795739I99226311I99645408I99686070I99367994I99143923I99297011I99681324
2182A000000887A000069108I99926151I99788861I99740264I99636340I99493028
2175I99625005A000141933A000664032A000770577A000481687A000145688I99993096
2168I99900790I99623801I99216890I99116862I99662551A000623936A001369255
2161A001440309A000858491A000024478I99471563I99548922A000152063A000857357
2154A001397875A001806274A002077667A002091268A001967650A002051455A002388376
2147A002585031A002334466A001808825A001374498A001131442A000917572A000667716
2140A000543106A000674446A000916722A000948247A000556779I99893564I99480348
2133I99808767A000820449A001904106A002493787A002564912A002486137A002523045
2126A002599766A002527862A002304783A002068032A001907648A001878674A002044513
2119A002354018A002598491A002598207A002372082A002118896A002048409A002121163
2112A001996270A001484089A000996560A001168067A002007746A002837508A003094308
2105A002831133A002468072A002448662A002993572A003799673A004270766A004342103
2098A004535711A004970039A005087919A004597698A003914152A003503273A003378451
2091A003265460A002939095A002508381A002402190A002832195A003428182A003703400
2084A003652890A003658345A004017226A004701126A005411946A005848469A005909534
2077A005597479A004915632A004051229A003424002A003274953A003378381A003345014
2070A003051874A002654526A002349838A002278218A002529490A003061862A003628166
2063A003926195A003856062A003595154A003426907A003493497A003702975A003884752
2056A004000791A004097560A004100039A003894033A003628379A003651898A004077653
2049A004666272A005206932A005752054A006363200A006859372A006976472A006672351
2042A006147206A005621990A005232860A005066312A005106408A005181500A005199352
2035A005375746A005966419A006782297A007254949A007065661A006519263A006180430
2028A006246100A006435033A006456427A006336989A006219180A006107889A005950480
2021A005817440A005881056A006198495A006537115A006562406A006299656A006193890
2014A006530244A007032507A007216269A006934818A006473925A006268486A006530456
2007A007038175A007351859A007272588A006962941A006665125A006524931A006595489
2000A006785768A006882962A006786972A006652657A006717689A007026769A007364894
1993A007517911A007572104A007740210A007915613A007800779A007527049A007593498
1986A008068063A008378772A008048227A007227321A006404997A005920727A005805468
1979A005915768A006163003A006571615A007081884A007417812A007303758A006821897
1972A006445235A006579549A007064457A007343996A007167530A006822747A006653437
1965A006732637A007047597A007582376A008172412A008596396A008802898A008865308
1958A008822733A008704783A008594838A008607872A008842073A009288585A009736726
1951A009878266A009579742A009047654A008709954A008862830A009405543A009985732
1944A010331366A010334979A009961505A009292126A008557575A007987729A007699547
1937A007724979A007979582A008229085A008260893A008110993A008044615A008265922
1930A008638122A008786463A008550774A008209887A008130545A008295817A008318982
1923A007867299A006964996A005885873A004801154A003605922A002101540A000299200
1916I98498419I97054606I96044907I95222300I94367815I93591679I93141271I92980391
1908I92746474I92113792I91077599I89901353I88879611I88103476I87366515I86360076
1900I85071688I83910177I83292797I83143818I82934270I82229896I81105364I79939886
1892I78923741I77953997I76992470I76298227I76207622I76815226I77947480I79348221
1884I80788917I82100682I83260635I84414070I85641180I86727529I87378913I87594978
1876I87550207I87199968I86392733I85326008I84494545I84155996I84138427I84224003
1868I84485832I85126094I86099664I87096257I87914472I88683735I89631094I90775249
1860I91940514I92938737I93666133I94133117I94438514I94704664I95085789I95794767
1852I96889334I98032426I98783342I99186853I99692163A000418213A000967799
1845A001098855A001095100A001266890A001520714A001644190A001658854A001712409
1838A001860326A002043025A002132498A002020073A001735645A001420474A001178976
1831A001043882A001005132A000979204A000899791A000907726A001230053A001780488
1824A002118400A001955466A001495919A001102964A000820803A000474178A000088165
1817I99899798A000015127A000292966A000514132A000536235A000371600A000179691
1810A000096949A000118272A000183092A000232751A000190955A000094681A000144129
1803A000411554A000674446A000743091A000742311A000886686A001162329A001348216
1796A001262285A000964328A000741320A000827392A001167004A001527585A001781692
1789A002002858A002375837A003030126A003836580A004411528A004493562A004253623
1782A004081762A004190857A004561073A005102016A005701899A006221093A006555676
1775A006689141A006700900A006747797A006931842A007177661A007326780A007300995
1768A007065378A006580329A005962169A005553841A005634883A006105906A006585429
1761A006770679A006634522A006367663A006224706A006362138A006712447A007037679
1754A007127364A006935243A006572607A006226760A006041086A006020967A006065455
1747A006091525A006114973A006222652A006408255A006463157A006232214A005983209
1740A006193464A006888204A007515502A007594844A007228312A006875949A006836348
1733A007046817A007276201A007392451A007431626A007478665A007544547A007547664
1726A007396489A007102215A006771175A006470666A006201966A006037048A006118586
1719A006453098A006839395A007086488A007191121A007261820A007363548A007474485
1712A007525987A007471722A007360573A007315022A007395214A007517202A007551773
1705A007486457A007467401A007656122A008034272A008401370A008604472A008679351
1698A008720581A008749200A008766840A008819546A008947414A009141802A009342424
1691A009454991A009416311A009254510A009065435A008958323A009023638A009289364
1684A009682816A010052252A010241256A010191667A009986795A009764850A009615516
1677A009575066A009625363A009691954A009754790A009928209A010305013A010783687
1670A011153761A011280425A011168071A010927352A010706045A010602192A010614376
1663A010663682A010679975A010696198A010795800A010961994A011085682A011119969
1656A011088799A010995147A010871388A010830158A010918356A011025467A011032126
1649A010962206A010918921A010970140A011124573A011327959A011444847A011352753
1642A011113665A010959656A011047074A011300827A011515971A011510517A011205120
1635A010689751A010207607A009984953A010060186A010282556A010422114A010292333
1628A009848441A009230070A008697203A008460948A008542557A008816004A009158591
1621A009512301A009828323A010033550A010062737A009934443A009769171A009677148
1614A009648954A009638611A009680194A009803033A009940323A010039642A010154901
1607A010333987A010518387A010623231A010667507A010798917A011198249A011913957
1600A012750520A013351040A013483229A013286716A013157714A013348702A013767586
1593A014186115A014486411A014661388A014741439A014798182A014876533A014866615
1586A014623134A014296343A014305978A014827511A015507585A015840893A015652525
1579A015183062A014923359A015277564A016135592A016932696A017275850A017215707
1572A016881549A016339048A015871213A015889277A016448214A017192541A017805459
1565A018246728A018553895A018672837A018573447A018408600A018430561A018737020
1558A019122537A019191324A018662849A017676599A016754388A016290451A016102438
1551A015750216A015246677A015065749A015450275A016135662A016743692A017063398
1544A017035132A016809432A016649969A016577711A016411872A016246033A016429228
1537A016965921A017377862A017326431A017056314A017050788A017442044A017943528
1530A018222926A018152297A017781798A017268412A016804474A016529681A016518559
1523A016815879A017413070A018216196A019025981A019554810A019612970A019298506
1516A018829680A018332021A017945653A017840596A017959112A018103203A018294971
1509A018632954A018917169A018885786A018669791A018609718A018736028A018721010
1502A018299433A017600657A017059077A017037612A017544055A018243753A018694869
1495A018663770A018335421A018194943A018618432A019518397A020348797A020515415
1488A019898389A018966120A018299505A018091303A018200469A018509974A018965978
1481A019392442A019597314A019628626A019674602A019812671A020045526A020405966
1474A020825062A021077256A020997489A020663614A020383580A020526537A021181109
1467A021956820A022366564A022375561A022301603A022322147A022395680A022520148
1460A022757820A023123148A023606284A024167558A024670176A024975785A025035504
1453A024785647A024219273A023620027A023348068A023359757A023377326A023463681
1446A023909909A024616620A025088350A025070783A024849120A024861377A025207080
1439A025589127A025613355A025111586A024305911A023725368A023799751A024453685
1432A025169677A025448295A025186183A024711831A024451348A024500795A024600752
1425A024514468A024199154A023693136A023140504A022828803A022930318A023327808
1418A023828088A024368818A024946244A025493492A025862716A025914997A025745474
1411A025765026A026294138A027117666A027661018A027570412A027000495A026466848
1404A026481796A027057097A027429084A026761973A025321135A024251930A024073623
1397A024292381A024473521A024706376A025106628A025474861A025511981A025223871
1390A024837999A024497891A024326030A024451065A024746756A024822414A024519356
1383A024204963A024282675A024578508A024595085A024188386A023625766A023150422
1376A022771421A022434572A022206039A022213689A022466734A022784527A022974381
1369A023102887A023405450A023874772A024235070A024416778A024697308A025249940
1362A025882764A026325025A026469753A026303773A025890627A025465439A025313272
1355A025531604A025976557A026330409A026183343A025350747A024307682A023970123
1348A024768575A026214371A027555960A028400670A028562613A027990782A027099885
1341A026591883A026774654A027409815A028097045A028558787A028736244A028729373
1334A028552269A028172207A027870777A028107246A028796459A029213218A028885577
1327A028243261A028080822A028594987A029224056A029302052A028588895A027219182
1320A025486549A023800389A022630944A022255698A022529641A023024041A023434778
1313A023761781A024112939A024648924A025629082A027092022A028506648A029197420
1306A029187289A029249772A029987156A031076977A031606868A031127203A030272009
1299A030260604A031643706A033515682A034247613A033222471A031515200A030529942
1292A030325707A029798861A028370633A026848824A026347411A026789955A027048455
1285A026493839A025831971A026202399A027748861A029301556A029575145A028627291
1278A027734267A027828557A028728523A029919504A031201657A032450799A033451359
1271A034108339A034360038A033954827A032797778A031434654A030662626A030768251
1264A031765269A033991381A037212597A039668588A039911786A038752471A037774367
1257A037784710A038838897A039878420A039118082A036417406A034045503A033866771
1250A035284727A036604214A036835368A035978970A034895809A034758165A035676833
1243A036456935A036340047A035972028A036140700A036644381A036893953A036797256
1236A036529546A036093874A035604787A035480390A035848906A036161103A035821207
1229A034919824A033951426A033119821A032459087A032371882A033195835A034292030
1222A034527365A033754488A032911620A032744081A033289628A034286363A035292520
1215A035860594A036082256A036378160A036654653A036372066A035402182A034238898
1208A033388452A032896318A032494648A032171897A032372236A033348001A034556693
1201A035194121A035184416A035245339A035983008A037140835A037946936A038196935
1194A038528825A039334360A040038591A039915115A039097325A038402516A038344001
1187A038606184A038639478A038556383A038908250A039601785A039797165A039240070
1180A038722930A038837976A039155557A039154211A039360570A040806368A043588653
1173A046533377A048055186A047109173A043985717A040618214A039246800A040367294
1166A042426504A043461847A042814572A041581085A041516408A042961921A044095450
1159A043111609A040645417A039027689A039630051A041707254A043656235A044763907
1152A045380154A045804563A045743640A044888446A043658502A043032336A043454338
1145A044123291A043649505A041627275A039378777A038691547A040064448A042391650
1138A043954618A043717654A042033407A040361910A040046809A041111764A042598365
1131A044095238A045871933A047577150A048208627A047654579A047122066A047445881
1124A047960117A047849392A047391546A047093446A046655365A045525449A043778153
1117A041968445A040661781A040246723A040687496A041415247A041741329A041395341
1110A040553606A039462724A038190630A036755743A035401544A034662104A035068662
1103A036507091A037856472A037836708A036438162A035002213A034669118A035354576
1096A036425552A037558373A038562333A039133525A039261393A039347536A039590876
1089A039659875A039267415A038537114A037720741A036967416A036374972A035971957
1082A035663373A035445678A035530971A035993634A036428244A036270694A035458288
1075A034536007A033994568A033777227A033654035A033670258A033956952A034451990
1068A035005117A035423009A035531042A035516094A035889710A036825805A037899402
1061A038651239A039052554A039341090A039713572A040184170A040496934A040342146
1054A039782359A039156690A038707345A038461385A038338688A038309147A038446154
1047A038882960A039689770A040690613A041480492A041792689A041764777A041743241
1040A041984951A042604528A043461989A044146739A044395390A044306344A044139088
1033A043989755A043767810A043494009A043359482A043443995A043563008A043577176
1026A043595666A043672458A043620602A043325265A043020436A043065066A043508248
1019A043983946A044149431A044106147A044291468A044961199A045816110A046342743
1012A046378589A046110172A045726991A045310800A044992157A044928046A045056622
1005A045166072A045182720A045185128A045150558A044890004A044369322A043772273
998A043284319A042943503A042605661A042150011A041691527A041410430A041268464
991A041141800A041081444A041191956A041342564A041356944A041434728A041818615
984A042370894A042813297A043142424A043590778A044290192A045170039A046109037
977A046890132A047302428A047460120A047631414A047815459A047784573A047580408
970A047461395A047483923A047543358A047571128A047559935A047536699A047567515
963A047741218A048155355A048787045A049313820A049502611A049414343A049137566
956A048771035A048463371A048317723A048304971A048360440A048549657A048993547
949A049495101A049617728A049428937A049256580A049128145A048869008A048441199
942A048005384A047675619A047427533A047371073A047803912A048650889A049187227
935A049163849A049042144A049100942A049239578A049385865A049614682A050017343
928A050652150A051526967A052303032A052436283A052197549A052108219A052250326
921A052548284A052949882A053289353A053338587A053172819A053214757A053797284
914A054665583A055439735A056113859A056870018A057763324A058607325A059233773
907A059683473A060173764A061025416A062240271A063017256A063136553A062931113
900A062386345A061400378A060176173A058867170A057421728A055878525A054454335
893A053509315A053223612A052482118A049505658A043841556A035795987A026433554
886A018251970A013697382A013156085A015332749A018386710A021252375A024164300
879A027658680A031192094A033157439A032986287A031081227A027722791A023144329
872A017715560A011610969A004479535I95775003I85663991I75620490I67904758
865I64424972I65991339I72072979I80945546I90447538I98927574A005496105
858A009618350A010856157A009253235A005886865A002671456A001206392A001822639
851A003945605A006704301A008931050A009971210A010129965A009708814A008800489
844A007770247A007157755A007159808A007627644A008405407A009953854A013816679
837A019864669A023778712A024509721A023338505A020797008A017019547A012524749
830A008564518A006248013A005826650A007103490A009943015A014778843A021571586
823A027531024A030910429A032383145A032551464A031680826A030300275A028887207
816A027528828A026290880A025378942A024557751A022712198A018983405A015033304
809A014065473A017786898A025286069A033731890A041073864A046857900A051120339
802A053871595A054664662A053023415A050171493A046926970A042671685A036272323
795A026306535A011693428I94109456I77177507I61791453I47109772I36120755
788I36992809I51788969I70335105I80270926I73894092I51407986I23345762
781I04503582I03005079I16964323I38587159I59249744I72130290I75185738
774I70726927I59842614I40579494I12340452H81034838H53297350H29251748
767H03946165G71639991G36331570G08956222F89564880F73936196F60762651
760F50500677F43755964F41049904F42527650F47647409F55458139F65184200
753F77212598F93220850G13031641G31964640G46941445G59575393G71825453
746G83681353G94285915H03814825H13058529H22032754H30201585H37874387
739H46064613H54565619H61968233H68103429H73832209H79750347H85936548
732H92111344H97973164I03501251I08626535I12857734I16076754I19293367
725I23907816I30320850I37617698I44728801I50987544I56034195I60042952
718I63583167I67094194I70428403I72966994I74363627I74796183I74635586
711I74189287I73667330I73351591I73722798I75209541I77738002I80854233
704I84216707I87570680I90620744I93237970I95498226I97417879I98877419
697I99799558A000149655I99749898I98266981I95476762I91449940I86307299
690I79992875I72499443I64134665I55470228I47043535I38698025I28792949
683I14436499H93873588H69125595H45136099H27305742H20293746H26552134
676H44534162H69090032H94383360I16475378I33523932I44611347I49066899
669I46624510I37708233I23134514I03222987H77801649H48122477H18703292
662G96205567G85953723G89078384H01909482H18015070H31558901H39513014
655H41869473H40607296H38476608H38130478H41361613H48506790H58624249
648H70334356H82458391H94097942I04559475I13407461I20499508I25926503
641I29996894I33218819I36103044I38877183I41442411I43648120I45563381
634I47460223I49593461I52051294I54817782I57944071I61630289I66133730
627I71553643I77634858I83833173I89655605I94913079I99642077A003886807
620A007613405A010794454A013534306A016073677A018612764A021106939A023253991
613A024620588A024662880A022582630A017229521A007129135I90565346I65889258
606I32414843H91695577H48148122H08099438G77416872G58939027G51496175
599G51544418G55991753G63560064G73952245G86514218G99982391H13134400
592H25345780H36621633H47250848H57412440H67041804H75991446H84198390
585H91646059H98242006I03818194I08296416I11874529I15011942I18214527
578I21828275I25905890I30142614I34049644I37312515I39874768I41654509
571I42363204I41674486I39571000I36653904I34067071I32829264I33145782
564I34514007I36450591I38915508I42039956I45577053I48634273I49931799
557I48566123I44717892I39206027I31929369I21489512I07483018H92848871
550H82708672H80651800H86546844H97514184I10227686I22443246I33173268
543I42092520I49059744I54090598I57497560I59920893I62172366I64862841
536I68009320I71033456I73157628I73436954I70117481I60837081I45034268
529I26349851I11371770I05247201I08490662I17488122I27528789I35908373
522I42788250I49277581I55375796I60338288I64170723I67676154I71337578
515I74895785I77933878I80380164I82373491I83967628I85172637I86041361
508I86481072I86225407I85244115I84023948I83308665I83620508I84923701
501I86622896I88045386I89050622I90067475I91527865I93387373I95165061
494I96271599I96245388I94879429I92453546I89904186I88455414I88815925
487I90778931I93629296I96743684I99733392A002308184A004309020A005832034
480A007101507A008205707A009099510A009850426A010707107A011866635A013300034
473A014862506A016448851A017951037A019135784A019620621A018732202A014988462
466A005854632I89260311I66673540I44258416I29273606I24679913I27825826
459I33976465I39864141I44288736I47347160I49881714I52698499I55702091
452I58058692I59106078I58639094I56585339I53348112I50712893I51418187
445I56896827I65714704I74855548I82259650I87671628I91628530I94483994
438I96214643I96552767I95307239I92744774I89451228I85669233I80921744
431I74470385I66356738I58149511I52328353I50419326I51822902I54720234
424I57731123I60333613I62334308I63775642I65171354I67195638I70076181
417I73471383I76807079I79625989I81751010I83179451I83744762I82934341
410I80209862I75582307I69812722I63993549I58979556I55329538I53693957
403I54815231I58761365I64350800I69787220I73842945I76102352I76381041
396I74699981I71788411I68816767I66511314I64937365I63843579I62760630
389I61425204I60736558I62408267I66758124I71547480I73987532I73602510
382I72552857I73407130I76995587I82240098I87574363I92211694I96161937
375I99566065A002382779A004533870A006059221A007133739A007984186A008762235
368A009556364A010527879A011837873A013380156A014813980A015933199A016848962
361A017819344A019004445A020295595A021352120A021960574A022296006A022641924
354A023029850A023349839A023556696A023560875A023153893A022151208A020464906
347A018112130A015307813A012393339A009588880A007012034A004948007A003835731
340A003937955A005094719A006674335A007788453A007946996A007680562A008204290
333A010263713A013450784A016697858A019290147A021418144A023905092A027404856
326A031760027A036111160A039636993A042159150A044031056A045534304A046544782
319A046888574A046908268A047405714A048857532A050708823A051594761A050464138
312A047638993A044814771A043933720A045815685A049685027A053989972A057615054
305A060333228A062445001A064265831A065890005A067360525A068915559A070751548
298A072507841A073151079A071303046A066081064A058594645A052445635A051355744
291A055893685A063175373A069571831A073091856A073741822A072563664A070194879
284A065931164A058653018A049018342A039748143A032737847A026707213A018915185
277A008716401I98661920I92645525I92946671I97578476I99852476I91461203
270I67167515I27615073H78130423H24198225G68053376G10209685F53259514
263F02774303E65162696E45327854E44796510E60684155E87320347F19561241
256F54068165F88065175G18196242G41065741G54847386G59252570G52882465
249G32811900F99665480F62062515F33655649F24916263F37071821F63265114
242F94662750G25110053G51767568G73638419G90304785H01805700H09297645
235H15057737H21037436H27647479H34423291H41233036H48383952H56211117
228H64759657H73406524H80657468H84267177H81999694H73789916H63616564
221H57477968H58611497H65546206H74608344H83313089H91291783H98963948
214I06360965I13101994I18725504I23058006I26534321I29958781I33453586
207I36461005I39100332I41679091I44055456I45952228I47326758I48340636
200I49347784I50719764I52469824I54416608I56607229I59121805I61662735
193I63766787I65182405I65540365I63922921I59927340I55505507I54212090
186I57678417I63960041I70017241I74714007I78818684I83135103I87573230
179I91613299I93424919I87280373I66083292I31369440H97915145H82546659
172H88696306I05799266I21520045I29758513I30757727I29184770I30589196
165I36895261I45517334I52528693I55386565I53208696I46496854I37309965
158I28843033I24172832I25046516I31058235I39632703I47612744I53263953
151I56401293I57273631I55948123I51831120I43444381I30363638I16090073
144I07140075I07583683I15096809I24048435I31334020I37693924I44921418
137I53205579I60171529I61206234I52102441I33751119I13859427I01983550
130I02201387I10737601I19927111I23556160I19536777I10540308I03292057
123I04625287I15819034I31727259I46275830I57218587I65553329I72835938
116I79388671I83059729I79393843I64816652I40744201I14264497H94545941
109H88527421H97502778I15643915I34385076I48872581I59098923I66801337
102I72601808I76054109I77274347I77016131I75651873I73083032I69562228
95I66135500I63951682I63270332I63629851I64747015I66612687I68879391
88I70846153I72115555I73047469I74215286I74896423I72549386I65360570
81I55504799I48620884I49162181I56293190I65511391I73513675I79649083
74I84176611I87235176I89294952I91356217I93747317I95231226I94942336
67I94430722I96047529I99642432A002460492A002278572I99424525I95933120
60I93346286I90437053I83785355I71716578I56992249I44902787I37374146
53I30602798I19451980I02880470H84584616H70000341H63589786H67245968
46H79740925H96442641I09967841I13607658I05593118H90488374H75557686
39H64389724H55565329H46803699H37270396H27644503H22057477H28763085
32H49678644H74112739H95147807I12323804I24292411I29704674I30489381
25I30009148I29384401I27125703I22427165I17960633I18149637I25232120
18I36746140I47005635I53300790I56781994I58277166I57306643I53735684
11I49181379I45830806I43698701I40322342I34540289I28510859I24930195
4I24597525I26435710I29290466I33447636
##END=


$$ === CHEMSPECTRA PEAK TABLE AUTO ===
##TITLE=F. Hundemer FHU 145
##JCAMP-DX=5.00
##DATA TYPE=INFRAREDPEAKTABLE
##DATA CLASS=PEAKTABLE
##$CSTHRESHOLD=0.93
##MAXX=3997.453
##MAXY=0.9034300489964904
##MINX=373.96442
##MINY=0.458383502607048
##NPOINTS=59
##PEAKTABLE= (XY..XY)
3984.7042129710712, 0.8393457569444425
3976.205021618452, 0.83953261757052
3969.1223621579356, 0.8381096162722872
3960.6231708053165, 0.8383452334647552
3953.5405113448005, 0.8391374393231952
3945.0413199921813, 0.8380579989975768
3932.2925329632526, 0.8380088251043256
3922.3768097185302, 0.8387596651204584
3909.628022689601, 0.8385475915574641
3899.7122994448787, 0.8391221799684624
3877.0477891712276, 0.8391547247325264
3809.054258350274, 0.8398892326283064
3803.3881307818606, 0.8396829410616576
3752.392982666145, 0.8397659100167856
3660.318409679437, 0.8396958748288033
3639.0704312978887, 0.8397199552617792
3491.7511145191556, 0.8398109712211345
3479.002327490227, 0.8397604864503648
3046.960100398749, 0.8213662547949456
3021.462526340891, 0.8280391135737096
1597.8479747771694, 0.8114525121812256
1490.1915509773257, 0.787637774221524
1477.442763948397, 0.7597747477933993
1446.2790623221263, 0.5393696452670592
1376.8689996090693, 0.8189632337232168
1332.9565109538698, 0.6901826894194608
1308.8754687881155, 0.6612895160356104
1296.1266817591868, 0.7051902446059344
1222.4670233698198, 0.63229745890314
1174.3049390383107, 0.7848683637247872
1150.2238968725565, 0.74096703861264
1119.0601952462857, 0.7616612351639448
1086.4799617279123, 0.8273409644392921
1065.231983346364, 0.8316713608173072
1025.5690903674745, 0.7780116236635224
1005.7376438780293, 0.7999153773342265
977.4070060359654, 0.7996683753640296
944.8267725175915, 0.8024236001130384
922.1622622439404, 0.8083491367055184
913.6630708913212, 0.8182911910763736
762.0941584362781, 0.83519685652302
740.8461800547302, 0.458383502607048
719.5982016731818, 0.5257950449610024
685.6014362627047, 0.7214689286100864
637.4393519311961, 0.8028595485022321
617.607905441751, 0.7425613441733833
609.1087140891318, 0.7818019427108808
594.9433951680999, 0.7775849734177537
576.5284805707583, 0.7632538714172448
558.1135659734164, 0.75891524882004
548.197842728694, 0.7600162067205336
526.9498643471461, 0.7475934664126008
504.28535407349455, 0.8104810156357536
485.870439476153, 0.7981551927601632
467.4555248788115, 0.8366988941438256
440.54141892885036, 0.7266113193756528
420.70997243940565, 0.6916666658741496
402.29505784206367, 0.7723581236045785
378.2140156763094, 0.7779423036526201
##END=

##END=

