##TITLE=VLL-009  X15674
##JCAMP-DX=4.24
##DATA TYPE=INFRARED SPECTRUM
##DATE=13/5/2020
##SAMPLING PROCEDURE=Diamant-ATR
##ORIGIN=Angelika Moesle
##XUNITS=1/CM
##YUNITS=TRANSMITTANCE
##RESOLUTION=4
##FIRSTX=3997.453
##LASTX=373.96442
##DELTAX=-1.4165319
##MAXY=0.92743659
##MINY=0.44862443
##XFACTOR=1
##YFACTOR=8.6374263e-010
##NPOINTS=2559
##FIRSTY=0.88181424
##XYDATA=(X++(Y..Y))
3997+1020922445+1021829340+1022516585+1022692554+1022586697+1022613403
3989+1022833398+1022892123+1022483186+1021709681+1021004564+1020768489
3980+1020981860+1021205099+1021131537+1020977582+1021042242+1021147478
3972+1020922928+1020425246+1020081797+1020168677+1020594522+1021114354
3963+1021562972+1021874747+1022024769+1022079975+1022221992+1022552952
3955+1022904545+1022988182+1022732647+1022393890+1022305629+1022523417
3946+1022815318+1023019235+1023154697+1023192444+1023001362+1022535286
3938+1021856322+1021126845+1020731639+1021070259+1021945687+1022497056
3929+1022189559+1021432410+1020905538+1020785879+1020754412+1020556292
3921+1020316422+1020276742+1020470377+1020776080+1021164730+1021691256
3912+1022285893+1022708840+1022723538+1022326815+1021820507+1021617073
3904+1021864051+1022236484+1022380157+1022339305+1022186799+1021736387
3895+1020965782+1020316353+1020346854+1020943009+1021220143+1020859027
3887+1020543594+1020660700+1020490734+1019744143+1019664716+1021078333
3878+1022647216+1022887983+1022169823+1021528675+1021262306+1021169491
3870+1021218763+1021332004+1021342631+1021413778+1021831480+1022485601
3861+1022959613+1022988044+1022502853+1021631634+1020986277+1021748809
3853+1024196985+1026146858+1026261962+1025308556+1024098511+1023032968
3844+1022351381+1021996407+1021577670+1021039826+1021044519+1022096054
3836+1023596758+1024647534+1025023072+1024820674+1024042339+1022869006
3827+1021885098+1021560418+1021760471+1022339029+1023600554+1025177580
3819+1025776840+1025258871+1024651191+1024386824+1024018738+1023397534
3810+1022830776+1022626859+1022993702+1023690332+1023985615+1023689987
3802+1023449427+1023718073+1024186565+1024701360+1025365763+1025810171
3793+1025549875+1024748009+1023960634+1023542587+1023527061+1023803297
3785+1024189739+1024489576+1024710607+1025126791+1025863445+1026440692
3776+1026197303+1025123340+1023882104+1023275874+1023673149+1024655470
3768+1025492668+1026062876+1026592439+1026849561+1026471124+1025732400
3759+1025317251+1025419106+1025542698+1025277710+1024750976+1024608269
3751+1025475554+1026539786+1026256787+1024884436+1024065595+1024577353
3742+1024913213+1023873133+1022197426+1021059425+1021063151+1022036777
3734+1023493247+1025114921+1026409776+1026769374+1026157278+1025193521
3725+1024453968+1023911225+1023454534+1023518504+1024471841+1025781878
3717+1026452009+1026121463+1025452713+1025554498+1026759023+1027861899
3708+1027670059+1026380034+1024795210+1023628226+1023453637+1024402351
3700+1025798233+1026846662+1027420735+1027689312+1027525419+1026737631
3691+1025774839+1025706867+1026798840+1027702078+1027562476+1027086049
3683+1027063346+1027348001+1027233173+1026546687+1026063359+1026551380
3674+1027325160+1027215714+1026626253+1026567803+1026952865+1026884271
3666+1026379758+1026123534+1026278662+1026342839+1025901399+1025212222
3657+1024945025+1025315664+1025602459+1025164538+1024406215+1024407457
3649+1025787813+1027629344+1028591860+1028412302+1027545086+1026629427
3640+1026121877+1025964264+1025788296+1025489079+1025269291+1025156257
3632+1025027351+1025286129+1026748948+1028901634+1029912317+1029334863
3623+1027901165+1026248368+1024955721+1024738762+1025691961+1026909045
3615+1027550607+1027394512+1026713685+1026232013+1026619697+1027755490
3606+1028888109+1029547612+1029666443+1029191741+1028262073+1027399274
3598+1027064795+1027322537+1027939119+1028429347+1028337912+1027782403
3589+1027342343+1027332129+1027413903+1027245456+1026999031+1026811123
3581+1026508457+1026048247+1025751860+1025875038+1026278524+1026689256
3572+1026976672+1027136907+1027332958+1027924213+1028986858+1029825091
3564+1029793555+1029186152+1028735533+1028739812+1028791222+1028409680
3555+1027748037+1027341721+1027316672+1027329507+1027269747+1027357593
3547+1027553367+1027532044+1027281754+1027123934+1027180451+1027359387
3538+1027660812+1028114259+1028536240+1028646307+1028423275+1028153456
3530+1028081412+1028123023+1028054982+1027897921+1027882326+1028110257
3521+1028475168+1028870305+1029296908+1029715231+1029908728+1029685489
3513+1029241496+1029042064+1029211270+1029348250+1029140676+1028761204
3504+1028481586+1028332530+1028255518+1028251377+1028304651+1028378627
3496+1028471718+1028605247+1028860782+1029364329+1030062270+1030631167
3488+1030756277+1030403994+1029799213+1029262336+1028964086+1028755890
3479+1028479654+1028322938+1028460125+1028636577+1028598208+1028559978
3471+1028753199+1029021569+1029295666+1029853729+1030731642+1031496934
3462+1031904768+1032203432+1032540395+1032629967+1032260018+1031698366
3454+1031344151+1031222146+1031050456+1030673399+1030219331+1029861182
3445+1029659197+1029680521+1029992572+1030449884+1030773736+1030911061
3437+1031033825+1031187022+1031242434+1031205861+1031266932+1031467813
3428+1031528125+1031180328+1030632616+1030487907+1031108146+1032247458
3420+1033404644+1034275103+1034703156+1034532363+1033798262+1032885018
3411+1032281134+1032231518+1032664953+1033312519+1033830765+1033952701
3403+1033682261+1033317004+1033155803+1033233160+1033408508+1033590067
3394+1033725735+1033743470+1033691163+1033777767+1034105138+1034512558
3386+1034770507+1034750702+1034398903+1033800194+1033270217+1033112673
3377+1033287883+1033511191+1033592827+1033534171+1033453432+1033546730
3369+1033920543+1034363985+1034508486+1034302430+1034065528+1034015704
3360+1034065528+1034157929+1034414291+1034768368+1034793556+1034171247
3352+1033133583+1032218130+1031755574+1031744670+1032057067+1032543431
3343+1033014752+1033294646+1033292162+1032983008+1032434331+1031899109
3335+1031694709+1031868470+1032162441+1032378158+1032539774+1032655430
3326+1032597878+1032343793+1032086671+1031964114+1031850183+1031571876
3318+1031183985+1030849368+1030561262+1030183792+1029734899+1029442514
3309+1029449415+1029571903+1029469565+1029062628+1028628779+1028383733
3301+1028145037+1027597670+1026756953+1025944321+1025358862+1024862630
3292+1024213339+1023404987+1022662605+1022132214+1021695190+1021128501
3284+1020388120+1019721302+1019418842+1019346937+1018863402+1017426805
3275+1015166744+1012658048+1010281985+1007938079+1005187098+1001505760
3267+996453313+989651598+980639781+968806804+953595707+935067217+914495003
3257+894315372+877320295+865702690+860387256+860851814+865592002+872878426
3247+881271039+889823611+898069168+905702561+912261716+917312783+920851000
3237+923225407+924685328+925152025+924392598+922348944+919276803+915513414
3227+911163394+906137377+900450890+894435376+888695615+883797262+879970870
3217+877248597+875761073+875659632+876914601+879403215+882935015+887092090
3207+891381039+895586351+899745427+903939560+908320703+913069586+918083595
3197+922881060+926991072+930378991+933370808+936191969+938712395+940712023
3187+942271246+943769604+945527568+947534924+949563466+951440192+953124663
3177+954644827+956099158+957549073+958844687+959858061+960864258+962279738
3167+964069238+965803809+967162703+968106241+968811842+969645106+970913118
3157+972544177+974185794+975568772+976636937+977477517+978270343+979216297
3148+980413161+981773435+983045380+983979464+984591629+985201241+986073218
3138+987110952+988087131+989023492+990057361+991063903+991762879+992127308
3128+992381117+992687855+993078782+993622491+994451822+995577264+996749286
3118+997598836+997975065+998055458+998073883+998093343+998165249+998521327
3108+999362183+1000477274+1001277138+1001266718+1000373141+998799013+996765848
3098+994505855+992376700+990848876+990317588+990843356+992071066+993479370
3088+994712532+995685123+996525288+997501881+998799841+1000255760+1001481952
3078+1002291685+1002740165+1002701175+1001807667+1000019340+997935800+996316265
3068+995567534+995785667+996884196+998500349+1000086692+1001213100+1001624315
3058+1001194744+1000059503+998565354+996944370+995274322+993774307+992815518
3048+992634443+993250403+994554298+996288662+998071813+999600948+1000763033
3038+1001514662+1001763917+1001436546+1000627089+999644561+998865191+998465293
3029+998311476+998199339+998179189+998530781+999403725+1000627848+1001946096
3019+1003270280+1004581558+1005745575+1006582014+1007026905+1007146081
3010+1007118064+1007212190+1007562955+1007936906+1007970651+1007683718
3002+1007482768+1007627408+1007983555+1008361370+1008772310+1009226447
2993+1009515657+1009386683+1008855395+1008221423+1007741201+1007340406
2985+1006731622+1005773109+1004618753+1003563561+1002806688+1002338956
2976+1002011515+1001717682+1001455316+1001216067+1000973437+1000814237
2968+1000919542+1001341729+1001882679+1002258148+1002364902+1002347581
2959+1002395956+1002554811+1002776532+1003067329+1003527263+1004269576
2951+1005264180+1006249606+1006952446+1007381258+1007744099+1008161732
2942+1008630016+1009104097+1009496611+1009803763+1010217877+1010782841
2934+1011026161+1010363759+1008797635+1006845209+1004944468+1003308165
2925+1002165126+1001683661+1001743698+1002112404+1002733264+1003572532
2917+1004387855+1004989875+1005565259+1006392106+1007406515+1008362613
2908+1009237213+1010147006+1011029956+1011730105+1012293137+1012894674
2900+1013504217+1013863746+1013845390+1013650651+1013562804+1013642853
2891+1013774726+1013853049+1013801363+1013584749+1013353298+1013400982
2883+1013833037+1014409732+1014798451+1014839372+1014539535+1014006246
2874+1013457085+1013108183+1012942083+1012725399+1012351793+1012013588
2866+1011893170+1011851213+1011601545+1011090131+1010565674+1010327461
2857+1010452847+1010731085+1010858818+1010700377+1010365070+1010098563
2849+1010146454+1010601144+1011316199+1012043468+1012653839+1013149795
2840+1013546035+1013855465+1014130390+1014435679+1014801625+1015213945
2832+1015635304+1016062391+1016518323+1016912424+1017015797+1016734247
2823+1016292876+1016000698+1015943491+1016021469+1016132502+1016221246
2815+1016261822+1016221660+1016033063+1015718389+1015506674+1015571679
2806+1015706451+1015560431+1015141556+1014808664+1014824812+1015107328
2798+1015358446+1015389154+1015321734+1015409236+1015677467+1015960881
2789+1016261753+1016779309+1017547016+1018282980+1018691366+1018767343
2781+1018716416+1018659071+1018559976+1018422996+1018358336+1018388424
2772+1018367031+1018189130+1017938426+1017758179+1017708356+1017827393
2764+1018149727+1018552799+1018763755+1018695162+1018607108+1018757130
2755+1019049101+1019218583+1019195741+1019101546+1019038128+1019041510
2747+1019145228+1019375989+1019712193+1020061508+1020251555+1020121476
2738+1019700945+1019224103+1018887209+1018686398+1018573156+1018612422
2730+1018847599+1019147160+1019338035+1019428296+1019623725+1020150183
2721+1021000699+1021822440+1022217576+1022201566+1022117170+1022109027
2713+1022047887+1021963422+1022091016+1022432465+1022672611+1022611608
2704+1022376431+1022203084+1022237450+1022503612+1022853548+1022998464
2696+1022787991+1022434949+1022284651+1022389266+1022508442+1022522658
2687+1022573792+1022727955+1022799792+1022682548+1022601533+1022825048
2679+1023284500+1023686330+1023893697+1024013011+1024163033+1024329203
2670+1024422639+1024350595+1024074289+1023711655+1023508291+1023585717
2662+1023799847+1023960151+1024117557+1024491025+1025134657+1025803753
2653+1026196543+1026246850+1026120290+1026036170+1026167560+1026563939
2645+1027060102+1027405346+1027588837+1027878254+1028415960+1028950629
2636+1029131498+1028972781+1028841736+1028981752+1029220724+1029229005
2628+1028968433+1028757961+1028913503+1029423054+1029996989+1030359968
2619+1030448228+1030365695+1030239274+1030184482+1030333676+1030704384
2611+1031024992+1030957158+1030563057+1030245277+1030182895+1030212913
2602+1030283369+1030508334+1030715770+1030480386+1029768022+1029090369
2594+1028849050+1028929444+1029111279+1029471014+1030069032+1030590452
2585+1030720531+1030625922+1030692928+1031006429+1031401083+1031783315
2577+1032072249+1032016353+1031419715+1030531589+1029951375+1030026317
2568+1030492393+1030853509+1030954053+1031038587+1031412055+1032133044
2560+1032872873+1033124888+1032773019+1032294936+1032155334+1032282376
2551+1032412662+1032581040+1032941466+1033383942+1033605317+1033457641
2543+1033143451+1033069889+1033430246+1033980097+1034370334+1034542300
2534+1034619312+1034635184+1034565279+1034395797+1034067253+1033566949
2526+1033081689+1032856518+1032921937+1033084587+1033124957+1032961478
2517+1032678824+1032435504+1032375812+1032643699+1033302099+1034109071
2509+1034547821+1034299601+1033592482+1032928976+1032551988+1032333373
2500+1032111859+1031960388+1032078597+1032513896+1033090315+1033619050
2492+1034081606+1034518630+1034852902+1034998439+1035034392+1035025076
2483+1034828888+1034381375+1034025020+1034234527+1035055508+1035978896
2475+1036330972+1035832739+1034901553+1034286559+1034288008+1034526980
2466+1034559069+1034404768+1034329205+1034408219+1034551892+1034784171
2458+1035254387+1035973652+1036695124+1037072388+1036873094+1036100625
2449+1035072208+1034319268+1034181184+1034499998+1034874916+1035143010
2441+1035411517+1035738267+1036033688+1036235328+1036374516+1036502318
2432+1036704509+1037096057+1037587597+1037740311+1037142223+1035981450
2424+1035006099+1034813637+1035328432+1036015746+1036391354+1036231877
2415+1035576997+1034769748+1034264614+1034156825+1034105828+1033865820
2407+1033633265+1033776594+1034435200+1035353275+1035986004+1035981519
2398+1035614744+1035439051+1035583484+1035736611+1035682440+1035513786
2390+1035426906+1035477350+1035515097+1035417590+1035366732+1035678507
2381+1036391630+1037258915+1038042425+1038626918+1039016465+1039351910
2373+1039779687+1040296138+1040774359+1040933767+1040428770+1039448037
2364+1038863820+1039155929+1039756293+1040009136+1039958347+1039766920
2356+1039334727+1038767555+1038369106+1038092248+1037641699+1036992753
2347+1036464916+1036410055+1036861501+1037563652+1038417963+1039479366
2339+1040547463+1041261897+1041548968+1041615836+1041638401+1041700853
2330+1041818994+1041797118+1041381487+1040739097+1040405308+1040613779
2322+1041035415+1041379554+1041790632+1042338136+1042658883+1042396103
2313+1041641231+1040781260+1040126725+1039729656+1039419882+1039076846
2305+1038907295+1039240187+1040011206+1040736750+1041039486+1040958540
2296+1040760351+1040681613+1040819145+1041082202+1041269143+1041297367
2288+1041303370+1041460224+1041798636+1042260710+1042711398+1042814702
2279+1042319159+1041622323+1041418268+1041703889+1041978056+1042308394
2271+1043040287+1043726221+1043734018+1043562121+1044199956+1045522415
2262+1046393357+1046040384+1044687287+1043201212+1042452482+1042701668
2254+1043433974+1044030750+1044524912+1045273574+1045995253+1045846266
2245+1044660443+1043388153+1042931186+1043171470+1043528652+1043890044
2237+1044531468+1045488532+1046409229+1046884138+1046740602+1046229326
2228+1046068884+1046923403+1048524789+1049694120+1049624422+1048759000
2220+1048162293+1048446397+1049456527+1050546913+1051083998+1050904096
2211+1050355901+1049911010+1049787556+1049857322+1049812743+1049358951
2203+1048308520+1046894420+1046068125+1046648339+1047948922+1048389811
2194+1047812978+1047754735+1049036065+1050735649+1051998070+1053075759
2186+1053935660+1053611947+1051957563+1050663467+1051357405+1053536590
2177+1055373775+1056045769+1056164531+1055865522+1054149721+1051076614
2169+1048901224+1049559969+1052262990+1054830548+1056214768+1056676083
2160+1056803746+1056964534+1056818445+1055963926+1055202705+1055647182
2152+1056977024+1057843412+1057619690+1056785874+1056008091+1055454375
2143+1054783968+1053625817+1052143400+1050993667+1050740341+1051423307
2135+1052554753+1053408030+1053541490+1053013859+1052022982+1050683824
2126+1049313199+1048403957+1048042634+1047861766+1047781786+1048125443
2118+1048785499+1049098586+1048865893+1048663839+1048790951+1048750305
2109+1048208459+1047703463+1047873911+1048510643+1048900879+1048835943
2101+1048817518+1049335971+1050276128+1051055498+1051220426+1050914999
2092+1050639176+1050564165+1050514135+1050643731+1051367687+1052356288
2084+1052543436+1051632538+1050706803+1050724331+1051234641+1051363133
2075+1051349124+1051995034+1053032698+1053339712+1052607337+1051556630
2067+1050653530+1049809983+1049193678+1049304366+1050272264+1051582301
2058+1052508242+1052766606+1052618033+1052100546+1050713773+1048543076
2050+1047039266+1047708431+1050209467+1052707673+1053977410+1054309680
2041+1054596544+1055161163+1055748278+1056327388+1057252847+1058641897
2033+1060132595+1061208352+1061410750+1060595497+1059252405+1058141455
2024+1057504931+1056972470+1056135410+1054999548+1054077954+1054047245
2016+1055036536+1056253688+1056631711+1055850685+1054530918+1053593384
2007+1053722772+1055192147+1057723270+1060517725+1062548890+1062908418
1999+1061304065+1058523687+1056104287+1055254461+1056114569+1057778821
1990+1058943597+1058890531+1057878606+1056546694+1055233966+1053996318
1982+1052949613+1052529220+1053544043+1056347124+1059527676+1060833917
1973+1059904111+1058504986+1058045535+1058288372+1058493807+1058446123
1965+1058055610+1057118834+1055983938+1055600326+1056283983+1057024225
1956+1056668837+1055397030+1054430512+1054556796+1055451201+1056229536
1948+1056260796+1055592597+1054860084+1054609242+1054625044+1054277316
1939+1053490424+1052812151+1052693527+1053120959+1053791987+1054344805
1931+1054518842+1054322861+1054019159+1053880523+1054016261+1054355501
1922+1054637673+1054465499+1053546320+1051928511+1049992439+1048205009
1914+1046987166+1046672561+1047269337+1048404371+1049699985+1050940463
1905+1051911397+1052519628+1052985497+1053552117+1054179187+1054748499
1897+1055282823+1055768842+1056033003+1055977728+1055788578+1055803691
1888+1056177297+1056728459+1057171763+1057344212+1057225037+1056908293
1880+1056542691+1056241129+1056132235+1056406333+1057059557+1057726997
1871+1058035943+1057983221+1057824504+1057763156+1057877640+1058142283
1863+1058423902+1058629959+1058827665+1059052215+1059148894+1058992938
1854+1058707868+1058506642+1058423695+1058281885+1057904829+1057378233
1846+1057101720+1057451864+1058237306+1058862859+1059058840+1058948014
1837+1058752654+1058640655+1058642587+1058619469+1058373251+1057872050
1829+1057407630+1057313159+1057521976+1057625832+1057406802+1057190464
1820+1057441927+1058164573+1058840914+1058999838+1058746719+1058569301
1812+1058725258+1058953948+1058847815+1058355240+1057735485+1057261887
1803+1057093164+1057158928+1057082812+1056492040+1055484601+1054573151
1795+1054258477+1054635326+1055104508+1054857254+1053896533+1052783996
1786+1051805056+1050822874+1049661617+1048457093+1047520317+1046949350
1778+1046577952+1046381350+1046680497+1047727960+1049072225+1049871331
1769+1050047921+1050070003+1050065104+1049925087+1049787280+1049924190
1761+1050296692+1050665606+1051029758+1051448771+1051790979+1052050378
1752+1052529220+1053423901+1054427752+1055139219+1055595289+1055993185
1744+1056396672+1056858055+1057444549+1057971490+1058109781+1057962519
1735+1058122892+1058971614+1059906182+1060290898+1060356593+1060471145
1727+1060720193+1061030312+1061249618+1061177160+1060786992+1060400620
1718+1060573966+1061496320+1062451796+1062784550+1062620450+1062346767
1710+1062217171+1062348216+1062753152+1063239516+1063526035+1063627061
1701+1063799718+1064083890+1064211209+1064164974+1064106594+1063983899
1693+1063786814+1063743408+1064001289+1064392216+1064761336+1065391167
1684+1066586444+1067735763+1068132279+1068029527+1067923118+1068114268
1676+1068614020+1069030963+1068922345+1068314252+1067590295+1067073706
1667+1066739227+1066467959+1066312071+1066314210+1066384874+1066527788
1659+1066865096+1067357464+1067833132+1068226889+1068522516+1068528175
1650+1068288512+1068104814+1068057268+1067746252+1066808441+1065530493
1642+1064292362+1063204529+1062331585+1062036993+1062922910+1064726971
1633+1066119747+1066600177+1066643306+1066819896+1067316474+1067895239
1625+1068349239+1068700969+1068920482+1068866449+1068526381+1068123653
1616+1068080869+1068600840+1069433069+1070307186+1071028728+1071275222
1608+1070577143+1068321498+1063371320+1053675502+1037087431+1013798396
1599+988142820+967163186+956816490+958749181+969811138+984663121+999009003
1589+1010718112+1019160548+1024371021+1026769857+1027238210+1026964803
1581+1026885858+1027368151+1028627606+1031063222+1034365227+1037321160
1572+1039620901+1041877443+1044238325+1045833293+1045865036+1044266963
1564+1041422477+1038163326+1035823078+1036514256+1040985039+1045704939
1555+1049013017+1051837904+1054516496+1056800089+1058535004+1059759265
1547+1060680169+1061610872+1062684489+1063781431+1064979607+1066507155
1538+1067855836+1068543495+1068906267+1069432379+1070144122+1070633591
1530+1070787685+1070862213+1071048326+1071312555+1071561465+1071850468
1521+1072289148+1072745701+1072955415+1072900002+1072773511+1072748875
1513+1072853353+1072951205+1072852041+1072642535+1072831477+1073477801
1504+1073741823+1073262843+1072017673+1069479718+1064047938+1053735746
1496+1039848487+1027837471+1021805740+1022394994+1027891711+1034423055
1487+1038520439+1040003409+1040273159+1040273642+1040264464+1039941647
1479+1038647551+1035789264+1030800097+1022138632+1006476157+981586977+950459803
1469+918006859+888203593+866837379+860362414+867589215+880037255+892391376
1459+905138978+920240767+934869304+943970553+948390547+951185071+953926874
1449+957122400+960830375+964615501+968029436+971145604+974005547+976219443
1439+977456677+977529203+975827688+971651497+964860960+955143682+941873832
1429+925500719+908149012+892081671+878935690+870156774+866780793+869547576
1419+878859161+892371916+905592564+916891423+927088235+936478349+944434835
1409+950287216+953831299+955221246+954554634+951926901+947968498+943822532
1400+940616793+938803209+937711650+936105502+933167236+929029896+924616251
1390+921285539+920698148+924058602+930969143+939945558+949701895+959248242
1380+967709103+974702453+980685326+986493956+992117232+996111727+996757360
1370+992960986+983921360+969091667+948221824+921677294+892753527+868756820
1360+855970023+855167674+863370516+876589507+891073059+904149342+914617629
1350+922298016+927298845+929637438+929116846+925164584+916689163+902169451
1340+880619195+853732181+826709430+805549687+793948713+792389974+798440061
1330+807827415+816334028+821335064+821893886+817899668+809471517+797150795
1320+782692776+769653066+762519977+764537892+776135002+794926548+816935082
1310+837759864+852400476+856335210+850433834+843499555+845507533+858323314
1300+875526103+890014071+899019331+902991605+903058542+900410797+896871890
1290+895044711+897353561+904611002+915586838+928057030+940148302+950852456
1281+959861856+967319833+973609444+979069932+983809154+987755274+990586993
1271+991283761+988028612+979460721+966795514+954595901+948402140+950762608
1261+959636892+970600376+980065571+986488229+989642972+989830396+987803096
1251+984862276+982507122+981812631+983107901+985897663+988684114+989320155
1241+986685383+982399540+980179847+982874449+990218286+999542568+1008168702
1231+1014932877+1020054608+1024224519+1027881980+1031071503+1033718489
1222+1035819282+1037323092+1038000123+1037563376+1036007120+1033937933
1214+1032533356+1032907583+1035346788+1039195401+1043428868+1047217582
1205+1050106508+1051996483+1053064511+1053590002+1053750720+1053479176
1197+1052395484+1049824268+1044638499+1034675622+1016449798+986835543+947242747
1187+907317887+882607781+884445518+910017043+943695352+969219538+979856064
1177+977716558+967032348+949857645+925917317+894261684+855134826+810774929
1167+764485653+719309260+677860647+642871750+617121081+602527946+599357262
1157+606352199+621460751+642259378+665887723+688833723+706836239+715606874
1147+713153316+702452405+691195019+687406098+694508824+710378666+730436843
1137+750990218+770290557+787902491+803811322+818001316+830521952+841559619
1128+851195607+859112344+864435852+865808755+862201047+854353041+845347643
1118+839217507+838615486+843567665+852089046+861741320+870786328+878456295
1108+884680074+889686424+893710591+896830347+898747856+898412135+893594107
1098+881046765+858272662+826250531+789922131+755241420+726624736+707682615
1088+702075694+711309921+732419564+759379105+786678230+811288620+832293855
1078+849764117+863954388+875084248+883585616+890307353+896276149+902231419
1068+908373148+914425857+919953144+924740533+928893262+932547135+935639978
1058+938048199+939809682+941094393+941984658+942385522+942225494+941612639
1048+940639703+939244650+937475300+935603818+933809488+932099346+930704775
1038+930248015+931351858+934202554+938510273+943776573+949507432+955271207
1028+960757297+965796701+970274385+973755878+974328916+968098512+952863539
1018+933936461+922689426+925960861+939316624+953168620+962463367+968115419
1009+972417617+976309221+979747102+982526720+984688860+986611752+988692740
999+990964257+993082439+994689415+995773521+996617137+997467515+998421405
989+999513516+1000704032+1001858526+1002838914+1003593717+1004209194+1004889815
979+1005810718+1006993230+1008326729+1009637663+1010764347+1011479263
970+1011244776+1009526768+1006805529+1004652567+1004072284+1004252324
962+1003606484+1001669722+999435883+998012812+997252488+995775177+992372974
952+987173541+981034711+973914388+964162329+949245273+927399320+900108820
942+874013598+858857224+861100517+878907673+903911612+927579567+945635219
932+957921782+966113376+971910965+976319572+979702178+982146903+983644088
922+984008861+982971197+980474785+976653361+971401966+964152875+954185928
912+941291340+926491528+912058765+900099297+890439295+879593607+862198425
902+835243163+802823964+776071446+766003747+775627728+799231369+828132294
892+855957118+879918631+899660686+915839405+929299301+940817329+950961556
882+959992418+968029022+975174532+981296249+985885518+988116942+986450689
873+978171248+960915669+936429837+912301188+897676309+896239023+903983932
863+913550705+919567807+920374503+916926617+911459919+906659280+904804844
853+906550938+909866055+910589942+905589872+896483723+889489546+890186935
843+898329119+908064823+912293114+906777145+892576523+876291947+866530986
833+868225463+880090667+897228934+915069145+930939883+943603986+952568118
823+957736428+959149010+956346964+947170358+928055512+898493633+865380564
813+838083094+817343192+795160069+769355920+751507360+754540650+777223800
803+806021353+828562970+841494614+848626806+855754720+866685287+881819648
793+899226906+916470616+931732641+944322767+954679676+963627384+971488294
783+978001145+982933036+986488229+989101539+991104135+992736919+994248043
773+995751991+997203493+998682667+1000415857+1002311146+1003797565+1004450168
764+1004573347+1004783612+1005082897+1004761047+1003320172+1001127323+998965459
754+997225368+995701892+993993475+991948509+989700248+987236269+984118652
744+979894915+974650490+968835373+962570328+955321928+946219160+934537102
734+919911395+902277240+881697574+858179778+831827917+803509000+775213477
724+749370683+728116193+713736704+709250670+716861636+734478608+753958917
714+764511048+760101198+743873829+724409943+708784525+700283640+700643859
704+710930380+729456179+751171294+770758289+786084904+798427777+810060081
694+822224225+834694416+846104792+854680550+859150851+858771793+852392333
684+838270587+815564388+785997955+753801304+724362811+702620300+691238493
674+689462381+693612901+699047579+700449741+689374396+661761701+629948248
664+606631334+596336808+600138012+614786285+634246996+654577201+674806862
654+695344504+716657926+738223226+758668052+777033340+793668060+809793367
645+825972224+841244807+853906839+862294483+864831541+861117424+853716034
635+847367559+845280913+846868911+849531079+851546510+852722189+853365200
625+853618319+853298263+851540989+846598678+836392206+820002669+799588965
615+780596262+768788058+766441599+771314213+779257863+787598996+795930123
605+804600145+813472567+822023758+829919793+837210634+843841556+848461533
595+847710664+838089512+820122742+800394903+787674283+786469276+794699238
585+806839298+818754049+829519205+839231930+846906589+851178148+851402974
575+846979944+836431126+817636957+788591668+748914820+702588971+658971800
565+628741447+617671208+624373968+643201329+668258680+695141415+720926104
555+743795643+761788429+770750284+764416715+739386277+701871432+667504498
545+650671175+652538584+660050317+656144705+631453093+590263396+548109148
535+521907655+519395957+536652469+563944935+592538295+617829581+638122245
526+651531007+656251804+654356860+652447839+657191409+670366787+688197820
516+705591966+720127826+731753643+740837020+747852106+753792678+759576328
506+765432297+771396262+777687392+784191203+790365296+795954828+801107473
496+806011278+810940892+815725521+818336485+815658652+807450428+797830311
486+791000785+786489288+780678174+773150776+768757212+772448625+783739963
476+797443870+809355860+819180308+828060458+835200793+836774645+827526961
466+806639797+783033535+769307546+768370977+770313191+764844699+754460532
456+750888156+759348465+775567554+793492712+809004544+820326038+827727014
446+832663873+836483157+839128419+838931057+834304110+826172346+818434338
436+815535474+819003235+826784718+835595377+842714251+847354516+851458318
426+857324293+864505481+870575028+874116833+875183757+874857697+875790125
416+879087851+882327542+882864558+879816777+873436972+863926785+851942750
407+840285811+833164729+832225607+834091568+833232701+827794158+823192399
397+827013201+838725070+851364330+859719541+863440696+866397595+872997464
387+883365759+891473923+890023939+879604579+868167290+861784035+861259993
377+866128466+877248390+890561852
##END=
