##TITLE=JPK-574,,X17110
##JCAMP-DX=5.0
##DATA TYPE=LINK
##BLOCKS=1


$$ === CHEMSPECTRA SPECTRUM ORIG ===
##TITLE=JPK-574,,X17110
##JCAMP-DX=5.00
##DATA TYPE=INFRARED SPECTRUM
##DATA CLASS=XYDATA
##$CSCATEGORY=SPECTRUM
##ORIGIN=Angelika Moesle
##OWNER=
##XUNITS=1/CM
##YUNITS=TRANSMITTANCE
##XFACTOR=1.0
##YFACTOR=8.3344093e-10
##FIRSTX=3997.453
##LASTX=373.96442
##MAXX=3997.453
##MAXY=0.8949003827075744
##MINX=373.96442
##MINY=0.38684237109139186
##NPOINTS=2559
##XYDATA= (X++(Y..Y))
2559I19766070I19493951I19097178I18602213I18179337I17977947I17995898I18124055
2551I18314003I18617303I19017437I19323456I19347628I19205311I19313443I19931201
2543I20746702I21169865I21008737I20523428I19932702I19260163I18586122I18100097
2535I17898922I17888552I17913010I17944978I18084364I18337889I18551508I18666578
2527I18855882I19233560I19608734I19764640I19827145I19975184I19939640I19291987
2519I18271665I17673574I17847358I18424424I18889351I18987186I18695542I18236550
2511I17992894I18111969I18383016I18493222I18318580I18051609I17992394I18222247
2503I18592773I19001561I19460695I19865335I20025031I19929128I19824571I20001144
2495I20471293I20826084I20576422I19874847I19393041I19353779I19501244I19726093
2487I20128444I20761649I21405082I21420887I20420445I19040465I18219172I18142649
2479I18118977I17783065I17713837I18334885I19106117I19411278I19361073I19419431
2471I19930558I20870354I21721470I21784190I21032410I20046414I19361574I19225121
2463I19474713I19710001I19682039I19445677I19264669I19453830I20123294I20871784
2455I21275995I21362601I21391494I21609762I21929440I21898830I21343435I20772019
2447I20668750I20741409I20476585I19969534I19526133I19244645I19178564I19416498
2439I19911248I20438753I20809780I20930714I20519995I19318235I17894130I17066042
2431I17024205I17459096I18006053I18513390I18918816I19315446I20032111I21143332
2423I22127181I22545267I22364187I21859783I21587091I21728479I21768957I21217709
2415I20440469I20105630I20221628I20325471I20240081I20204537I20393482I20710086
2407I21030193I21346653I21593027I21530593I21052435I20429456I20074020I20170424
2399I20491532I20605100I20356438I19897374I19359285I18973168I19173700I20120863
2391I21234015I21644304I21302456I20761506I20290571I20048059I20349143I20973624
2383I21266555I21340574I21598891I21705236I21110077I20217982I19631763I19514047
2375I19679249I19695841I19256087I18691895I18587624I19031383I19622608I19907744
2367I19853463I19936208I20447263I21063162I21416524I21492475I21297092I20752710
2359I20028392I19603013I19888292I20773735I21738062I22350814I22490843I22333507
2351I22082627I21691147I21130173I20806061I21179019I22166588I23266366I24203516
2343I25111702I25776733I25246367I23523181I22106729I21855277I22347453I22673925
2335I22367334I21858066I21924505I22556638I22655903I21979286I21484608I21482319
2327I21315043I20608533I19866122I19606589I19966602I20703649I21374687I21775392
2319I22037215I22213145I22189544I22109661I22257556I22585960I22745513I22784918
2311I23015129I23229607I23129484I22775478I22463238I22419040I22685367I23152941
2303I23537198I23502370I23022352I22527388I22600477I23179687I23341387I22619215
2295I21361743I20314100I20168064I20860628I21496694I21585446I21415738I21164644
2287I20792902I20544240I20743340I21192321I21413377I21343578I21137181I20715521
2279I20062362I19646137I20004077I21006950I21896614I22062102I21681421I21314184
2271I21172153I21155347I21266412I21532595I21705450I21590237I21385986I21435619
2263I21770459I22142344I22418969I22611276I22595614I22193478I21554837I21196683
2255I21409659I21756728I21726834I21315186I20705223I20165632I20048488I20415796
2247I20932502I21344937I21772390I22368693I22962493I23227175I23046525I22664198
2239I22443571I22464453I22585673I22736716I22885971I22954841I22948190I22968572
2231I23021494I23021852I22916365I22641456I22158006I21631717I21294732I21147694
2223I21097561I21256471I21751006I22359253I22635019I22365618I21764380I21260190
2215I21140972I21286222I21290512I20943873I20459850I20192951I20249235I20461352
2207I20645650I20680407I20495537I20226634I20257030I20848255I21739063I22308691
2199I22209712I21667332I21062590I20550032I20274408I20501973I21150126I21620560
2191I21502344I21086691I20884800I20984137I21198471I21427967I21582442I21551333
2183I21402507I21243884I20948021I20436321I20028893I20029179I20209329I20126727
2175I19749335I19462984I19623395I20267900I21060516I21472307I21270845I20794618
2167I20527576I20555396I20640429I20697499I20891165I21280071I21660395I21807504
2159I21656319I21302456I21037488I21222143I21893753I22689801I23322649I23825408
2151I24202657I24247356I23879476I23309133I22804943I22553062I22686583I23190130
2143I23805242I24146875I23902075I22989526I21642087I20243442I19007854I17938899
2135I17067544I16522733I16360677I16470096I16658971I16807082I16981296I17379785
2127I18058117I18747105I19085521I19013575I18783150I18637256I18698689I19071146
2119I19698487I20179649I20115714I19632192I19254728I19318092I19684613I19945004
2111I19821638I19461196I19283478I19508611I19983337I20436178I20662170I20567983
2103I20304660I20194596I20302228I20309951I20013231I19683612I19703564I20043268
2095I20351002I20472723I20633921I21070743I21714962I22358895I22922372I23366632
2087I23529689I23303626I22927164I22842632I23188056I23598559I23626379I23224171
2079I22699957I22340730I22212644I22192834I22069469I21713460I21188602I20618330
2071I20038977I19505106I19180351I19190721I19519053I20073591I20676615I21063949
2063I21138826I21155990I21463868I22137552I22918152I23363843I23146290I22441497
2055I21922646I22098433I22747372I23205863I23091150I22561358I22013042I21741852
2047I21850342I22280299I22823036I23146791I22937605I22189401I21380766I21130745
2039I21531380I22051303I22248688I22257056I22375415I22560786I22574588I22360181
2031I22118600I22132761I22482118I22868163I22935174I22768684I22767969I23091079
2023I23534338I23847865I23913017I23718707I23333949I22848997I22338227I21919855
2015I21742710I21854490I22197912I22699170I23239404I23664641I23940408I24149664
2007I24269025I24132357I23716633I23333448I23389446I23904220I24388457I24405335
1999I24112619I23923530I23847293I23642828I23424703I23521465I23837925I23916879
1991I23598917I23224529I23182762I23469258I23727289I23668288I23376573I23119114
1983I22980086I22845063I22650181I22503430I22592754I22977367I23411973I23530047
1975I23301266I23070697I23053962I23098660I23022924I22844420I22608916I22316486
1967I22051804I21936447I21945459I21939023I21828888I21622348I21398502I21269987
1959I21290656I21424034I21616268I21771530I21681421I21227721I20654089I20407143
1951I20706868I21405940I22216220I22960348I23595126I24031019I24100747I23846507
1943I23613792I23635533I23745883I23660636I23270657I22613708I21869866I21349442
1935I21215993I21329203I21520509I21803285I22159937I22346666I22119029I21576578
1927I21132318I21126740I21573860I22247330I22806086I22859724I22257127I21357523
1919I20701861I20370169I19967389I19333468I18908589I19116058I19694411I20080027
1911I20251952I20672611I21450780I22057740I21869223I20666533I18684171I16447068
1903I14535079I13312364I12772630I12508878I11788423I09953528I07111683I04345932
1895I02887499I03021806I04021033I05019185I05640449I05947826I06190480I06608852
1887I07290974I08165405I09063149I09703578I09763509I09133664I08061635I06980880
1879I06270579I06178752I06790718I07904442I09050133I09867422I10443558I11091138
1871I11857793I12482775I12726145I12493717I11760817I10611335I09346354I08465772
1863I08451971I09363160I10606758I11379707I11445287I11298822I11473250I11815384
1855I11596544I10311539I08216682I06092933I04709878I04532089I05544903I07180625
1847I08674816I09639428I10152772I10390564I10456431I10500771I10695009I11027203
1839I11239678I11056882I10489757I09852904I09424450I09150113I08756130I08101112
1831I07360989I06862019I06751312I06901209I07153520I07476631I07802531I07938054
1823I07767917I07386163I07005267I06862091I07093160I07549148I07852378I07741885
1815I07291690I06815105I06590114I06551351I06265502I05397937I04086255I02619027
1807I00958703H98944445H96794235H95016697H93883592H93254105H92877285H92655871
1799H92633986H92906320H93542173H94481397H95506583H96401181H97144379H97940785
1791H99034842I00403450I01669361I02536497I03237571I04187737I05281437I06005683
1783I06198991I06227670I06472828I07012347I07704983I08308366I08608091I08562964
1775I08265956I07835357I07416128I07118190I06866239I06427558I05613988I04425744
1767I03096613I02015715I01480272I01498508I01867461I02387671I02989267I03659303
1759I04239873I04449773I04254820I04013881I04029686I04174507I04173077I03995645
1751I03741547I03374382I02842086I02357562I02318014I02913245I03929134I04979709
1743I05817094I06361477I06572164I06466606I06225524I06119179I06292606I06713695
1735I07301273I07966231I08570616I09005722I09293217I09504119I09680407I09906828
1727I10282074I10749576I11128112I11348311I11516446I11743868I12025070I12270514
1719I12406038I12464252I12587117I12866674I13162895I13196507I12900359I12555078
1711I12472190I12688241I13053117I13430795I13707492I13810261I13827926I13983043
1703I14403990I14973546I15417448I15553901I15455995I15319184I15207619I15043560
1695I14808844I14620756I14595367I14708792I14821574I14864483I14970971I15326050
1687I15879728I16345229I16509359I16436913I16356529I16461014I16816236I17328364
1679I17777129I17981523I17934608I17720417I17396805I17035076I16722621I16457796
1671I16213997I16128177I16402943I16975789I17492709I17666422I17522817I17269792
1663I17072693I17007327I17099369I17276372I17374564I17318137I17210934I17162089
1655I17155509I17173245I17274083I17448941I17557074I17505939I17398522I17423052
1647I17638316I17926241I18144437I18241413I18232474I18166822I18119478I18108679
1639I18068129I17969865I17887837I17902353I18047175I18278745I18378725I18073279
1631I17407676I16796211I16592104I16838191I17393944I18010273I18381800I18451814
1623I18529267I18845583I19202951I19287626I19088453I18820338I18656137I18680738
1615I18909090I19232916I19460266I19463628I19265098I19021871I18929544I19043398
1607I19198874I19215108I19184070I19450612I20234358I21308034I22151498I22432843
1599I22243539I21886100I21598104I21488255I21560487I21742067I21925077I22004889
1591I21980145I22057025I22450150I23022494I23394809I23468757I23508735I23673509
1583I23821905I23856161I23944555I24237272I24569108I24652853I24500237I24444169
1575I24729233I25227702I25597441I25660304I25579061I25607096I25726743I25712725
1567I25523064I25392189I25507616I25782740I26000293I26115649I26319470I26761298
1559I27309256I27620638I27325920I26278062I24914246I24100318I24220823
1552I24760128I25062284I24994487I24690614I24259728I23912445I23868176
1545I24048826I24157245I24077361I24027014I24231050I24555663I24746683
1538I24955367I25532576I26362523I26990222I27284583I27414600I27417317
1531I27303678I27285656I27482326I27665551I27598540I27466163I27714825
1524I28448798I29186274I29354481I28882687I28137702I27455435I26974345
1517I26811932I27113658I27817952I28526464I28855153I28896061I29048462
1510I29382372I29498157I29087367I28372204I27852566I27752228I27849419
1503I27845200I27736924I27695444I27712394I27582663I27194544I26711451
1496I26497403I26831956I27591102I28303262I28667065I28847358I29056114
1489I29118477I28829408I28458381I28372490I28394088I28163233I27926514
1482I28228885I28951987I29362133I29104102I28586753I28372919I28567157
1475I28851149I28903999I28711405I28496427I28449656I28596479I28860446
1468I29163746I29496583I29889208I30275395I30498098I30542367I30565395
1461I30576552I30361931I29890138I29475558I29355267I29371214I29223177
1454I28856298I28524176I28497500I28710404I28833126I28825260I29090299
1447I29791374I30411850I30396402I29888708I29483138I29496512I29715924
1440I29736592I29428500I29056901I28889052I28822971I28636599I28501434
1433I28878682I29856597I30879853I31283419I30931773I30220758I29648413
1426I29503520I29737522I29989546I29933047I29656208I29483067I29471267
1419I29400466I29231115I29219529I29479849I29747177I29792375I29810755
1412I30097964I30611452I31217481I32015604I32973779I33588319I33362042
1405I32452568I31617401I31512057I32097990I32820806I33198984I32906340
1398I31744484I30087451I28758535I28232532I28420334I29087295I30156536
1391I31466072I32524871I33002100I33144203I33244469I33094499I32472664
1384I31746631I31388048I31203035I30653789I29732230I28999044I28929316
1377I29477989I30204381I30781088I31218268I31485381I31359155I30916110
1370I30742398I31249950I32013458I32134392I31227636I29878052I29108035
1363I29458966I30618532I31804702I32389061I32251321I31702290I31124939
1356I30701062I30433090I30246790I30045972I29870113I29957149I30438239
1349I31074019I31486811I31511628I31170853I30562034I29999558I29998986
1342I30727666I31643504I32201402I32731482I33844777I35125492I35508605
1335I34917308I34344676I34345534I34583827I34782642I35073714I35411843
1328I35426861I34955283I34382079I34401818I35413917I37078889I38604905
1321I39506367I39912152I40225822I40721788I41343694I41665875I41209172
1314I40010058I38743074I38082049I37971055I37690139I36724525I35508390
1307I35048755I35729447I36834375I37522147I37777674I37849120I37412370
1300I36313163I35609514I36615463I39060607I41161971I41492019I40236764
1293I38726482I38125817I38561566I39339735I39863306I40157810I40564953
1286I41153461I41586278I41689404I41917470I42620189I42971477I41757988
1279I39326147I37397494I36846890I37103634I37720891I38991879I40939770
1272I42946447I44407383I44981731I44450078I42974766I41348987I40472840
1265I40527836I41012145I41575050I42248805I42911046I43445703I44240678
1258I45198783I45041876I42947305I40173115I38765459I39076984I39737436
1251I39811600I39829908I40631034I42056927I43226934I43777896I44262062
1244I45131842I45787791I45284531I43767669I42409216I41906099I41807764
1237I41515190I41148383I41046830I41075222I40907945I40611868I40518752
1230I40651416I40671226I40449812I40277886I40333240I40456963I40602642
1223I40888850I41211175I41430443I41679678I41956947I41951512I41640916
1216I41403911I41440742I41713005I42214334I42769230I42952025I42607960
1209I42078239I41611738I40897075I39596979I38164507I37505555I37840824
1202I38606692I39433421I40364779I41249007I41784235I42033182I42335411
1195I42883799I43563490I44069110I44250834I44270143I44163226I43629500
1188I42614897I41633908I41273108I41833367I43314327I45222669I46692473
1181I47163908I46584054I45163954I43581870I43007665I44198126I46703701
1174I49204198I50534474I50528037I50022345I49841623I49797998I49218215
1167I48372535I48373393I49442562I50620579I51668151I53520138I55935316
1160I56615079I54252679I50844211I49601472I51564309I54807360I56656415
1153I56426776I55585744I55525385I56253063I57104179I57580335I57351339
1146I56263934I54607401I53047415I52159539I51871186I51303560I49436483
1139I45987608I41609234I37577787I35548082I36993069I41963312I48221349
1132I52399262I52895514I51208730I49930446I49876952I49876595I49186605
1125I48698792I49073252I49419677I48833958I47669458I46515971I45290324
1118I44158005I44028847I45276878I47024094I48347647I49259194I50086281
1111I50827119I51521542I52477215I53677188I54560701I54741351I54349942
1104I53631060I52686615I51597922I50580816I49958124I49959625I50544915
1097I51479419I52502103I53278627I53497467I53258174I52955659I52730526
1090I52392468I51746390I50754673I49755661I49594892I50800658I52668664
1083I54003874I54407298I54231081I54005662I54266983I55241393I56481272
1076I57208450I57063558I56378646I55759744I55593611I55960776I56713700
1069I57558236I58210251I58513981I58491525I58404918I58589073I58953306
1062I58895306I58106767I57044106I56221024I55654615I55295173I55264779
1055I55397728I55355819I55243110I55508864I56449089I57907880I59381688
1048I60396219I60768748I60632795I60349519I60219144I60204842I60164149
1041I60190181I60377840I60465376I60131537I59417733I58565830I57991196
1034I58266677I59504268I61058317I62327161I63394256I64611177I65875944
1027I66875171I67789650I68957154I70228143I71268563I72105661I72880183
1020I73514462I73937837I74319450I74869553I75584717I76230294I76614910
1013I76881952I77346164I78123690I79048968I79868331I80476077I80969826
1006I81439187I81876939I82359460I82996527I83579600I83766401I83734790
999I83938755I84631248I85808979I87302311I88999752I90893719I92796268
992I94381571I95628887I96845380I98293872I99911500A001371220A002561896
985A003696932A004917787A006242699A007897587A010101148A012391245A014246593
978A016137342A018644633A021476466A024278691A027385861A031152269A035220762
971A038938896A042161495A045156956A048125314A050998411A053680131A056101817
964A058073451A059799426A062227978A065886468A069395704A071674143A073105471
957A073741822A073161396A070740997A065691013A058055429A048984368A039280101
950A028604571A015181097I95898218I68204087I30735246H84039940H32075738
943G80687457G35711046G03800455F88890371F88472858F98573254G14775781
936G30158874G42492511G53763057G63434569G70605584G76435096G81929625
929G86866827G91149010G95875740H02063191H08256720H12944616H16849695
922H20667523H24632460H28896336H33051364H36389317H39133328H41804821
915H43786109H44452713H44763308H45989456H48538585H51619366H54098408
908H55671553H56599835H57264651H58285976H60268194H62248839H63346043
901H64222476H65468719H66879451H67972006H68991757H70315381H71934726
894H73696102H75593359H77607830H79293972H80370579H81248371H82399212
887H83970283H85673516H87163916H88561703H90147149H91730664H92913830
880H93674621H94154853H94259267H93792480H92806913H91344619H89390292
873H87394342H86463199H87452771H90133989H93592306H97058560I00232026
866I03109772I05721977I08058488I10149340I12066836I13870977I15710879
859I17865667I20414723I23010337I25263746I27223580I29233761I31474797
852I33979442I37113217I41443889I46222682I49795495I52267529I54764737
845I57292267I57407909I51969807I40021500I24160463I09072661H98016592
838H93479524H96446451H98282061H91884138H77158780H56906283H35954355
831H19556087H11278642H11014390H16088475H23573804H31203525H38443123
824H45737576H51655982H55567138H58801752H62462387H66425823H69793956
817H72503424H75236707H78384140H81588646H84364266H86869913H89414464
810H91816197H94039639H96429859H98940298I01124764I02790666I04039770
803I05123743I06713552I09751137I13323592I15547250I17013835I18933549
796I22107015I27060236I33634447I40168752I44460662I44856863I38351093
789I19847384H89054022H57024499H35110033H25919325H26812493H33626141
782H42468278H51068261H58807258H65502046H70617681H73122470H71851409
775H67013615H60170789H53023088H47873554H47419640H51607494H57404608
768H62922523H68452596H74857170H81139523H85579400H88766955H91658218
761H94361821H96598637H98267329H99591168I00855505I02094454I03017944
754I03222195I02372152I00084344H96152161H90985464H84419691H74798098
747H60640794H43791831H29552856H22141618H22622422H29364839H38978638
740H48931138H58216820H65506695H69975608H72775544H75273538H78076764
733H81426089H85423566H90017418H95075197I00173454I04211552I05541399
726I02080580H92011221H76568198H60856988H49830027H45252480H45920515
719H50056734H57632889H70078305H87572346I07109322I24221967I33405381
712I26939302H99526732H56020624H10108135G75072423G57452084G55662173
705G63477050G75649703G89140403H01803872H12510870H21295508H28142911
698H32240011H32916126H30519399H26298648H22171225H20081303H20954804
691H24458819H29617793H35342890H40816823H45758244H50215571H54221202
684H57806816H61086413H64101756H66750935H68958431H70722596H72048151
677H72983513H73662990H74246420H74842652H75448968H75803188H75262310
670H73208575H69984190H67218652H66573504H68179761H70792753H72978579
663H73510088H70823720H62778847H48138951H29205143H12173955H03304714
656H04475222H12724416H23520882H33787696H42377095H49139465H54245016
649H57991543H60680342H62534547H63798026H64856325H66127456H67840702
642H69942853H72183746H74304277H76176717H77774608H79092153H80167830
635H81107341H81992641H82801205H83457725H83914643H84104161H83814806
628H82801062H81215545H79829057H79519749H80524840H82343214H84288602
621H86009643H87540593H89023484H90487710H91861538H93085541H94167869
614H95150432H96067701H96961583H97936923H99158136I00756598I02704846
607I04759940I06545631I07638544I07449240I05170515I00356536H93799560
600H87440971H83036851H81001925H80629897H81159691H82407365H84521388
593H87420016H90599633H93468868H95796368H97761494H99616771I01434644
586I03168487I04778319I06237538I07519469I08597292I09380968I09733186
579I09722959I09847970I10820806I13061342I16368973I19828790I21758372
572I20097477I13828426I04555617H95913011H90110460H84855511H74758548
565H56689731H33503848H12083846G98179210G93356577G95862581H02949135
558H12166232H21632636H30242488H37756281H44360815H50141552H55089768
551H59317385H62961071H66071173H68794515H71401930H73923167H76036403
544H77642660H79181620H80540645H79761904H74400038H65119291H56691305
537H54023530H57783288H64756059H71312391H74856669H72612987H62051812
530H44600824H27468369H18879614H21184871H30134999H40194058H48571911
523H54854765H59338482H62463960H64774224H66732413H68577106H70329542
516H71900828H73217300H74292405H75246720H76209328H77154632H77966915
509H78683008H79475910H80363070H81099903H81442752H81475793H81561469
502H81909897H82383621H82808571H83201053H83573009H83818525H83908493
495H83957267H84035863H84095150H84125974H84277302H84709833H85379083
488H86103472H86792890H87436894H87969619H88366035H88774393H89353389
481H90056967H90702545H91200656H91638122H92133086H92619254H92784171
474H92158331H90149795H86125285H80041890H73393803H69010352H69069353
467H73292393H79469473H85429001H90119544H93443123H95825546H97740039
460H99088122H98908473H95913082H89855291H82829526H78600907H79297047
453H82360450H81862052H73986100H61163293H50111515H45924734H48694919
446H55206268H62116534H67196840H69385598H69259872H69033523H70866987
439H74963872H79793156H83950759H87146895H89660623H91753191H93655025
432H95480480H97087166H98306949H99214348H99966056I00493274I00522954
425H99911060H98813857H97458193H95829837H93439761H89108875H81613676
418H71764589H63587196H61726770H67121748H76243656H84762326H90870965
411H95009187H97968533I00180963I01956499I03492456I04804065I05904416
404I06877252I07753471I08493665I09093472I09654160I10292587I10909272
397I11221870I11201273I11234814I11720697I12736086I14100188I15517714
390I16692155I17450657I17833627I18118191I18639616I19538076I20837456
383I22534396I24209667I24316369I18764412I00222371H63575896H16464937
376G80000328G71804556G89778900H17186107H40353540H56470319H68151798
369H77376476H84712122H90473835H95095365H98887375I01869249I03983487
362I05385350I06389368I07253142I08073721I08791745I09298295I09593157
355I09927782I10783475I12432284I14493528I16322487I17752099I19015791
348I20173356I21081542I21707953I22191261I22729278I23450735I24367146
341I25531002I27030343I28617862I29706770I30022229I29934120I29978318
334I30433948I31487813I33405953I36312806I39999259I44038502I47954593
327I51372502I54244813I56817184I59178225I61101657I62472911I63483151
320I64248018I64500471I63340976I58393476I45390947I20620475H85877337
313H50710965H27419738H22319193H32191451H48900243H65863990H80228762
306H91530633I00247544I07082647I12474908I16498417I18988545I19429943
299I17466319I14528357I13998063I18058546I25032820I31370741I35379303
292I37593663I38664406I38501206I36769223I32815728I24978610I10511141
285H86886075H53740111H13449021G69586405G25067912F81714779F41108158
278F05450183E77074859E56722131E42514230E30957476E18970515E05291942
271D90774983D77703977D68416186D64150916D64964200D70311441D79371738
264D91090978E04409824E18625842E33494196E48926886E64682651E80507393
257E96401184F12387125F28130303F43072426F56791620F69025777F79562566
250F88370089F95820590G02619791G09350981G16030178G22267905G27966899
243G33630278G39928650G47069700G53913313G57146495G52842642G41033649
236G28118442G22246450G26175772G36139643G46834125G55478019G61876943
229G66915413G71405709G75594993G79405598G82870851G86123486G89156065
222G91672510G93217335G93778809G94206048G95585670G98282193H01862230
215H05640223H09120638H12192050H15013441H17734852H20350419H22515577
208H23745515H24559943H25994990H28389142H31327748H34120748H36434516
201H38237872H39420394H39964133H40231247H40723923H41643337H42894229
194H44408373H46132418H47763419H48913330H49556119H50012250H50564786
187H51366555H52606363H54413724H56544839H58467270H59987064H61551555
180H63599783H65846540H67606987H68491072H68263220H66608617H63972383
173H62309843H63839506H68715132H74760623H79573171H82096912H82175223
166H79273161H72012250H58924974H39919793H17431766G96063542G80508452
159G73163724G73411027G78785981G86554943G94780825H02638826H09928129
152H16470157H22112797H26859837H30575325H33003662H34654188H37030318
145H40971798H45284520H48060069H49015813H49429035H50235024H51382790
138H52667795H54193954H55990444H57772775H59177713H60011808H60380475
131H60779965H61810087H63438871H64749122H64825430H63820125H62783424
124H62406604H62280950H61721478H61006743H61009533H61501136H60618839
117H56856007H51575883H48481586H49882091H54315460H58704561H61764960
110H64117347H66350157H68554291H70834161H72903201H73936826H73700679
103H73244620H73783853H75234347H76584218H77238664H77410303H77537459
96H77821522H78371340H79330446H80502741H81154970H80714930H79480058
89H77792987H75119850H71518215H69511824H72116378H78544553H84398737
82H86866837H87015520H87030538H87887376H89588964H91965023H94668913
75H96745604H96391813H90527544H73738297H40848217G97324589G62701670
68G53970597G71275907G99543098H19547148H19580975H00139187G71669533
61G48423361G40910283G48749404G63853584G80679733G97343327H12686156
54H26056637H36800393H43752354H46973664H48372095H49640509H51433781
47H54239510H58157246H61968066H63426928H60730261H52903513H38481385
40H14767854G78875233G29500351F70448094F14211793E77050329E71226038
33F00792610F48977673F89909406G19678870G45231944G69281388G90355322
26H06412600H17213427H24893137H31488875H36340901H38176153H38469728
19H41187134H49367817H60263689H66999813H66974353H63566671H61880816
12H64233489H68752249H72240459H73370417H72570006H70045551H65445191
5H59112276H52688463H48084170H45051734H41154809
$$ === CHEMSPECTRA INTEGRALS AND MULTIPLETS ===
##$OBSERVEDINTEGRALS= (X Y Z)

##$OBSERVEDMULTIPLETS=
##$OBSERVEDMULTIPLETSPEAKS=
$$ === CHEMSPECTRA SIMULATION ===
##$CSSIMULATIONPEAKS=
##END=


$$ === CHEMSPECTRA PEAK TABLE EDIT ===
##TITLE=JPK-574,,X17110
##JCAMP-DX=5.00
##DATA TYPE=INFRAREDPEAKTABLE
##DATA CLASS=PEAKTABLE
##$CSCATEGORY=EDIT_PEAK
##$CSTHRESHOLD=0.93
##MAXX=3997.453
##MAXY=0.8949003827075744
##MINX=373.96442
##MINY=0.38684237109139186
##$CSSOLVENTNAME=- - -
##$CSSOLVENTVALUE=0
##$CSSOLVENTX=0
##NPOINTS=33
##PEAKTABLE= (XY..XY)
420.70997243940565, 0.47608316035093534
457.5398016340887, 0.6175049553100832
468.8720567709147, 0.6283899555563351
495.7861627209045, 0.72635895162154
535.4490556997653, 0.7071592821237149
597.7764589523063, 0.6443862931728233
619.0244373338824, 0.7200699463818362
705.4328827521499, 0.6019497529771984
752.1784351915558, 0.38684237109139186
793.2578600625752, 0.7617633956449186
813.0893065519936, 0.6853544729707695
903.7473476465984, 0.643253506930877
963.2416871149585, 0.7197489157703323
1007.1541757701325, 0.7050282970149626
1036.9013455043246, 0.7242687959505073
1120.476727138389, 0.682487787050201
1133.2255141673181, 0.7117781650850828
1167.2222795777948, 0.6612158433564966
1216.8008958014302, 0.7343945523455526
1260.7133844566292, 0.7344411033552568
1303.2093412197028, 0.669507027909544
1354.2044893354182, 0.6834893238479318
1372.6194039327597, 0.6297997842309409
1393.8673823143076, 0.7044680130160064
1426.4476158326815, 0.6852064746976247
1464.6939769194682, 0.7062742128618652
1484.525423408913, 0.6883549703329722
1546.852826661454, 0.6759325874449826
1606.3471661298086, 0.739639462793317
1702.6713347928066, 0.5738014590512779
1983.1446494292582, 0.7814157027446219
2920.8887620015726, 0.743957699441447
3055.459291751376, 0.7526153338029196
##END=


$$ === CHEMSPECTRA PEAK TABLE AUTO ===
##TITLE=JPK-574,,X17110
##JCAMP-DX=5.00
##DATA TYPE=INFRAREDPEAKTABLE
##DATA CLASS=PEAKTABLE
##$CSCATEGORY=AUTO_PEAK
##$CSTHRESHOLD=0.93
##MAXX=3997.453
##MAXY=0.8949003827075744
##MINX=373.96442
##MINY=0.38684237109139186
##NPOINTS=100
##PEAKTABLE= (XY..XY)
3350.097925308835, 0.7669278398712143
3503.083369655981, 0.7669264688608844
3620.655516700547, 0.7669057270164595
3792.055875645035, 0.7668536919654358
3773.6409610476935, 0.7668273468976385
3558.328113448006, 0.7668060674838139
3752.392982666145, 0.7668057099376548
3459.1708810007817, 0.7667897362087904
3725.4788767161845, 0.7666435256664406
3909.628022689601, 0.766619445891091
3344.431797740422, 0.7665019648910392
3599.4075383189993, 0.7664707316921874
3664.5680053557467, 0.7664377707702877
3712.7300896872557, 0.7664347903855221
3738.227663745113, 0.7663606424797437
3452.0882215402657, 0.7663180844855351
3875.6312572791244, 0.7662331476869179
3899.7122994448787, 0.7662270685687744
3360.0136485535572, 0.7661684768379545
3855.799810789679, 0.7661528006475021
3368.512839906177, 0.766144515411217
3862.8824702501956, 0.7661198397256025
3979.0380854026585, 0.7661033292607792
2646.0815749335416, 0.766085626141985
3303.352372869429, 0.7660825265751664
3830.3022367318217, 0.7660810372162244
3763.725237802971, 0.7659098526164071
2651.7477025019543, 0.7658734937558359
3085.2064614855353, 0.7658560290011478
2663.07995763878, 0.7656456251714874
3378.428563150899, 0.7656298889732881
3731.1450042845972, 0.7655885236330503
3929.459469179046, 0.7650928513087514
3920.960277826427, 0.7650924345882864
3990.370340539484, 0.7650803938671706
3962.0397026974197, 0.7650058884152333
2691.410595480844, 0.7650052925049684
3881.297384847537, 0.7648602737831484
3939.3751924237686, 0.7648267169509838
2708.408978186083, 0.7645974773563055
2716.908169538702, 0.7643949403755833
3816.13691781079, 0.7642855062477106
2726.8238927834245, 0.7642714394316941
2680.0783403440187, 0.7639253755884167
3394.0104139640343, 0.7637324948543096
2756.5710625175916, 0.7637290377413319
2738.15614792025, 0.7635387198380846
2770.7363814386235, 0.7622612132461712
793.2578600625484, 0.7617633956449186
2796.2339554964815, 0.7604916706327367
3004.464143635653, 0.7595137377155844
933.494517380766, 0.7594324363863039
1192.7198536356527, 0.7582003489913118
3011.546803096169, 0.757141055570573
2950.635931735731, 0.7558159845047846
2963.3847187646597, 0.7557236567520002
3032.794781477717, 0.7552464618131194
2834.480316583268, 0.7551968112365964
2993.1318884988273, 0.7538740654710028
2859.9778906411257, 0.7534421697135493
3056.8758236434714, 0.752503396851934
2847.229103612197, 0.752028764743913
2872.7266776700544, 0.7513305562723329
1559.6016136903827, 0.7446624054185172
2920.888762001564, 0.7439577002748878
1607.7636980218917, 0.7388147129853351
1218.2174276935102, 0.7339530003414841
1257.8803206724, 0.7330277575599266
1017.0698990148553, 0.7322619570289235
518.4506729945265, 0.7277978082102966
494.3696308287722, 0.7246867432405563
997.2384525254101, 0.7242881076102964
1036.9013455043, 0.7242687959505073
1317.3746601407347, 0.7222378270871187
617.607905441751, 0.7186843174980739
390.9628027052381, 0.7183267488361988
961.8251552228303, 0.7181983605946961
543.9482470523844, 0.717598260622191
1133.2255141673181, 0.7117781650850828
535.4490556997653, 0.7071592821237149
1464.6939769194682, 0.7062742128618652
1007.1541757701325, 0.7050282970149626
1393.8673823143076, 0.7044680130160064
1484.525423408913, 0.6883549703329722
813.0893065519936, 0.6853544729707695
1426.4476158326815, 0.6852064746976247
1354.2044893354182, 0.6834893238479318
1120.476727138389, 0.682487787050201
1546.852826661454, 0.6759325874449826
1303.2093412197028, 0.669507027909544
1167.2222795777948, 0.6612158433564966
597.7764589523063, 0.6443862931728233
903.7473476465984, 0.643253506930877
1372.6194039327597, 0.6297997842309409
468.8720567709147, 0.6283899555563351
457.5398016340887, 0.6175049553100832
705.4328827521499, 0.6019497529771984
1702.6713347928066, 0.5738014590512779
420.70997243940565, 0.47608316035093534
752.1784351915558, 0.38684237109139186
##END=

##END=

