##TITLE=SIO- R4
##JCAMP-DX=4.24
##DATA TYPE=INFRARED SPECTRUM
##DATE=18/4/2019
##SAMPLING PROCEDURE=Diamant-ATR
##ORIGIN=Rieke
##XUNITS=1/CM
##YUNITS=TRANSMITTANCE
##RESOLUTION=4
##FIRSTX=3997.453
##LASTX=373.96442
##DELTAX=-1.4165319
##MAXY=1
##MINY=0.43335778
##XFACTOR=1
##YFACTOR=9.3132258e-010
##NPOINTS=2559
##FIRSTY=0.99849212
##XYDATA=(X++(Y..Y))
3997+1072122751+1072142463+1072384127+1072687871+1072842943+1072727679
3989+1072462719+1072327871+1072447871+1072668863+1072762047+1072639231
3980+1072378239+1072182655+1072257791+1072557503+1072749119+1072607743
3972+1072319743+1072211583+1072372415+1072719615+1073195071+1073653375
3963+1073741823+1073175423+1072161727+1071346239+1071206207+1071580415
3955+1071944127+1072086847+1072242431+1072522239+1072580287+1072066239
3946+1071155263+1070311039+1069782079+1069575679+1069671295+1069988223
3938+1070237311+1070142015+1069846783+1069827583+1070285567+1070873983
3929+1071189183+1071193343+1070994751+1070657599+1070324223+1070184319
3921+1070224255+1070235007+1070133311+1070101951+1070278079+1070493759
3912+1070530303+1070443391+1070464383+1070625407+1070674623+1070453183
3904+1070169727+1070008959+1069727295+1069250943+1069106879+1069622207
3895+1070384319+1070841151+1070930495+1070991999+1071113791+1070993087
3887+1070569279+1070229375+1070263743+1070416319+1070359167+1070107903
3878+1069858687+1069783103+1070088383+1070962815+1072235199+1073345791
3870+1073741823+1073295999+1072336767+1071356991+1070828927+1070993535
3861+1071481919+1071659199+1071225535+1070285055+1069233087+1068747775
3853+1069339263+1070362303+1071006527+1071281535+1071383871+1071453055
3844+1071526143+1071383487+1070789311+1070022911+1069763583+1070268095
3836+1070957951+1071190847+1070900543+1070396543+1069972543+1069695935
3827+1069558527+1069629311+1069916031+1070299263+1070648255+1070844863
3819+1070858111+1070828095+1070929343+1071104831+1071129023+1070961663
3810+1070757311+1070676287+1070757631+1070904895+1071015999+1071008319
3802+1070687615+1069943039+1069079743+1068441407+1068107455+1068036223
3793+1068091071+1068140799+1068248319+1068556095+1068972479+1069250047
3785+1069390271+1069592575+1069828415+1069907327+1069911359+1070142719
3776+1070614207+1070989439+1070964863+1070520127+1069998975+1069927935
3768+1070426175+1071008255+1071195967+1071002367+1070771391+1070785855
3759+1071124287+1071638271+1072031167+1072159999+1072182783+1072370303
3751+1072595007+1072278015+1071513663+1071009535+1070968255+1070905599
3742+1070596351+1070467135+1070628799+1070667135+1070060799+1068868927
3734+1068162367+1068812927+1070145983+1070786111+1070075967+1068476159
3725+1067178879+1067147455+1068284927+1069714815+1070606783+1070756223
3717+1070575295+1070528575+1070622463+1070412991+1069651583+1068938687
3708+1068935551+1069423167+1069769791+1069620415+1069202623+1069133759
3700+1069570303+1069873663+1069533503+1068744767+1068004735+1067593855
3691+1067582591+1067999871+1068677183+1069177663+1069277759+1069137535
3683+1068986111+1068850111+1068602239+1068330687+1068426111+1068999807
3674+1069414143+1069325887+1069226879+1069385535+1069451327+1069219839
3666+1069086591+1069432255+1070225023+1071073535+1071538751+1071397567
3657+1070703935+1069895679+1069628479+1070131263+1071097215+1071982783
3649+1072243903+1071864127+1071334847+1070921919+1070646719+1070499711
3640+1070406271+1070215039+1069931071+1069849663+1070234111+1070957503
3632+1071706303+1072391807+1072998783+1073192639+1072730175+1071871295
3623+1071000127+1070449471+1070343807+1070350591+1069993535+1069369983
3615+1069012863+1069309375+1070190847+1071079807+1071360127+1071041343
3606+1070725055+1070711487+1070759999+1070746559+1070875391+1071207231
3598+1071480191+1071544255+1071499327+1071368831+1071066303+1070684543
3589+1070486847+1070642111+1071002239+1071241727+1071217791+1070944895
3581+1070465279+1069886719+1069438463+1069351807+1069608703+1069900031
3572+1069949247+1069743999+1069387519+1068999871+1068846527+1069169023
3564+1069770175+1070239743+1070376319+1070212671+1069869375+1069432511
3555+1068947071+1068513983+1068310079+1068426239+1068782911+1069239807
3547+1069592511+1069518335+1068883519+1068019455+1067401471+1067228863
3538+1067347263+1067340543+1066830335+1065955007+1065315583+1065181951
3530+1065096383+1064589119+1063987263+1063889407+1064107391+1063904639
3521+1063125119+1062329087+1061852927+1061378431+1060539583+1059542463
3513+1058862655+1058482239+1057838015+1056638143+1055318847+1054414591
3504+1053951103+1053573823+1052824959+1051368383+1049341951+1047362943
3496+1045792319+1044160639+1041791487+1038751935+1035619519+1032567935
3488+1029283711+1025679167+1021998335+1018057535+1013036351+1006454783
3479+998937215+991490559+984349503+976857599+968275263+958534335+948294207
3469+938515839+930051327+923451327+918987263+916772991+916747135+918570239
3459+921751295+925890687+930685951+935825727+940968255+945792703+950145471
3449+954120255+957764415+960782527+962832767+963948863+964384255+964291199
3439+963707199+962677503+961373311+960092479+959080959+958512511+958709439
3429+960045055+962495743+965601023+968938751+972385535+975997503+979870783
3420+984070079+988516607+992953471+997051711+1000617855+1003703935+1006417087
3410+1008711487+1010555135+1012121279+1013572735+1014899071+1016160255
3401+1017576511+1019223743+1020919679+1022473663+1023840703+1025073087
3393+1026270143+1027462783+1028495487+1029208319+1029724095+1030320191
3384+1031062847+1031834111+1032639743+1033555967+1034464831+1035191295
3376+1035816511+1036539775+1037311807+1037879807+1038173311+1038503423
3367+1039323903+1040745471+1042319807+1043478783+1044154687+1044706175
3359+1045317759+1045788799+1045851519+1045415167+1044574719+1043659007
3350+1043192767+1043518271+1044402495+1045198463+1045495999+1045533887
3342+1045856959+1046608895+1047412159+1048002879+1048597567+1049381567
3333+1050067199+1050352639+1050414527+1050592383+1050928767+1051289471
3325+1051629055+1051946239+1052174591+1052241663+1052186687+1052235135
3316+1052707071+1053684671+1054739903+1055205759+1054871679+1054262911
3308+1053999807+1054053183+1053965503+1053598015+1053255807+1053228863
3299+1053545983+1054078207+1054663231+1055172351+1055513023+1055661439
3291+1055823871+1056343423+1057165055+1057701695+1057547839+1056986815
3282+1056538303+1056349695+1056274111+1056289023+1056574015+1057185279
3274+1057831551+1058166271+1058222399+1058304383+1058563455+1058939455
3265+1059340223+1059602239+1059501951+1059101311+1058897215+1059292607
3257+1060003839+1060324031+1059984959+1059417343+1059100415+1059061759
3248+1059169663+1059467199+1059978175+1060520447+1060885631+1060927231
3240+1060457407+1059465983+1058453119+1058085119+1058451391+1059034815
3231+1059397247+1059532607+1059611839+1059796031+1060297919+1061210751
3223+1062207999+1062715839+1062524927+1062061183+1061898559+1062075647
3214+1062073151+1061509503+1060674495+1060173375+1060139263+1060106111
3206+1059692159+1059108863+1058875263+1059243263+1060016447+1060781823
3197+1061187711+1061081599+1060554623+1059943679+1059661567+1059847935
3189+1060254783+1060597311+1060770431+1060641407+1060081343+1059385279
3180+1059143871+1059477311+1059894399+1060050623+1060123391+1060323775
3172+1060573247+1060761535+1060852671+1060691583+1060115327+1059295039
3163+1058665599+1058530687+1058888383+1059509887+1060083839+1060437823
3155+1060616767+1060676991+1060589759+1060439039+1060428735+1060610559
3146+1060849535+1061051135+1061202495+1061279423+1061292671+1061326655
3138+1061423359+1061554559+1061717247+1061881983+1061853439+1061431231
3129+1060738431+1060123711+1059737151+1059480447+1059348287+1059469375
3121+1059819135+1060185535+1060384063+1060348351+1060126463+1059886527
3112+1059801599+1059869503+1059908223+1059760319+1059501183+1059398591
3104+1059580031+1059811455+1059759679+1059408191+1059069119+1059018047
3095+1059198975+1059308415+1059167167+1058930687+1058875775+1059084607
3087+1059395583+1059579903+1059519679+1059249855+1058877887+1058506303
3078+1058175167+1057811007+1057353279+1056989567+1057001535+1057321087
3070+1057583295+1057626495+1057565695+1057429951+1057121791+1056723135
3061+1056536703+1056749503+1057162815+1057369727+1057206783+1056847999
3053+1056431487+1055928703+1055451455+1055323263+1055667647+1056181311
3044+1056452863+1056385215+1056234495+1056295423+1056613375+1057020351
3036+1057349503+1057510783+1057451647+1057195199+1056883519+1056643583
3027+1056406335+1055970623+1055270527+1054449727+1053624255+1052724863
3019+1051657023+1050467327+1049231743+1047907327+1046409471+1044790271
3010+1043257791+1042017791+1041144703+1040638783+1040534527+1040862399
3002+1041558207+1042514367+1043665535+1044943615+1046246911+1047538111
2993+1048840831+1050074687+1051048511+1051693695+1052149503+1052556991
2985+1052935871+1053299263+1053685631+1054031743+1054199871+1054158783
2976+1053959487+1053535871+1052707263+1051391231+1049669695+1047620031
2968+1045151359+1042020415+1038004863+1033103615+1027578879+1021830527
2959+1016306047+1011543295+1008134911+1006539839+1006964287+1009370815
2951+1013397119+1018218367+1022780351+1026432063+1029266239+1031724927
2942+1034034943+1036173247+1038159807+1040083711+1041869055+1043234815
2934+1043937151+1044012863+1043785727+1043610367+1043595647+1043616959
2925+1043569855+1043510911+1043580095+1043906495+1044562111+1045470399
2917+1046398335+1047137471+1047701183+1048286911+1049028863+1049809535
2908+1050352831+1050507711+1050404223+1050306303+1050330239+1050368063
2900+1050321663+1050312255+1050512255+1050861247+1051179519+1051468223
2891+1051836159+1052220415+1052451455+1052502911+1052488831+1052525887
2883+1052703231+1053061503+1053532351+1053978751+1054286783+1054422207
2874+1054495359+1054733375+1055259519+1055898047+1056289919+1056214399
2866+1055748543+1055092351+1054328511+1053455231+1052551231+1051698687
2857+1050802367+1049699583+1048398079+1047057791+1045850495+1044939647
2849+1044472959+1044512959+1045035711+1045960959+1047152255+1048484671
2840+1049933951+1051469183+1052899071+1054020543+1054892927+1055730175
2832+1056525183+1057056959+1057291967+1057474879+1057761023+1058035775
2823+1058173183+1058239807+1058345983+1058452479+1058433983+1058260031
2815+1058023999+1057822335+1057695679+1057665919+1057723391+1057798207
2806+1057815423+1057764351+1057682751+1057610815+1057556031+1057497663
2798+1057453247+1057482175+1057578687+1057639039+1057589055+1057474815
2789+1057407423+1057462079+1057603327+1057733567+1057831295+1057935103
2781+1058004991+1057973759+1057897023+1057894335+1058021311+1058284095
2772+1058622527+1058855103+1058845567+1058722175+1058752703+1059043263
2764+1059455999+1059753279+1059752639+1059437247+1059029055+1058878399
2755+1059123135+1059479423+1059560831+1059365183+1059227135+1059349887
2747+1059637375+1059907519+1060040767+1059996479+1059870271+1059850111
2738+1059967423+1059974591+1059625663+1059031103+1058569151+1058438143
2730+1058451327+1058327935+1058031167+1057735423+1057588223+1057624127
2721+1057811903+1058030143+1058065791+1057830591+1057549119+1057522367
2713+1057731391+1057916223+1058002047+1058146879+1058388415+1058568575
2704+1058658431+1058870911+1059339455+1059862527+1060080063+1059838399
2696+1059327871+1058904895+1058814591+1059044415+1059364543+1059505471
2687+1059370431+1059103615+1058897663+1058784127+1058710463+1058728767
2679+1058929215+1059242751+1059450431+1059366591+1058997311+1058582207
2670+1058419455+1058534143+1058613759+1058373567+1057866431+1057349951
2662+1056996159+1056828287+1056825983+1056968767+1057216703+1057527615
2653+1057869823+1058156543+1058238079+1058052543+1057742591+1057581695
2645+1057802367+1058410815+1059074623+1059334719+1059049791+1058515583
2636+1058119039+1058017919+1058136191+1058309567+1058428607+1058485375
2628+1058459775+1058261759+1057921087+1057683263+1057732543+1057954943
2619+1058166783+1058418175+1058815807+1059176511+1059183807+1058849087
2611+1058517823+1058441215+1058593727+1058840511+1059011903+1058913599
2602+1058526399+1058155647+1058196095+1058729535+1059399487+1059740031
2594+1059702655+1059766335+1060327743+1061092031+1061379519+1060962175
2585+1060269695+1059830527+1059868351+1060380735+1061225023+1062065855
2577+1062552255+1062657727+1062681855+1062865919+1063160959+1063446847
2568+1063814143+1064444991+1065268799+1065875583+1065847231+1065206015
2560+1064479487+1064215487+1064479743+1064931839+1065245503+1065241471
2551+1064849599+1064292607+1064082175+1064432063+1064841535+1064649919
2543+1063917119+1063372223+1063480191+1063898175+1063983103+1063583039
2534+1063131519+1063077439+1063413567+1063772479+1063891903+1063884223
2526+1063999551+1064256511+1064482623+1064600127+1064611263+1064379071
2517+1063764671+1063018175+1062691199+1062992639+1063464895+1063505151
2509+1063077631+1062736895+1062958143+1063537599+1063829823+1063649791
2500+1063561215+1063932991+1064226559+1063788671+1062893183+1062361855
2492+1062529599+1063100927+1063684479+1064068287+1064215167+1064227903
2483+1064211839+1064137087+1063909375+1063483967+1062879231+1062257983
2475+1061964927+1062192319+1062611519+1062693759+1062371263+1062020671
2466+1061852799+1061737663+1061551295+1061323071+1061121983+1061060159
2458+1061220031+1061403263+1061271231+1060919039+1060911551+1061508351
2449+1062245055+1062547519+1062386879+1062095743+1061926335+1061967679
2441+1062115199+1062056063+1061625599+1061103103+1060851327+1060844991
2432+1060786367+1060481151+1059978879+1059549887+1059526079+1059987071
2424+1060597119+1060878207+1060691455+1060387327+1060391551+1060699647
2415+1060939199+1060888447+1060730687+1060794431+1061148799+1061487807
2407+1061474303+1061183487+1061038143+1061318079+1061892543+1062358079
2398+1062343103+1061831295+1061201599+1060795455+1060574719+1060396543
2390+1060367807+1060635647+1061030783+1061184063+1060904319+1060325311
2381+1059787327+1059625023+1059939519+1060526719+1061144127+1061810175
2373+1062642815+1063488383+1063994879+1063981247+1063538111+1062962303
2364+1062705919+1063041407+1063698111+1064092607+1063887423+1063202559
2356+1062426303+1061879423+1061545471+1061173695+1060692095+1060344703
2347+1060441791+1061024383+1061721407+1062121407+1062217535+1062182143
2339+1062050239+1061733631+1061135871+1060422783+1060130559+1060550911
2330+1061106495+1060962879+1060097663+1059169983+1058661375+1058567039
2322+1058625791+1058623039+1058604415+1058783039+1059160575+1059372223
2313+1059041215+1058222463+1057393087+1057008063+1057095679+1057272575
2305+1057146687+1056703615+1056262079+1056077503+1056118271+1056209023
2296+1056222207+1056131967+1056107519+1056478015+1057287231+1057992511
2288+1058001407+1057441215+1057005055+1057113855+1057583423+1058063231
2279+1058474943+1058917631+1059290239+1059222079+1058534463+1057669823
2271+1057403583+1058091647+1059360255+1060592895+1061502079+1062041919
2262+1061996031+1061172799+1059959231+1059073727+1058695103+1058425471
2254+1058111935+1058049471+1058387839+1058914367+1059379775+1059696191
2245+1059955583+1060412415+1061217471+1062135487+1062804927+1063269631
2237+1063848191+1064431423+1064459903+1063966655+1064040127+1065489215
2228+1067498623+1068504575+1068151103+1067468415+1067302015+1067558655
2220+1067933375+1068349823+1068529151+1068069567+1067187583+1066530239
2211+1066156479+1065636543+1065123839+1065343487+1066510847+1067914431
2203+1068567935+1068170111+1067624575+1068245503+1070093375+1071906111
2194+1072932095+1073524991+1073741823+1073069375+1071767807+1070887231
2186+1070726015+1070722751+1070694335+1070830079+1070844287+1070231935
2177+1069016959+1067798463+1067400319+1068157183+1069148415+1068954943
2169+1067552639+1066313407+1065828991+1065153471+1063696383+1062518975
2160+1062979263+1064835135+1066563647+1067224511+1067027839+1066664639
2152+1066899647+1068199423+1070059583+1071041919+1070106751+1067930111
2143+1066332351+1066302911+1067089215+1067410367+1067006527+1066509119
2135+1066307583+1066160319+1065629631+1064553087+1063265983+1062348607
2126+1061980479+1061739711+1061168255+1060297599+1059573631+1059453247
2118+1060049599+1061022911+1061730943+1061543295+1060336447+1058791807
2109+1057838335+1057737791+1058059391+1058318399+1058184319+1057494143
2101+1056556479+1056007615+1056082751+1056511743+1057101951+1057847743
2092+1058558079+1058885311+1058714943+1058263039+1057826879+1057650175
2084+1057997503+1059014143+1060263487+1060708095+1059618367+1057476159
2075+1055649151+1055201407+1056183615+1057926463+1059739519+1061250815
2067+1062256063+1062631935+1062577279+1062521407+1062452095+1061791423
2058+1060373695+1059095423+1058957247+1059783679+1060556095+1060854719
2050+1061262655+1062290111+1063491455+1064128127+1064261247+1064456639
2041+1064755967+1064733119+1064442815+1064415679+1064630143+1064427711
2033+1063738559+1063445375+1064122047+1065305663+1066222783+1066398079
2024+1065540223+1063737791+1061843647+1060933759+1061396991+1062829311
2016+1064410239+1065261631+1064854847+1063317183+1061451903+1060438399
2007+1061026751+1062820671+1064698239+1065803199+1065871743+1065227519
1999+1064662719+1064607487+1064488703+1063647167+1062534591+1062298815
1990+1063503423+1065590143+1067133183+1066741823+1064628735+1062893759
1982+1063365887+1065657855+1067893439+1068649855+1067745407+1065925759
1973+1064510143+1064673727+1066476479+1068989311+1071341055+1073056639
1965+1073741823+1073406719+1072448959+1071308863+1069970111+1068348351
1956+1066643519+1065142335+1063936831+1062752575+1061081343+1058821759
1948+1056674303+1055478271+1055334207+1055760255+1056415615+1057273215
1939+1058263423+1059198527+1060032895+1060881663+1061696575+1062194559
1931+1062283263+1062220991+1062206975+1062165311+1062025087+1061886591
1922+1061860479+1061930623+1061969087+1061827327+1061547135+1061467391
1914+1061887039+1062713343+1063559935+1064179199+1064642687+1065033855
1905+1065298175+1065520127+1065948415+1066611391+1067229055+1067582527
1897+1067662975+1067505343+1067154111+1066758335+1066567807+1066796223
1888+1067295935+1067499647+1067103295+1066580223+1066626687+1067236031
1880+1067792895+1067973759+1068024703+1068220415+1068515263+1068703807
1871+1068573183+1068000575+1067295487+1067153279+1067763391+1068554623
1863+1068903103+1068646463+1068083455+1067686463+1067776831+1068333503
1854+1069043519+1069500031+1069407039+1068770047+1067911999+1067196351
1846+1066833471+1066896831+1067158015+1067147647+1066747775+1066296127
1837+1066105727+1066108095+1066062079+1065905407+1065694527+1065395263
1829+1064959231+1064524095+1064268735+1064136767+1063925375+1063602815
1820+1063297215+1063101567+1063095231+1063362559+1063850623+1064356287
1812+1064675519+1064735167+1064667455+1064686911+1064840895+1064986175
1803+1064948415+1064612799+1064013887+1063420735+1063110591+1063095999
1795+1063214335+1063314367+1063319679+1063292095+1063367167+1063569663
1786+1063801471+1063945919+1063993343+1064076607+1064324735+1064701183
1778+1065042815+1065200255+1065105279+1064870911+1064868351+1065327807
1769+1065984831+1066497855+1066773759+1066913151+1067059071+1067201471
1761+1067083007+1066458175+1065363711+1064082175+1062918719+1061879423
1752+1060692671+1059013247+1056491519+1052882687+1048152511+1042366911
1744+1035523839+1027159167+1016157823+1002232511+986708607+968334335+939484863
1734+892889407+836964799+784036863+734378111+687943167+647155775+611393791
1724+579491583+553473279+536240256+531523360+547474367+590533055+650522879
1714+710734463+764316287+810068735+847738943+878003199+902478271+921975231
1704+935913407+944885759+951208511+956035071+957957503+956001599+950305535
1694+941441279+929810879+913856639+892015167+866629119+840468927+809105343
1684+765710079+719231935+684777727+664324735+658546431+672735999+709640511
1674+758174975+800908607+834180607+863245887+887821567+904281215+914855679
1664+924508479+936119999+948896127+960112767+968786303+975455295+980843199
1655+986351679+993357183+999300479+1002122111+1003473855+1004871679+1006972607
1645+1009784127+1013021951+1016416063+1019663615+1022555583+1025319807
1636+1028473855+1031624575+1033712383+1034869375+1035798655+1036831679
1628+1037920703+1038930111+1039815039+1040583039+1041130303+1041162559
1619+1040108543+1036589567+1028480959+1015052159+997402239+977670271+961249983
1609+956014207+965039103+982737343+1000893375+1015003007+1024615103+1031099775
1599+1035945215+1039945983+1043248511+1045857919+1047898815+1049552575
1591+1050974527+1052177919+1052922623+1052799295+1051299455+1047717631
1582+1041428415+1032777471+1023187647+1014009855+1005965503+999551359+994942783
1572+992345151+993191615+999271103+1009167295+1019233535+1027905983+1034922879
1562+1040118399+1044161983+1048521727+1053014847+1055537599+1056570303
1554+1057256895+1057880831+1058509823+1059186175+1059775295+1060167679
1545+1060490303+1060973311+1061810047+1063051007+1064187327+1064577599
1537+1064531071+1064510591+1064619391+1064782655+1064904959+1064943871
1528+1064871231+1064646399+1064319359+1064066175+1063975103+1063882175
1520+1063584511+1063092031+1062420159+1061450879+1060010495+1057906559
1511+1054984383+1051029823+1045296703+1037365759+1030705215+1028819391
1503+1030351359+1033821247+1038911231+1045458623+1052691583+1058912639
1494+1062922111+1065187903+1066733951+1068136255+1069303103+1069809983
1486+1069605759+1069071871+1068572543+1068209791+1067878079+1067391807
1477+1066623295+1065660671+1064708799+1063700543+1062358591+1060708799
1469+1058849471+1056541055+1053321535+1049005311+1044201663+1039619391
1460+1035087167+1029665151+1022538047+1014923007+1008962367+1004601855
1452+1000923263+997045311+991458879+981869311+966682559+945978175+920508031
1442+892330175+866153087+847537535+841048511+848625471+866101183+888081471
1432+913984383+943378431+971432127+992717503+1006636159+1015269823+1019815935
1422+1020132671+1014919935+1002783999+986891647+974899967+970224255+970546751
1412+971103615+967256511+957902527+946499135+938119295+936246783+940942335
1402+949596991+960002431+970956671+980873279+988309503+993061183+995484287
1392+996012223+995368831+994324607+993486335+993349695+994279743+996487103
1383+999995007+1004492863+1009359551+1013989695+1018094143+1021706559
1374+1024943231+1027863039+1030718399+1034021695+1038028095+1042388287
1366+1046612415+1050547583+1054131263+1057134399+1059420927+1061093503
1357+1062287295+1063094463+1063716479+1064470719+1065456319+1066395583
1349+1067005823+1067310463+1067441471+1067433023+1067302079+1067099007
1340+1066841663+1066476415+1065868799+1064865215+1063400319+1061476159
1332+1059062911+1056025599+1052037055+1046522495+1038881215+1029073727
1323+1018173567+1008135103+1000604095+995748607+992355519+989166399+985916863
1313+983169087+981534655+981108735+981485951+982110591+982447231+981850111
1303+979450751+974320831+965780031+953552383+937690943+918364671+895530943
1293+868622207+836599999+798476479+754043519+704573823+653117439+603847871
1283+560667711+525964096+500135392+482129696+470682464+465314368+466376576
1273+474293536+488727488+508375328+531569344+557057215+584111423+611930879
1264+639202175+664402047+686338175+704317887+718064063+727543423+732630399
1254+732907839+728138431+719278079+709137407+701827135+701083007+708612671
1244+723673727+744008255+767145343+791111679+814546111+836679743+857237439
1234+876152383+893364031+908882175+922833215+935330751+946391039+956011455
1224+964283327+971418175+977629055+982962943+987300223+990427903+991843455
1214+990525055+985363007+976199423+964408191+952226175+941358271+932042815
1204+923258239+913829631+903600767+893770815+886028991+881003199+877293503
1194+872153919+863365951+850509631+834806911+818769727+806428159+802453311
1184+809203135+824546943+843605695+862777087+881591359+901009471+921008383
1174+940202943+957140159+971257343+982688511+991731711+998731263+1004162175
1164+1008538943+1012265727+1015618879+1018795135+1021862207+1024705727
1156+1027193023+1029449215+1031820735+1034483007+1037227135+1039713215
1147+1041778367+1043386111+1044481983+1045111807+1045517439+1045860927
1139+1045947967+1045417087+1044056063+1041749631+1038278591+1033305855
1130+1026321151+1016328767+1001649407+980462463+952015103+917232255+877769215
1120+834824831+789687615+745169151+705283391+673059327+649062079+631990079
1111+620236031+613246463+612366399+620189887+637344831+658766655+674308927
1101+675312703+661574335+641529727+625812287+621140415+629259135+649013567
1091+677764607+711650431+746314815+778395647+806495999+830819135+852105663
1081+870968191+887815743+902868543+916183487+927885759+938321023+947813887
1071+956421311+964080127+970871167+977030399+982763583+988103359+992962047
1061+997299967+1001200895+1004822271+1008317183+1011694399+1014738943
1052+1017192959+1019011583+1020414911+1021773375+1023404351+1025376639
1044+1027592895+1030020479+1032653439+1035369215+1038005503+1040446591
1035+1042599615+1044438399+1045995647+1047156479+1047408127+1045697279
1027+1040200319+1027468479+1002230847+962114175+916236159+884971903+883751167
1017+908020927+939812223+966587775+987500671+1005014207+1018986431+1028779839
1007+1035351935+1040017599+1043313279+1045316031+1046139903+1045993151
999+1044873087+1042287295+1037412799+1029396351+1017192063+999108095+973259711
989+939839551+903459263+872102399+852748991+848177407+857418879+877418815
979+903648383+930569215+952762559+965830591+966749503+954521663+931281151
969+902593215+875709183+856384191+846797247+846315519+853661759+867731583
959+886742591+907668927+927118911+942916223+955034111+965077823+974702335
949+984420927+993785727+1002303551+1009897343+1016696959+1022761407+1028081855
939+1032693503+1036695935+1040214719+1043377407+1046268415+1048896831
931+1051277247+1053483391+1055526015+1057270207+1058628863+1059766463
922+1060940863+1062200383+1063427839+1064623167+1065879871+1067124415
914+1068192447+1069130303+1070110911+1071129599+1072050111+1072822911
905+1073428031+1073741823+1073723455+1073277567+1072327807+1070395071
897+1066523263+1059835327+1050564863+1040520511+1031590271+1022772287
888+1009374591+987095679+957489343+928622847+910601791+910576447+929456127
878+960713791+993354239+1018447935+1033331455+1039944255+1040752767+1036435647
868+1025427583+1005202751+976554367+947719871+931055679+932698687+947228927
858+964460095+978948479+990770495+1000380543+1006639999+1008965247+1008885759
849+1009333311+1012753215+1019227007+1026072767+1029351231+1025870399
840+1014894783+999701247+987322943+984539967+992494463+1005329471+1014387391
830+1013191295+998644095+970182271+931058111+890413311+860261055+846681855
820+843656831+837609663+819723519+794484863+776752447+780638783+809712191
810+855657791+905068415+947720639+980105663+1003569663+1020683583+1033099199
800+1041418623+1045852351+1046760127+1045225983+1043479103+1043983743
792+1047503423+1052625727+1057430783+1060799871+1062024959+1060400319
783+1055709695+1048011775+1036225663+1018179903+993766975+967141695+942657151
773+917770495+882894399+830945727+767680511+712984319+690645055+712342271
764+768648575+836619391+896845311+942601599+975642943+999101439+1015470271
754+1027160703+1036146943+1043349759+1048827967+1052449087+1054308415
745+1054491647+1052704575+1048675007+1043065599+1037623295+1033885247
737+1031473023+1028171391+1022436607+1015316223+1008132799+997305663+972700927
727+923637311+848671231+760703871+683684479+643230719+653189247+705130303
717+773728575+835144575+879095551+906003583+917615871+912460799+889665983
707+855729279+824887103+809316543+808935999+814451327+820576063+832329791
697+857012159+892519487+925469951+940379647+930877887+904734271+879870143
687+873059327+888973247+919234303+951340159+977021567+993510399+1001336767
677+1003586175+1005057087+1009153919+1015634239+1022394239+1028490687
669+1034303935+1039416063+1042844351+1045153087+1047338623+1049652799
660+1051691711+1053057087+1053877951+1054709567+1055895359+1057059519
652+1057467263+1056779903+1055250943+1053353279+1051202623+1048201535
643+1043032639+1032793343+1012209407+978501183+940886527+919967679+929673407
633+961547327+993843263+1013056703+1020151935+1020435519+1015451263+1004050111
623+985494015+959954559+928719935+895154111+864359231+841476671+831003903
613+836792703+859682175+894536575+932178687+965139839+990569919+1008774911
603+1021154431+1029409151+1035165567+1039440895+1042444799+1044292863
595+1045747647+1047593151+1049590079+1051039743+1052111039+1053579967
586+1055510911+1056915839+1056744447+1055084671+1053116479+1051704127
578+1050624767+1049569791+1048894655+1048694143+1048198655+1046830719
569+1045026687+1043512767+1042386623+1041348543+1040201663+1038596543
561+1035886015+1031852159+1027171711+1022663231+1018411967+1013852543
552+1008260415+1001032127+991886399+980677631+966648831+948269375+924565439
543+896779711+868550975+844280447+826912767+817185023+814821247+819581503
533+830787135+846392831+863243199+878529471+890644927+898983359+904028607
523+907190527+909542783+911141759+911798335+911806975+911502783+910907007
513+910293695+910391807+911742207+914197951+917033919+919314303+920419647
503+920535423+920418495+920405183+920191743+919902015+920350655+921673663
493+922661695+922406911+921688575+921539327+921467199+920314559+918254527
483+916899583+917272767+918628159+919739455+920831871+923822207+930531007
473+940548671+950894655+958856767+964560255+969514815+974427519+979100095
463+983151551+986231359+988104063+988881215+989019583+989064447+989625151
453+991578367+995498175+1000596159+1005326015+1009103743+1012332543+1015258367
443+1017896319+1020364543+1022149311+1022082495+1019856831+1016552063
435+1013299199+1010479167+1008617215+1008512319+1010017791+1012099647
426+1014409407+1017460159+1020952959+1023402815+1024023935+1024126975
418+1025783295+1028429375+1029764863+1028284479+1023547135+1016482367
409+1009493183+1005648383+1007195519+1013921279+1023032511+1031165375
401+1036327999+1037956799+1036992895+1037049407+1041790015+1050200383
392+1057403903+1059068607+1054920063+1048638143+1044850559+1046297791
384+1052276159+1059835967+1066847999+1072033983+1073741823+1072834367
375+1071102271+1073741823
##END=
