##TITLE=S. Marschner STM114
##JCAMP-DX=4.24
##DATA TYPE=INFRARED SPECTRUM
##DATE=11/8/2017
##SAMPLING PROCEDURE=Diamant-ATR
##ORIGIN=Angelika Moesle
##XUNITS=1/CM
##YUNITS=TRANSMITTANCE
##RESOLUTION=4
##FIRSTX=3997.453
##LASTX=373.96442
##DELTAX=-1.4165319
##MAXY=0.75720519
##MINY=0.45585594
##XFACTOR=1
##YFACTOR=7.0520229e-010
##NPOINTS=2559
##FIRSTY=0.67681128
##XYDATA=(X++(Y..Y))
3997+959740618+959242787+958575745+958255240+958476517+958853820+958922282
3988+958606849+958152124+957906082+958076308+958429945+958504493+958243829
3978+957969642+957783273+957589803+957507141+957643474+957777018+957798317
3968+958064391+958802685+959519933+959525089+958920592+958605581+959099355
3958+959853116+960051065+959641559+959280906+959530075+960264312+960778033
3948+960638319+960292542+960255353+960275892+959927664+959442173+959288429
3938+959588818+960295163+961148490+961396560+960348918+958553009+957505958
3928+957794514+958542443+958614878+958015622+957783188+958348805+958959218
3918+958756113+957900673+957432256+957979109+959126570+960079971+960671790
3908+961445160+962548924+962988435+961618851+958993534+956701907+955172493
3898+954356608+954993392+957482123+960611779+961938257+960408083+958728137
3888+959361033+960733659+960059771+958147560+957949695+958749267+957898391
3878+956376499+956856412+959025821+961048163+962323337+962780259+961569491
3869+959546726+959104679+959975841+959835958+958227939+957246647+958075378
3859+960418902+964063969+968160465+968661423+961002691+952067939+950018381
3849+952966824+957264650+960891207+963041176+963804996+963853258+963335902
3839+961496295+958593325+956753127+956928508+957862047+958311616+958488603
3829+959014072+959636826+960302347+962097327+965033429+966116570+963208782
3819+960039232+959201541+958203851+955939524+955068447+956865878+959923607
3809+962148800+961928791+960219431+960201259+961980518+961940540+958775469
3799+956383515+956481475+957048275+957123246+957592170+958795585+960173029
3789+961306714+962055742+962225715+961917465+961912140+962731490+963579155
3779+963204303+961822041+960813532+960801361+961655280+962917437+963462938
3769+962427890+960824773+959998408+959851933+960215374+961440596+962980321
3759+963269891+961985251+961103440+962266285+965058447+967018582+964878924
3750+960175987+958512354+959974742+960094847+956792091+954570701+956630655
3740+961050192+965115161+966785556+964864978+960350101+956394587+955193623
3730+956695737+959617048+962252677+963284429+962741971+961553178+960391601
3720+959839339+960540105+962707824+966027654+969468940+970681483+967412367
3710+961919494+958862695+959150067+961311870+963765524+964958374+964293445
3700+963131783+962779752+963043966+963698414+965179651+967427158+968922425
3690+967435948+963180721+959944737+959762424+961506860+963704669+965623134
3680+967344834+969203712+970026443+966895434+961151533+958995731+960764932
3670+961779611+959901124+958266228+958832605+960354581+961557320+962348186
3660+963290092+964497141+964990915+964076986+963507481+965341594+968719320
3650+970047742+965989450+959742477+957065095+958016298+960175987+961829901
3640+962504466+962605892+962580704+962597101+962992323+964509312+967392842
3631+969745748+967546164+960928819+956847875+957956710+961860667+965835198
3621+967565688+965825479+962676551+961359117+961794994+962123444+962042134
3611+962432031+962848637+962101975+960936003+961209937+962981927+964671678
3601+965128938+964842411+964813335+964866922+964157788+962928002+962645194
3591+963991957+965600060+964968263+961809870+959411323+959593889+961110793
3581+962490520+963302939+963652688+963590058+963111921+962374472+961920423
3571+962447329+963783105+964147307+961796093+958542866+957650490+959114991
3561+960899406+961685708+961764566+962038753+962630825+962774343+961943160
3551+960836522+960584225+961167761+961535598+961063208+960339874+960150800
3541+960472742+960883008+961176467+961378304+961475503+961426819+961410422
3531+961713769+962259692+962547149+962267722+961657478+961032104+960439271
3521+959904167+959565405+959516805+959775694+960323984+960991872+961458514
3512+961511087+961228025+960887150+960749887+960851228+960884107+960396757
3502+959388079+958509057+958351932+958838775+959430256+959788203+960104313
3492+960693089+961431045+961823308+961683595+961472376+961629501+961864808
3482+961610399+960966516+960562673+960601637+960729856+960633840+960284766
3472+959812968+959487477+959571068+959964853+960274877+960339959+960331760
3462+960319674+960193568+960044895+960163056+960581436+960973277+961079943
3452+961026779+961145025+961549459+961941976+961951612+961652829+961405266
3442+961293867+961159647+960957810+960694441+960302093+959890559+959778737
3432+960095946+960660971+961212895+961490463+961282625+960651674+959901969
3422+959309728+959059545+959272623+959843734+960417127+960679143+960583634
3412+960317392+960110906+960014805+959832324+959365090+958759156+958465783
3403+958746309+959326632+959705542+959699625+959555854+959620513+959973981
3393+960335986+960389404+960217825+960179115+960372161+960606455+960800600
3383+960991787+961107920+961123979+961208078+961455641+961747577+961989055
3373+962191399+962275751+962082282+961634572+961237660+961214924+961530865
3363+961791951+961736674+961573294+961645898+961893208+961910027+961536189
3353+961125331+961063039+961244929+961331901+961370189+961704894+962288767
3343+962564983+962148462+961255240+960391601+959893179+959753634+959690919
3333+959425945+958983645+958592734+958283132+957789189+956874584+955594423
3323+954231094+953053881+952132598+951381034+950736137+950132739+949383457
3313+948365397+947270085+946429267+946007252+945976148+946127188+946080363
3303+945628005+945060528+944893599+945386020+946474909+947927661+949416674
3293+950675619+951655306+952411688+952935636+953211429+953331787+953441073
3284+953649418+954033061+954610003+955251098+955706076+955827871+955743435
3274+955707175+955837591+956095720+956470149+957008804+957644911+958140375
3264+958328520+958321505+958361061+958554445+958846805+959136544+959371260
3254+959600059+959839508+959881684+959529230+959013058+958824829+959171282
3244+959853200+960502324+960751916+960474770+959946766+959530244+959334324
3234+959389770+959761241+960257043+960459472+960208697+959779836+959582901
3224+959857680+960536555+961351088+962164183+962989534+963598257+963570196
3214+962991647+962624993+963016074+963774991+964100144+963754198+963178186
3204+962859371+962940850+963281471+963585325+963575943+963291782+963096707
3194+963261608+963689793+964120176+964422424+964602455+964634742+964475588
3184+964286767+964427157+965028442+965751945+966162296+966162888+965914057
3174+965578423+965290712+965109245+964919410+964647843+964543712+964922875
3165+965648406+966171678+966116739+965619416+965096651+964867683+964994803
3155+965285218+965392053+965083212+964503649+964062870+964022638+964295304
3145+964624177+964791191+964653421+964181285+963562504+963104145+962901547
3135+962709092+962296966+961831761+961683003+961934031+962317927+962551122
3125+962492126+962052277+961249155+960358638+959764368+959621105+959816180
3115+960179960+960517538+960545853+960126881+959561517+959363315+959718473
3105+960354919+960871936+961044867+960929749+960795867+960843199+960983589
3095+961028470+960969389+960883516+960753860+960586339+960489477+960457782
3085+960318828+960035513+959820406+959836550+960011931+960207598+960381966
3075+960578478+960905829+961439497+962000634+962200274+961856694+961228616
3065+960757917+960719375+961085860+961537204+961660689+961284569+960526666
3055+959476489+958041401+956186918+954097381+951991786+949923887+947875850
3046+945965498+944369989+943065740+941883794+940861931+940289214+940339589
3036+940871313+941604113+942357874+943166743+944189113+945394472+946484798
3026+947307613+948083012+948972092+949746899+950187762+950489250+950969669
3016+951613046+952166660+952550894+952954906+953556952+954328970+955139868
3006+955881712+956423155+956616286+956445722+956050670+955543795+954936678
2996+954234052+953486377+952757887+952125245+951653278+951291864+950843901
2986+950108312+949036074+947694383+946126089+944339223+942443325+940659079
2976+939103295+937661023+936157895+934581741+933056046+931685364+930528943
2966+929674348+929240415+929296706+929822682+930723426+931823049+932902133
2956+933848941+934739543+935676462+936621917+937489783+938312429+939210046
2946+940235627+941307612+942268619+942987304+943406953+943494686+943196917
2936+942494798+941453326+940193789+938898584+937816711+937120002+936733486
2927+936458031+936261265+936282395+936539087+936840236+937058386+937290481
2917+937648598+938046947+938332038+938536833+938864184+939398359+939900923
2907+940017731+939715483+939356183+939249094+939309527+939265153+939035762
2897+938800540+938844660+939406220+940488262+941743319+942707623+943215850
2887+943451242+943629244+943866157+944306091+945036609+945845056+946339505
2877+946347281+946027453+945652938+945415518+945324996+945199312+944883034
2867+944557119+944652459+945327024+946154742+946526720+946313388+945881146
2857+945528523+945264140+945098901+945132710+945303443+945388725+945305894
2847+945217992+945352634+945797893+946437043+947075348+947635556+948173534
2837+948719373+949199370+949504999+949602283+949607101+949743180+950169928
2827+950852269+951613046+952271974+952741575+953065038+953360355+953673507
2817+953872301+953783047+953440059+953089633+952972825+953230361+953918703
2808+954875316+955673113+955954400+955750957+955388868+955218388+955421493
2798+955873682+956222248+956242449+956052698+955946201+956093353+956361370
2788+956402955+956070870+955700075+955757888+956309559+957033146+957593353
2778+957816067+957714050+957516861+957497675+957645587+957675001+957454823
2768+957263805+957463867+958008015+958483701+958654603+958737181+959034442
2758+959507677+959910844+960175903+960396419+960525061+960388474+959997732
2748+959601411+959426959+959518158+959780512+960042528+960139728+960063912
2738+959979560+960022497+960141503+960195089+960154604+960108793+960080816
2728+959969924+959725066+959444624+959231123+959074336+958922029+958725517
2718+958421155+958031089+957712866+957553290+957432932+957226362+956975249
2708+956757860+956559995+956364075+956229686+956260452+956543683+957041429
2698+957497252+957630458+957499873+957493956+957869146+958466628+958962684
2689+959225291+959333817+959386727+959416986+959468797+959644179+959968826
2679+960263890+960334042+960275046+960370471+960714726+961188722+961719939
2669+962286654+962761580+962972292+962864611+962546304+962268482+962280231
2659+962548755+962763608+962745183+962688046+962871373+963272849+963589466
2649+963621669+963549995+963732984+964276202+964936652+965424678+965644687
2639+965687793+965722024+965847285+965980913+965944485+965706811+965520526
2629+965771216+966573746+967489957+967860752+967505509+966890786+966546446
2619+966569182+966712023+966703909+966429553+965954374+965408788+964844862
2609+964322774+964080620+964358442+965020582+965608343+965848130+965889884
2599+965950317+965982688+965880502+965783302+965924538+966327113+966891546
2589+967638546+968596342+969515511+969963052+969794685+969415269+969425834
2580+970024245+970864387+971505989+971812125+971896140+971907381+971956488
2570+972083439+972197965+972150380+971947951+971856753+972145731+972692753
2560+973016301+972823170+972364219+972108711+972222815+972537572+972874221
2550+973154662+973266569+973117304+972812182+972506891+972120206+971494917
2540+970751044+970147224+969712700+969326691+968996719+968830888+968897238
2530+969226195+969801109+970511764+971210502+971803166+972268541+972634264
2520+972876925+972879292+972640942+972454657+972649732+973247805+974043066
2510+974863684+975589807+976074283+976181963+975848527+975163228+974514357
2500+974486972+975347822+976671257+977678076+977913383+977459334+976663904
2490+975894844+975448403+975442402+975759188+976132434+976286009+976112149
2480+975835003+975848865+976250088+976699572+976862698+976809872+976870728
2470+977207038+977648071+977969083+978249355+978772796+979552083+980177710
2461+980229352+979682922+978881998+978238706+977973140+978074143+978499116
2451+979253892+980159453+980741467+980612572+979865995+978947248+978271331
2441+978014048+978062141+978100767+977894619+977483507+977055322+976787305
2431+976848330+977289193+977895549+978386364+978699854+978875320+978880392
2421+978797307+978894929+979301646+979856444+980318860+980479451+980214646
2411+979710898+979408143+979508554+979785108+979955165+979920680+979650719
2401+979182471+978748877+978609923+978735860+978859684+978826044+978701460
2391+978565465+978445022+978459306+978723351+979084342+979239523+979129476
2381+979003539+979153565+979714702+980602937+981557098+982380167+983082539
2371+983600064+983515373+982354388+980221999+978107190+977310577+978231099
2361+979893465+980974408+980992834+980327059+979479902+978592597+977682048
2351+977131053+977411411+978419159+979446600+979729155+979135562+978325509
2342+977985564+978227971+978740340+979188810+979508639+979796688+979934542
2332+979583694+978698671+977774430+977319367+977370418+977751271+978391689
2322+979107416+979491904+979416511+979225070+979182133+979174272+979062704
2312+978963476+979098288+979579468+980335765+981113953+981599612+981688529
2302+981683796+982055943+982839625+983458152+983410144+982921526+982581919
2292+982576595+982653425+982636351+982558000+982415581+982177569+982026192
2282+982293955+983056845+983968915+984613728+984896705+984999991+985103360
2272+985312381+985728649+986348106+986918456+987116320+986946517+986811029
2262+987055043+987511542+987621336+987035180+986000216+985109277+984824609
2252+985295731+986347937+987483650+988070566+987766543+986853206+986156834
2242+986438713+987579244+988573384+988671260+988125505+987461421+986663455
2232+985629336+984877773+985211463+986924542+989582653+992383183+994670669
2223+996218931+997055777+997168275+996652357+996028589+995922515+996299987
2213+996382311+995513431+993978439+992887776+993273278+995153540+997370450
2203+998437532+997694927+995789478+994223720+994250598+995848305+997915782
2193+999548734+1000592234+1001027688+1000725102+999975229+999466579+999593699
2183+1000163120+1000674305+1000779703+1000664585+1000797368+1001216256
2174+1001424770+1001072316+1000356166+999624296+998785760+997454211+995931728
2164+995479961+996938884+999765109+1002986048+1005965425+1007751023+1007357745
2155+1005130946+1002602659+1001209578+1001464241+1002642469+1003107083
2146+1001851772+999851828+998909076+999287394+999725215+999627761+999667402
2136+1000178756+1000499092+1000065836+998987428+997651652+996593699+996217832
2126+996135509+995584176+994798888+994949082+996392031+997972157+998484103
2116+998039605+997471537+997064821+996542563+995887946+995493823+995673092
2106+996421782+997469171+998393243+998952689+999293226+999609843+999816582
2096+999769926+999526167+999252233+999129339+999316385+999727412+999918599
2087+999519997+998784407+998433644+998927840+1000149512+1001803256+1003702366
2077+1005519998+1006682843+1006772097+1005857153+1004307624+1002408260
2068+1000336050+998567019+997979764+998986667+1000727215+1001895554+1002268039
2058+1002647455+1003398259+1003944858+1003907669+1003917304+1004881270
2050+1006872846+1008950466+1010009772+1009876651+1009388033+1009395640
2041+1010102999+1011207270+1011960693+1011362367+1009437140+1008046594
2033+1009087728+1012246291+1015577277+1017542905+1017796047+1016919307
2024+1015839547+1014996193+1014080658+1012921870+1012233106+1012955510
2016+1014848619+1016351746+1016196058+1014665883+1012993713+1012089757
2007+1012167010+1012882906+1013351069+1012801174+1011584066+1010851097
1999+1011067556+1011478245+1011282325+1010662699+1010393245+1010975682
1990+1012287284+1013715356+1014543750+1014449678+1013716286+1012906656
1982+1012476696+1012605760+1013088884+1013682139+1014763844+1016822023
1973+1019069868+1019918716+1019110016+1018127032+1018132526+1018611255
1965+1018707441+1018784017+1019684845+1021263366+1022298245+1021666448
1956+1019309655+1016258519+1013932492+1013150331+1013580460+1014263477
1948+1014744488+1015372482+1016270183+1016603958+1015507547+1013386061
1939+1011358732+1009978161+1009207833+1009015040+1009513124+1010506588
1931+1011244967+1011193324+1010861662+1011188929+1012236740+1013140104
1922+1013331799+1013204509+1013244742+1013288946+1013036904+1012704143
1914+1012638470+1012868368+1013273563+1013712821+1013979063+1014043215
1905+1014167123+1014471653+1014745164+1014892063+1015212483+1015970217
1897+1016809345+1016918377+1016082377+1015173772+1015109198+1015869890
1888+1016833349+1017669518+1018481008+1019397473+1020306500+1020838477
1880+1020759703+1020314107+1019896233+1019653234+1019614946+1019790751
1871+1020020649+1020056570+1019829292+1019560853+1019587308+1020081842
1863+1020907954+1021697383+1022187691+1022523326+1023087844+1023968894
1854+1024795513+1025319461+1025828871+1026681438+1027780807+1028704963
1846+1028983884+1028432551+1027704399+1027658420+1028238574+1028902743
1837+1029344114+1029657688+1030136332+1030889333+1031542260+1031488251
1829+1030773792+1030103200+1029654560+1029041612+1028216176+1027574406
1820+1027255169+1027019185+1026759197+1026629034+1026536568+1026075758
1812+1025087112+1023854199+1022722627+1021946214+1021799654+1022388937
1803+1023438269+1024398685+1024856791+1025061671+1025715359+1027113088
1795+1028910435+1030500281+1031514453+1032327886+1033518538+1034976362
1786+1036221446+1037105539+1037895476+1038753790+1039659014+1040720095
1778+1042111739+1043886264+1045863810+1047449684+1048037446+1048052828
1769+1048339778+1049047053+1050150986+1051705841+1053492284+1055089146
1761+1056385703+1057694009+1059160285+1060614560+1062026996+1063595205
1752+1065252584+1066585232+1067614110+1068945490+1070606504+1072105743
1744+1073195984+1073741823+1073478539+1072474003+1071236864+1069476622
1735+1064970790+1054928809+1041072126+1026767480+1011014984+992850079+973046644
1725+951307501+927192547+903221872+881896968+860770351+834153988+803012352
1715+779348743+768286843+765688826+768545056+775634368+785957720+798843337
1706+813052220+826249467+837740567+848970495+860292636+870026875+878010338
1696+885013185+891082747+896702909+902423652+908074073+913271967+918063228
1686+922466621+925909260+928338234+930863732+933942084+937252954+940204946
1676+942394894+944294427+946801584+949964626+953001393+955296063+957400983
1666+960007705+962831310+965084903+966592425+968112964+970207572+972908959
1656+975927047+978103133+977711208+976924906+978455080+981018528+982771585
1646+983108403+983518585+984892648+986759218+988779109+991012754+993246315
1636+994622492+995078062+995958098+997518531+999088515+1000277054+1001367464
1626+1002957818+1005197126+1007767251+1010480133+1013429843+1016462385
1618+1018731276+1018799738+1015759590+1008794862+995529406+973308660+943010210
1608+911404214+887206767+874966978+873821545+879844958+888836762+898356485
1598+907865221+917490765+927109209+936192887+944039172+949913998+952968430
1588+952603467+949528834+946086364+944825559+946746814+951083688+956539710
1578+962279893+967719940+972195937+975694360+978353655+979112065+976474830
1568+971543686+967061265+963738900+961425805+960265749+959325280+955235884
1558+947295780+943333166+944410052+947291300+950673337+954359989+958371879
1548+962612146+966962375+971392899+975661481+979042419+980638605+980820072
1538+981884196+984428542+987430064+989956407+991709379+993379268+995531012
1528+997953140+1000236400+1002271927+1004184645+1005777450+1006668305
1520+1007202733+1007994952+1008991543+1010066485+1011372509+1012845209
1511+1014130356+1014842026+1014277846+1011566148+1008815147+1008870847
1503+1010726766+1013148303+1015709215+1018164306+1020186818+1021641345
1494+1022645036+1022835970+1021079363+1016635822+1011768154+1010302215
1486+1012271056+1015025268+1016129709+1014018365+1008391188+999945224+989407525
1476+977575129+965679003+955352185+949032355+947857340+949811473+952118230
1466+952723064+951351114+950367032+951871765+955594085+959925635+962117950
1456+960632318+958602285+958305361+959526525+961559855+963423805+964078760
1446+963435553+962664718+963185201+965783556+970238084+975689542+981307253
1436+986281757+990189855+993585162+997148666+1001170191+1005591672+1010054145
1426+1014288834+1018309429+1022091506+1025362059+1027588352+1027914942
1418+1026286047+1024604748+1024358960+1025200962+1025665829+1023737813
1409+1017803400+1007314048+992251922+973776824+955923803+942968963+935949804
1400+934174602+936804061+942475528+949444820+955948061+960733152+963722757
1390+965406929+966299559+967357343+969788346+973894393+979016809+984206335
1380+988563326+991481003+992735299+992316750+990326272+986795224+980999849
1370+971543939+958400109+944722020+935043143+932509362+937973836+948823081
1360+960331169+969544671+975568169+978069578+977059464+973181963+967620881
1350+961841058+957291020+954990180+955275863+957876922+962267299+968099863
1340+975205150+983129026+991119843+998727017+1005971933+1013051610+1020038145
1330+1026654475+1032297712+1036392095+1038828845+1040196231+1041563026
1322+1043853808+1047308872+1051431992+1055341949+1058119067+1058792787
1313+1056351557+1050315211+1041386123+1031623147+1024242405+1022520705
1305+1027613877+1037288275+1047198487+1053522289+1054687500+1051303435
1296+1044991719+1036945456+1026961119+1013754828+996431925+975770344+954099917
1286+933855027+916101995+900251961+884792838+868153121+849297592+828021373
1276+804876386+780849504+757168905+735344649+716958552+702932277+693054564
1266+686499596+682688148+681502060+682943994+686859656+692906356+700671670
1256+709800017+719958130+730763846+741885587+753092018+764050295+774237483
1247+783291410+791387963+799002829+806305473+813187623+820018385+827797391
1237+837144522+847421895+857014476+864145034+867611170+867567219+865855831
1227+865012899+866440465+869366171+871562796+871297484+868929872+866747700
1217+867176984+871173491+878205751+887186313+897061533+906917736+916094726
1207+924322963+931639807+938125383+943639387+947727008+949771156+949317023
1197+946486742+942339617+938673166+937000658+937513195+939021816+939659361
1187+937545229+931437209+921517531+909557423+897906578+888093734+880300867
1177+873972415+868786608+865220061+864508814+868027776+876235643+887950555
1167+900865586+912939206+923191899+931380242+937432055+941267464+942757406
1157+941680604+937999615+932534972+927393455+925307468+927998543+934998178
1147+944176520+953388754+961560024+968493310+974208982+978756991+982417694
1137+985638972+988653003+991308917+993282998+994228200+993670444+991012416
1128+985862784+978356697+969102963+958814349+947844070+935758701+921183164
1118+902340060+878370568+850621281+822648013+798577771+781027337+770183079
1108+764340710+760902720+757111262+750692880+740617344+727705103+714620269
1098+704890933+701255247+704443435+713248488+725507633+739100693+752548546
1088+765133690+776590558+786746304+795469499+802792090+808843564+813693906
1078+817480209+820698190+824092736+828171567+833006864+838443869+844114913
1068+849215945+852730849+854236513+854452549+854795875+856287339+858879608
1058+861780043+864258377+866127736+867697973+869487713+871930126+875156221
1048+878970923+883058882+887205669+891261679+894993550+898199106+900951037
1038+903486254+905844484+907811296+909163638+909676682+908704687+904777318
1028+895750777+879738715+856699211+829930372+805894361+791323051+789244333
1018+797433437+810691370+824450430+836542561+846756796+855748430+864254912
1009+872631569+880805543+888686398+896439794+904004624+910196573+912493271
999+908425175+898193950+886094128+878302528+878367187+884912013+893543755
989+900115881+902202544+899048208+891632728+882874964+876716908+875620835
979+877866483+877332815+867580573+848150046+826898760+814419606+815188413
969+824050222+830340976+824909466+805555008+778829528+756416750+747459262
959+753233761+768593402+787145414+804757972+820012215+833195093+845044225
949+855861943+865513688+873999800+881676620+888953401+896050320+902978112
939+909474930+915091965+919636593+923426952+926917768+930266166+933422616
929+936436985+939472991+942585997+945643303+948518973+951294485+954151052
919+957095523+959862667+962045092+963348496+963880811+964160324+964634235
909+965198415+965383347+965080000+964817815+964770399+963402336+958282118
899+949476684+941388752+939546609+945589040+956463387+967998522+977871038
890+985621899+991588260+996253331+999704929+1001334416+1000479906+997504078
880+993809481+990506303+987373773+983483340+978567494+973425131+969349173
870+967596877+969116655+974275246+982616911+992597783+1001379804+1005295594
860+1001162331+987651679+965888024+938994432+910777911+884525159+862961228
850+848719720+843392255+845000020+846760093+839947841+819706924+789292172
840+759221083+741712149+744076380+765413286+798351169+833839146+865364001
830+890316139+908949630+922594502+932022181+936261180+932940083+921165922
820+904687049+890848116+885179016+887333549+892367303+894662818+890135432
810+876355072+852977314+823179145+793381906+769094106+750237902+731670591
800+708939505+683198784+660612145+647559302+646418687+655178817+670000649
790+687425611+704680813+719610747+731623766+742480702+755226520+771796423
781+791622087+812565293+832865798+851822499+868820417+882263706+889685018
771+888990590+879906490+864440690+845804325+826566338+807734306+789604478
761+773181727+760581285+754230352+755385758+762717985+772694039+782514236
751+792659079+805590169+822078677+839563692+853723299+860903725+859460185
741+849880874+834370954+816183736+798491728+783189562+770706266+761118588
731+755299209+754652451+759610558+768403905+776883509+778929179+767885113
721+740838283+704000754+671699148+656595944+660959654+677164340+694917964
711+708407612+717859127+725601958+732347522+737696794+742543839+749144111
701+758685472+769575202+778576049+783639300+785435801+786467806+789395457
691+795768366+805149728+815219855+822917889+825357006+820783472+810715205
681+800907940+797850718+803463950+814010354+824287811+831963195+837736510
671+842894425+847874169+852288887+855638299+858443224+861448719+864613621
662+867643964+870836758+874953455+880126414+885598918+890544600+894516849
652+897330227+899088017+900052152+899981577+897880883+893127657+887036034
642+882654617+882169380+884212852+884395249+879599508+871924970+867285340
632+869609508+877527637+886760833+893998142+897890603+897947233+894035500
622+886925480+878560910+871406770+867512365+867934549+872546625+880275848
612+889632445+898985155+906692825+911825215+914936276+917422134+919987525
602+922310087+924008628+925185757+926100785+926896723+927623606+928231568
592+928548692+928325387+927330655+925551565+923372943+921452449+920334401
582+920227820+921010910+922202238+923293747+924503839+926552805+929081008
572+930237429+928668459+925191674+921897454+920043986+919403990+919085260
562+918274954+916667696+914806705+914005189+915576272+919695420+924918923
552+929282422+931997839+933512800+933778450+931423939+925532717+917691841
543+911289011+908914384+910790082+915264895+920442081+925263348+929225117
533+931748163+932477498+931958199+931346856+931462566+932256136+932965693
523+932884806+932142117+931614619+931835981+931986429+930512123+926631157
513+920863674+914865447+910748920+909493947+909774135+909005583+905678823
503+900069479+893167720+885877247+879194651+874335097+872078377+872304218
493+874567277+878461513+883205273+888071083+893173974+898681385+903579820
483+906444417+907292758+907447432+908113798+909868546+912674063+915864659
473+918382465+919038773+916924218+912539758+908618137+908314114+911812959
463+916501189+920530913+924268024+928539818+932952508+936437661+938848041
453+940764647+942419405+943708018+945018352+947282172+950775777+954343254
443+956335422+956072899+954379345+952697454+951643642+950529059+948703905
433+947356297+948502914+952440932+957543401+962280653+966248254+969271667
424+970737098+969645843+964308067+954178353+944899431+941858691+941662432
414+939258476+933185364+925986090+921434700+921227961+924317638+927984428
404+929737147+929027590+927312737+926176685+924160091+917057424+905846851
394+896704177+893290276+894827634+898407451+901539812+902657523+900213757
384+893686258+885394545+877878485+871277537+864613536+859098011+861205297
374+875372765
##END=
