##TITLE=SG-V3077 15-42
##JCAMP-DX=4.24
##DATA TYPE=INFRARED SPECTRUM
##DATE=16/11/2018
##SAMPLING PROCEDURE=Diamant-ATR
##ORIGIN=Angelika Moesle
##XUNITS=1/CM
##YUNITS=TRANSMITTANCE
##RESOLUTION=4
##FIRSTX=3997.453
##LASTX=373.96442
##DELTAX=-1.4165319
##MAXY=0.92923164
##MINY=0.22801661
##XFACTOR=1
##YFACTOR=8.6541441e-010
##NPOINTS=2559
##FIRSTY=0.86890954
##XYDATA=(X++(Y..Y))
3997+1004038678+1003534313+1003036560+1002789577+1002617736+1002381154
3989+1002176116+1001955925+1001526357+1001063730+1001123719+1001924932
3980+1002979601+1003648988+1003797756+1003686180+1003464199+1003079193
3972+1002565323+1002150219+1002089679+1002460015+1003027193+1003424528
3963+1003588724+1003819245+1004279669+1004731001+1004881697+1004695393
3955+1004342413+1004037783+1003902583+1003908437+1003956374+1003921799
3946+1003690313+1003325005+1003069344+1003050817+1003138631+1003211707
3938+1003309232+1003490027+1003764697+1004132278+1004553788+1004886381
3929+1004938932+1004714471+1004553030+1004832246+1005424769+1005737320
3921+1005482417+1004989898+1004743742+1004868749+1005132537+1005354036
3912+1005454316+1005180680+1004276914+1002993513+1002011506+1001775475
3904+1002090023+1002485705+1002931251+1003721306+1004757104+1005483175
3895+1005547572+1005129368+1004723287+1004700971+1004885072+1004851599
3887+1004511499+1004046048+1003586864+1003260814+1003368395+1003842318
3878+1003835913+1002903839+1001734013+1001284816+1001828577+1003010250
3870+1004331737+1005056706+1004803732+1004181454+1004093364+1004697046
3861+1005261607+1005086873+1003941634+1002060338+1000447307+1001041897
3853+1004534985+1007472466+1007777096+1006779523+1005576086+1004486773
3844+1003713248+1003434032+1003554769+1003862636+1004305427+1004805178
3836+1005110704+1005068828+1004758275+1004371409+1004031860+1003697407
3827+1003323283+1002926430+1002523103+1002452370+1003486583+1005396118
3819+1006230734+1005253548+1003932750+1003771653+1004428574+1004727419
3810+1004311351+1003726058+1003796999+1004426715+1004458603+1003675229
3802+1003329206+1004255838+1005454454+1005989537+1006099185+1006137479
3793+1006149601+1006224260+1006477166+1006802320+1007035390+1007182161
3785+1007239120+1007108673+1006970029+1007332720+1008325816+1009179097
3776+1009054022+1007975040+1006535089+1005422152+1005185639+1005784568
3768+1006483984+1006774426+1006814236+1006853287+1006960387+1007233404
3759+1007691554+1008014023+1007895559+1007467093+1007101785+1007280651
3751+1008316173+1009387717+1009344739+1008631410+1008575967+1009532972
3742+1010147123+1009712458+1008888517+1008384359+1008577344+1009396670
3734+1010119780+1009959716+1008922334+1007618685+1006759136+1006836689
3725+1007685218+1008395379+1008307220+1007734600+1007397324+1007629154
3717+1008202600+1008704210+1009038043+1009495436+1010086996+1010133761
3708+1009390885+1008411633+1007623782+1007221144+1007473774+1008349233
3700+1009073513+1009063802+1008719294+1008673630+1008943754+1009117179
3691+1009064559+1009073582+1009318016+1009633115+1009892220+1010025353
3683+1009880718+1009325386+1008391246+1007432725+1007285059+1008680586
3674+1010503753+1010815615+1009848278+1008954430+1008609853+1008196195
3666+1007578738+1007402214+1008084894+1009214843+1010000214+1010249401
3657+1010439975+1010755281+1010599694+1009583388+1008091644+1006908249
3649+1006837653+1007810982+1008838583+1009302037+1009173449+1008642292
3640+1007861535+1006876980+1005853029+1005268838+1005508865+1006247333
3632+1006873743+1007637075+1009399288+1011355657+1011482523+1009910196
3623+1008071188+1007025748+1007161774+1008110997+1008859659+1008927913
3615+1008943065+1009451012+1009972389+1009783467+1009187362+1008993137
3606+1009171728+1009114906+1008808899+1008791336+1009372771+1010203255
3598+1010568494+1010069088+1009016967+1008172158+1007918150+1008072979
3589+1008562949+1009497984+1010414767+1010556717+1010135207+1009873624
3581+1009928241+1009909507+1009666657+1009569613+1009874657+1010256288
3572+1010164135+1009459759+1008689333+1008860279+1010358979+1011781230
3564+1011605532+1010187896+1008795399+1008185519+1008292067+1008707309
3555+1009087977+1009259335+1009318085+1009510726+1009838773+1010041125
3547+1009981343+1009777889+1009484003+1008911246+1008002314+1007123618
3538+1006746601+1006941722+1007383274+1007732121+1007774823+1007466474
3530+1007139735+1007298145+1007974489+1008723288+1009238949+1009484485
3521+1009458864+1009207680+1008831007+1008400269+1008039506+1007895628
3513+1007921456+1007948592+1007950658+1008007893+1008202256+1008660957
3504+1009358721+1009892357+1009920320+1009732087+1009827478+1010147674
3496+1010125083+1009468368+1008656962+1008393312+1008704761+1008968549
3488+1008811309+1008556062+1008634578+1008995272+1009292808+1009391298
3479+1009426562+1009459001+1009397772+1009286334+1009331033+1009566583
3471+1009783261+1009736633+1009223727+1008240618+1007256201+1006872848
3462+1007066866+1007263777+1007191184+1007109224+1007256201+1007561726
3454+1007836603+1007930134+1007802648+1007595406+1007553117+1007806229
3445+1008248608+1008636094+1008813720+1008891685+1009140665+1009620029
3437+1010023769+1010014127+1009614588+1009163945+1009025301+1009392331
3428+1010177289+1010966449+1011278793+1010977056+1010320272+1009672373
3420+1009309407+1009369741+1009783467+1010280050+1010532542+1010291758
3411+1009546403+1008675903+1008239792+1008438149+1008957873+1009425322
3403+1009748342+1009954757+1009988092+1009802408+1009465889+1009081985
3394+1008753455+1008640433+1008843474+1009184538+1009343293+1009262572
3386+1009202859+1009368432+1009680569+1009931133+1010003451+1009952071
3377+1009975351+1010241687+1010679864+1011005501+1010979673+1010605067
3369+1010097327+1009742625+1009776993+1010283838+1011056054+1011595614
3360+1011477839+1010822020+1010214619+1010054143+1010172950+1010235281
3352+1010230667+1010319032+1010467043+1010582132+1010753215+1011028505
3343+1011195180+1011057432+1010730762+1010489289+1010481093+1010611334
3335+1010615880+1010353952+1010032172+1009950556+1010096087+1010196023
3326+1010081554+1009827409+1009656670+1009843526+1010554444+1011603052
3318+1012429748+1012521213+1011904996+1011139323+1010782417+1010959699
3309+1011416679+1011856853+1012159900+1012314866+1012294411+1012092472
3301+1011789908+1011476944+1011245940+1011281755+1011693484+1012253913
3292+1012610130+1012729557+1012837759+1012996376+1013050166+1012923851
3284+1012725218+1012571422+1012465701+1012366797+1012285733+1012260043
3275+1012269616+1012247370+1012210384+1012291518+1012516736+1012629277
3267+1012377473+1011942188+1011770761+1011998872+1012346962+1012536434
3258+1012545388+1012538501+1012711099+1013108089+1013490410+1013500603
3250+1013058638+1012517494+1012324440+1012556821+1012943894+1013302934
3241+1013667485+1013956412+1013810123+1012875295+1011227275+1009515547
3233+1008528925+1008490494+1008976952+1009572368+1010219440+1010851911
3224+1011129887+1010729384+1009730228+1008670806+1008185175+1008514255
3216+1009403764+1010417385+1011162740+1011370947+1011079403+1010692881
3207+1010656171+1011080298+1011724753+1012255910+1012532302+1012692434
3199+1012929774+1013196661+1013256238+1012994791+1012521833+1011997908
3190+1011578809+1011480732+1011813876+1012362596+1012797674+1013067109
3182+1013285509+1013396603+1013296529+1013126410+1013077440+1013059395
3173+1012875570+1012608063+1012584440+1012979846+1013572163+1013963575
3165+1014016470+1013929206+1013861297+1013783882+1013798139+1014174949
3156+1014832904+1015220389+1015051097+1014756660+1014859696+1015222318
3148+1015302005+1014940829+1014509195+1014331431+1014326817+1014308772
3139+1014357879+1014698255+1015327902+1015955965+1016319689+1016456335
3131+1016592775+1016830597+1017068006+1017179651+1017096451+1016742369
3122+1016068643+1015108400+1013805577+1011840048+1008824602+1004622455
3114+999145035+991640788+980412724+963592841+940512232+912898812+885437879
3104+864808499+856578043+861749869+876338300+894518241+911848413+926007965
3094+936176469+942645056+946523151+949037331+950732805+951369891+950744376
3084+949478470+948770237+949470067+951575893+954493676+957559744+960322423
3074+962513721+963962488+964639383+964687939+964212157+963027522+960743725
3064+957067983+951951257+945639358+938891693+933124657+929952109+930304883
3054+933918707+939613287+945983798+951911448+956662384+959794365+961197055
3044+961204218+960485516+959706206+959178079+958668273+957573588+955401987
3034+951937275+946904162+940044783+932037066+924979055+921383000+922550485
3024+927812260+935166086+942652288+949263514+954790385+959202805+962422945
3014+964400183+965008617+963968273+961169023+957067708+952753571+949748181
3004+949478263+952342255+957201599+962218045+966316743+969570907+972261680
2995+974177964+975041301+975046467+974547956+973527242+971620118+968377732
2985+963324783+956019031+946196550+933768768+918752904+901471977+883063995
2975+865832520+852682248+845539659+844027804+845758748+847897289+848572737
2965+847445888+845575060+844791204+846778222+852204331+860385542+869787202
2955+878945254+886930380+893207498+897501316+899854744+900565525+899973483
2945+898271329+895381647+891024326+885042335+877744641+869961178+862670234
2935+856359644+850770579+845525884+840979022+838164689+837936784+840377751
2925+844964560+850996486+857746217+864483482+870730639+876482798+881930740
2915+887056558+891733936+896056888+900263650+904368478+908059097+910984869
2905+913102679+914720256+916209728+917735909+919278758+920834555+922511571
2895+924398584+926343588+927919703+928651697+928226606+926537813+923736979
2885+920286593+916761409+913505386+910505299+907447839+903752537+898832102
2876+892848870+887263249+884164052+884777445+888710432+894535390+900770357
2866+906377536+910890580+914388972+917249933+919849518+922442008+925107918
2856+927733055+930200056+932595773+935124624+937903005+940956539+944278681
2846+947735817+951010230+953767261+955914755+957675659+959381740+961167439
2836+962899278+964420639+965772982+967083931+968327247+969316968+969904808
2826+970119351+970163981+970356416+971009618+972226072+973759761+975186832
2816+976294879+977217861+978147524+979090341+979999962+980944777+981981676
2806+982994814+983795683+984334347+984753584+985222616+985718785+986048348
2796+986152348+986231484+986403532+986445752+986169566+985854330+985913837
2786+986269985+986479569+986403325+986312756+986398160+986579023+986781926
2776+987081253+987577629+988309760+989235842+990224392+991129535+991880539
2766+992483187+992982731+993410232+993704532+993786767+993781326+993993252
2757+994569108+995307163+995824201+995828609+995315084+994626136+994206211
2747+994149734+994105930+993742137+993133772+992544072+992030822+991531416
2737+991148545+991061625+991292147+991748162+992295161+992676172+992689258
2727+992536013+992647589+993158704+993851096+994520759+995073818+995376519
2717+995303100+994911826+994441553+994132240+994054481+994113988+994242232
2707+994488457+994866093+995264943+995607730+995940529+996315411+996723077
2697+997139352+997502250+997707701+997738419+997677190+997502112+997060698
2687+996359973+995674675+995225272+994920848+994565458+994198634+994099111
2677+994487630+995283264+996168916+996889339+997435786+997906196+998302980
2667+998560018+998665258+998648315+998533571+998368204+998203182+998038021
2657+997922657+998071357+998665327+999572881+1000479884+1001235915+1001855782
2647+1002295061+1002497964+1002569524+1002673731+1002832073+1002962451
2639+1003045789+1003170176+1003423357+1003735288+1003893354+1003786461
2630+1003521778+1003227341+1002944613+1002780692+1002916788+1003394981
2622+1004052177+1004669634+1005123170+1005438958+1005702539+1005920319
2614+1006069982+1006200774+1006299057+1006199328+1005797516+1005191217
2605+1004550206+1003993083+1003520400+1002999161+1002412560+1002075766
2597+1002288105+1002897365+1003504284+1003928135+1004252463+1004590360
2588+1004958423+1005287435+1005523742+1005697442+1005832573+1005883471
2580+1005867630+1005949935+1006285834+1006830972+1007385822+1007863326
2571+1008461911+1009419605+1010588124+1011495953+1011920149+1012159211
2563+1012576795+1013070140+1013215877+1012867788+1012369415+1012141166
2554+1012247783+1012450204+1012549658+1012569218+1012650077+1012861520
2546+1013186744+1013643241+1014281911+1015025200+1015573163+1015546922
2537+1014849916+1013916534+1013396259+1013475188+1013673684+1013447708
2529+1012823502+1012292482+1012173674+1012275677+1012255084+1012099910
2520+1012020774+1012046120+1012076562+1012195645+1012527136+1012892789
2512+1012999131+1012904980+1012974611+1013373599+1013832920+1013960200
2503+1013638145+1013047962+1012426442+1011953415+1011820006+1012185796
2495+1012955533+1013700751+1013950351+1013593170+1012929086+1012295444
2486+1011819868+1011619927+1011966570+1012980810+1014358430+1015612352
2478+1016451032+1016843339+1016921029+1016868065+1016744160+1016471005
2469+1016066783+1015748723+1015726476+1016008034+1016425066+1016768197
2461+1016888451+1016716059+1016265829+1015704574+1015303865+1015158472
2452+1015042763+1014742954+1014439977+1014533301+1015129889+1015942259
2444+1016707519+1017448605+1018264487+1019141048+1020032899+1020908426
2435+1021693040+1022318555+1022754597+1022949648+1022927333+1022889177
2427+1023004748+1023221770+1023426533+1023601060+1023775724+1024001769
2418+1024296481+1024499247+1024364873+1023896943+1023432869+1023323015
2410+1023597891+1023907481+1023756784+1022891656+1021557083+1020344830
2401+1019697826+1019560354+1019586526+1019593413+1019614351+1019633773
2393+1019556772+1019427702+1019483077+1019946186+1020778599+1021636563
2384+1022155186+1022303816+1022345071+1022447349+1022562094+1022764033
2376+1023434247+1024755803+1026194790+1027026858+1027272945+1027420749
2367+1027485904+1027343197+1027580950+1028729839+1030019575+1030111178
2359+1028780186+1027035054+1025855309+1025350531+1025026409+1024518325
2350+1023876212+1023274459+1022787519+1022476277+1022495424+1022928779
2342+1023537144+1023867258+1023618485+1022887042+1022126258+1021882513
2333+1022404165+1023348361+1023966024+1023758575+1022869617+1021806889
2325+1021079579+1021109608+1022028457+1023363168+1024281054+1024379819
2316+1024056317+1024027804+1024623083+1025610875+1026616024+1027465241
2308+1028070300+1028291593+1028126846+1027781029+1027330386+1026603489
2299+1025626303+1024847888+1024609239+1024698844+1024722606+1024657795
2291+1024720953+1024910425+1025074621+1025410451+1026475589+1028473145
2282+1030724158+1032150127+1032272447+1031592453+1031001238+1030936428
2274+1031183754+1031408766+1031657264+1032217073+1033163334+1034226819
2265+1034986501+1035095804+1034533860+1033726518+1033201421+1033080961
2257+1033077861+1032931986+1032622121+1032225062+1031895706+1031975876
2248+1032781427+1034134321+1035325843+1035778140+1035674553+1035683369
2240+1036107702+1036641614+1036935913+1036973794+1036844862+1036627151
2231+1036618610+1037263134+1038644542+1040348005+1041982732+1043513459
2223+1044814422+1045279874+1044454073+1042899585+1041922812+1042369392
2214+1043827663+1045043635+1045289172+1045213135+1045795947+1046771756
2206+1047167024+1047094775+1047570351+1048722546+1049518868+1049166233
2197+1047861413+1046485308+1046136943+1047277843+1048841285+1048990122
2189+1047121981+1044366327+1042069514+1040687210+1040084700+1039919195
2180+1039790883+1039778141+1040544159+1042294112+1044044134+1044488855
2172+1043381979+1041834791+1041518865+1043457189+1047204423+1051225569
2163+1054226620+1055960113+1056731296+1056597405+1055465803+1053683823
2155+1051934903+1050738767+1050326968+1050763079+1051930151+1053518594
2146+1055049528+1055791027+1054932924+1052450426+1049723080+1048576877
2138+1049351160+1050379381+1049906836+1048136496+1046605494+1046064419
2129+1046027778+1046041966+1046239634+1046598951+1046649642+1046206850
2121+1045711577+1045600620+1045791333+1045912413+1045747598+1045415556
2112+1045241993+1045420859+1045826183+1046252927+1046639655+1046966325
2104+1047247194+1047726626+1048668411+1049853046+1050640896+1050669617
2095+1050254926+1050012558+1050248383+1050769966+1051144504+1051114957
2087+1050879545+1050916186+1051381155+1051838686+1051891788+1051855698
2078+1052319565+1053251983+1054064766+1054432209+1054584628+1054897936
2070+1055476892+1056034497+1056086152+1055459329+1054730916+1054835330
2061+1055959906+1057144541+1057396000+1056948112+1056843974+1057505028
2053+1058385514+1058907511+1059104353+1059284872+1059494870+1059707966
2044+1060370466+1061880324+1063302575+1062775206+1059915897+1056795073
2036+1055787996+1057156869+1059341005+1061212728+1063036376+1065111209
2027+1066575954+1066323668+1064599749+1062959375+1062838432+1064417095
2019+1066537178+1067702184+1067483095+1066620240+1065776257+1065095574
2010+1064896115+1065666196+1067088860+1067963423+1067421040+1065541396
2002+1063002215+1060939986+1060586455+1062043143+1063904603+1064784539
1993+1064593620+1063961287+1063166686+1061927296+1059769471+1056635217
1985+1053336422+1051125770+1050986162+1053438838+1058012423+1062534077
1976+1064638112+1064398568+1063826087+1064368470+1065995897+1067489500
1968+1067001872+1063670225+1059065233+1055822571+1054911435+1055009512
1959+1054489444+1053361079+1052657186+1052918563+1054245216+1056654157
1951+1059265450+1060246217+1058592756+1054990572+1050458311+1045571073
1942+1041379808+1039399816+1040204954+1043219436+1047443485+1051714713
1934+1055004966+1056965468+1057918617+1058351697+1058704126+1059375993
1925+1060426392+1061389596+1061765511+1061591604+1061203843+1060714079
1917+1060003987+1059032862+1057856217+1056263916+1053520729+1048807468
1908+1042217318+1035058956+1029083025+1025719145+1025695728+1028742581
1900+1033685331+1039059784+1043647213+1046712455+1048204681+1048665587
1891+1048657460+1048425767+1048130917+1048052814+1048388438+1049174429
1883+1050509140+1052481626+1054721205+1056464891+1057317346+1057475687
1874+1057136069+1056252001+1054960336+1053923505+1054058705+1055579652
1866+1057680794+1059533577+1060950730+1062238952+1063787448+1065715786
1857+1067806459+1069693127+1071052909+1071739928+1071914731+1071968452
1849+1072183064+1072540383+1072820701+1072672759+1071867208+1070754960
1840+1069967040+1069814621+1070160852+1070671966+1071167102+1071643780
1832+1071962805+1071639992+1070244534+1067889590+1064833164+1061183732
1823+1057269272+1053713164+1051176668+1050213877+1050911365+1052640518
1815+1054614244+1056521643+1058395845+1060218805+1061935768+1063607342
1806+1065296204+1067014062+1068825245+1070727617+1072406354+1073432992
1798+1073741823+1073571084+1073052806+1072036638+1070258584+1067733108
1789+1064753270+1061514740+1058190256+1055282667+1053590430+1053603034
1781+1054942704+1056525431+1057552275+1058122691+1058693106+1059400099
1772+1059891033+1059788618+1059221095+1058477668+1057692916+1057045362
1764+1056765389+1056730401+1056313643+1055025284+1052791215+1049667292
1755+1046014141+1042405826+1039202629+1036765450+1035766087+1036620126
1747+1039033819+1042398250+1046053330+1049472860+1052429213+1054769830
1738+1056348149+1057426924+1058649991+1060330244+1061845336+1062726787
1730+1063261319+1063691713+1064071554+1064469440+1064912300+1065216379
1721+1065059346+1064164741+1062373738+1059870440+1057368932+1055579514
1713+1054879409+1055397205+1056947216+1059107659+1061430301+1063455888
1704+1064858165+1065811521+1066850555+1068136917+1069032969+1069135523
1696+1068547338+1067354438+1065781629+1064062118+1062201897+1060153237
1687+1057952916+1055497761+1052749408+1050546677+1049531610+1049219335
1679+1049141163+1049269406+1049655101+1049977363+1049767710+1048857470
1670+1047168264+1044674815+1041615358+1038152299+1034255884+1030160836
1662+1026589989+1024016164+1022115721+1020339320+1018421520+1016385602
1653+1014373169+1012422585+1010289210+1007558834+1003862016+999549601+995578734
1643+992246329+989589028+987765035+986644453+985640544+983391116+978004679
1633+969092163+956146585+935500263+901395389+850899373+784868596+701152187
1623+600889532+505213514+437913765+401514040+390332811+398569018+411874910
1613+417872398+416119759+410879059+407772183+412621987+427442318+448914475
1604+471547574+491509150+509147706+528764326+555182126+590294146+631752019
1594+674250650+713323619+747779682+777910451+802782131+820249431+829607081
1584+833796624+836812483+837575333+828755039+802973808+765105102+740790820
1574+745818837+769469516+800590970+831922835+854833049+867015295+873667225
1564+879338594+885585545+894320917+910630305+932726703+946254335+950648985
1554+951350261+949743015+946151024+941409455+936248511+930539674+922887072
1544+911419602+894920879+871119709+840132904+812596072+792653849+772537789
1534+743826309+705256533+663888265+621862524+573257860+515543734+457652189
1524+411512219+382051285+371428866+379229651+401676583+436037600+476165824
1514+513152115+544418171+571881549+597066537+624841536+664430579+708974220
1504+740092988+760216418+776698543+789892135+791700218+769024452+724462767
1494+684475424+670398039+686463406+722526578+749890192+742342623+705355092
1485+663292159+640587534+651628260+691178114+739804818+782246559+812807722
1475+826673939+813800129+771553922+720363380+680799751+653083364+621047261
1465+567530048+502231919+454441175+438531325+452309142+482309877+503738333
1455+511321545+521620807+543482585+576134318+614255310+649667966+673411074
1445+681823978+679591423+676035109+679461802+694153751+721287119+755831754
1435+784991674+802929453+814318820+824429263+835579568+847954110+861475819
1425+876184642+890804756+903319043+913544437+922559920+929707124+933502294
1415+934421557+933413171+930507235+925258339+917275279+905941287+889438913
1405+865389521+834156078+798600715+759755925+718303355+678965771+647144212
1395+623262115+605028039+590687624+577988271+562923162+540349915+507488942
1385+467552291+426656258+389896287+362099696+347546253+347583892+360020421
1375+380129766+401051447+416169865+423833349+427365661+431025838+437211421
1366+446377222+458656167+473892015+490449040+506610005+522454183+538879763
1356+556314106+574472179+592590478+609821264+625229091+637527389+645505765
1346+649031293+649570233+649511208+650623456+653200036+657090872+663237955
1336+672884532+685693600+699753423+713127053+725057770+735786083+745613523
1326+754488158+762339669+769421924+776256233+783322234+790724341+798202830
1316+805637514+813242317+821021854+828355776+834250986+837601987+837264848
1306+832732037+825190873+817337365+811301927+806616215+800992231+793688476
1296+787556546+786942464+793698945+805810595+819557798+832234490+842920170
1286+851704030+858858878+864450492+868204131+869550757+867597281+860902993
1276+847697760+827189600+801543706+776897107+761355595+760236047+772759908
1266+793387014+815628254+834949439+850021022+862443225+874698477+887523593
1256+899259810+907553561+911131984+910038883+904802385+895753016+882948699
1247+866336196+845836369+821663554+795492358+772028809+758681283+761689153
1237+781364694+811516677+843765669+872003157+893493256+907710181+914960420
1227+915329999+908072045+891535923+863286313+820311349+760027358+682556316
1217+593258832+503230456+426201930+373070033+347623254+346406455+362271950
1207+388317658+419658752+453334161+487672931+521502447+553344324+581185063
1197+603105281+618461452+628758889+636956285+645202168+653050580+657817012
1187+656702009+649561211+640642702+636941477+643000608+655946667+666046090
1177+664802982+654731590+649518784+661585941+690299143+724331424+753011015
1167+772332751+782450564+783927431+777078383+762580797+741843010+718403636
1157+699890276+696158057+712259790+743391506+778585624+808956557+831545818
1147+847282794+857851870+864138010+865640154+860163147+843762018+811272931
1137+758085591+683657337+595800837+511784585+452072422+429398549+442509734
1128+479783092+527804565+577003200+622175970+660678043+690719551+710480978
1118+718524785+715625736+706095902+695654794+686446050+674516641+653541721
1108+621710381+585110818+554584127+539149439+541534791+558483572+584043890
1098+612630294+640396753+665360035+687072047+706085157+723200098+738869990
1088+753146973+765868571+776588413+784210779+786706364+781985388+770649467
1078+758189384+752600181+758399174+773397269+791441183+807227886+818363383
1068+824500135+825979137+823101026+815565579+801930641+779678450+746244823
1058+701007207+647842388+596293012+558792541+544691153+555569371+585403396
1048+624721970+665014012+700685703+728518694+746108728+751286683+744098912
1038+729472945+715152571+704776067+695779387+687138786+685436838+698270426
1028+723982094+752617744+775579407+790853618+800545651+806131823+804303285
1018+786482041+747527603+698260095+663650511+662452584+690934300+729431276
1009+760101398+775324917+776099131+769739778+766646367+773612363+789516358
999+808320298+824970614+837898835+847611806+854486268+858243419+859300499
989+859948880+863229285+870269596+879283770+887529723+893522941+896910927
979+897522461+895892348+893912355+893571291+895189557+897355992+898079445
969+895545498+887700944+870794761+839417164+791846507+737919803+698300179
959+690534348+715066410+756895928+799396487+834161243+860395391+880152962
949+895377239+907138870+915873760+921814427+924952538+924146229+916016949
939+896538732+866939464+837480218+820220504+815473907+808736918+784200448
929+740711753+693799463+663356970+659314473+676008179+696803752+703973615
919+687748322+650497554+604969014+568008103+552493797+561299696+587274636
909+619382023+649432141+674143275+693116438+706409692+714024482+717297104
899+720061160+727091829+740653761+758899820+777765471+793945446+806179278
890+814683921+820253082+823921868+826696461+828551516+827279136+819177130
880+802483218+780926999+763147011+757328802+765702034+783892443+804994299
870+824009544+839363236+851712983+862071511+870792902+877561849+881170301
860+878833334+867454367+847316336+823155712+800362722+782786945+775190062
850+782529838+803168308+825907370+835897973+822214410+783240274+731364641
840+690630634+681505297+705511505+747201209+789299060+823145037+848009485
830+866150649+879703558+889918484+897573496+903454105+908156760+911754262
820+914164167+915752128+917307512+919548056+922687406+926304330+929682536
810+932407885+934536163+936221100+937481014+938398623+939344265+940946690
800+943874115+948495016+954589617+961421309+968116561+973878844+977964387
790+979633000+977727943+969728835+951970955+923131644+888986410+862152989
781+853921363+865065813+885551383+902701105+908481915+901412332+884947908
771+863216819+837826586+812044390+795367007+794594859+801361534+800099003
761+789049254+782020927+787059412+791761310+772166144+712549337+617664854
751+509975435+416223587+354805790+331642188+342547301+377456384+425101562
741+476671567+526840155+573384898+616338545+655710566+688581354+708391476
731+707336875+679160616+620291024+532842224+430869390+339692469+281927962
721+263476796+274510290+301411139+334913949+370231317+405321057+439857599
711+473974939+507461392+539844172+569732918+591563289+592974657+561761911
701+501558399+437417734+398898787+397177176+421856283+456648073+492288392
691+526569515+559042864+588491160+613593361+634113713+650986423+665375601
681+677965030+689114371+699047188+707699704+715024397+721401726+727152576
671+732221366+737182988+743908269+752820441+761227352+768339086+775536912
662+783385323+790737772+795876469+797985463+797260425+793480476+784199484
652+764460785+729164113+678070477+620305005+572052804+547198791+549155297
642+570465600+599196193+626056957+647885090+666596188+685179249+704195459
632+721094409+731376969+729622057+710669418+673703238+627823303+589046009
622+566302126+554033754+543653668+537951064+547190112+574048604+610602434
612+647703745+680729293+708455115+731047338+748950887+761790880+767592284
602+761964098+737821657+689859726+623803328+559665727+521192685+519799534
592+548176321+588874582+627929507+660463362+687234659+709880947+728187616
582+738317207+734198604+714799247+690282200+676675914+682426970+702133574
572+724976636+745145799+762448490+777647283+789840273+797004764+796669967
562+783408465+746499106+677621486+586864491+505893680+466231767+474436499
552+512627605+558791336+600829198+635975517+665120078+689287727+708895014
543+724522205+737270527+748047052+757252834+765136371+771699178+776727814
533+780588346+784244390+788086738+791479821+793284392+791894719+785138169
523+771139989+749517307+722559982+696210195+678550391+674903645+684522327
513+702577537+723721819+743988920+761406838+775740779+787669155+797943656
503+806838541+814230523+820296748+825705363+830897506+835767388+840300199
493+844859458+848953955+850043475+844380232+827583215+793340180+736637367
483+665151829+603333667+575821802+588041894+625006696+666796749+703133489
473+733053227+757470751+777085408+793296376+806617455+816088333+821596196
463+824907938+827908163+831283752+835034292+838956741+842451620+845065048
453+847060055+848911529+850880915+853307556+856762213+861530849+867145535
443+872416471+875912245+876898316+875071774+867990965+849130342+811104465
433+753663666+687599209+628977770+586963601+557767419+535994971+527710965
424+542826765+579907999+630848322+688536448+738423961+768026879+782630876
414+791087652+797236732+802989029+810156964+818747012+826602035+831749134
404+834232390+836022428+840009206+848097643+857823356+862786080+861550685
394+858405480+855808651+852789623+848431821+844523973+844026288+847352150
384+850439639+847934343+837632774+819979307+795693333+764749229+729990327
374+700644585
##END=
