##TITLE= Y.Matt YM52
##JCAMP-DX= 5.01  $$ datafile exported by Spectragryph v.1.2.14
##LONGDATE= 16/10/2017 11:36:12
##OWNER= unknown
##ORIGIN= unknown
##DATA TYPE= INFRARED SPECTRUM
##DATA CLASS= XYDATA
##SPECTROMETER/DATASYSTEM= unknown
##XUNITS= 1/CM
##YUNITS= TRANSMITTANCE
##XLABEL= Wavenumbers [1/cm]
##YLABEL= Transmittance
##XFACTOR= 1.000000
##YFACTOR= 1.000000
##FIRSTX= 3997.453000
##LASTX= 374.000000
##DELTAX= -1.416530
##NPOINTS= 2559
##XYDATA= (X++(Y..Y))
3997.453 0.80910 0.80933 0.80925 0.80897 0.80899 0.80952 0.81012 0.81026 0.81002 0.80978
3983.288 0.80964 0.80946 0.80929 0.80933 0.80954 0.80970 0.80978 0.80991 0.81014 0.81030
3969.122 0.81028 0.81018 0.81013 0.81028 0.81074 0.81137 0.81175 0.81166 0.81128 0.81078
3954.957 0.81021 0.80977 0.80974 0.81011 0.81051 0.81057 0.81024 0.80994 0.81010 0.81059
3940.792 0.81083 0.81060 0.81018 0.80986 0.80968 0.80972 0.81010 0.81057 0.81068 0.81036
3926.626 0.81007 0.81025 0.81069 0.81071 0.81027 0.81016 0.81102 0.81242 0.81319 0.81293
3912.461 0.81215 0.81146 0.81083 0.80997 0.80905 0.80875 0.80948 0.81065 0.81149 0.81196
3898.296 0.81218 0.81188 0.81106 0.81042 0.81083 0.81203 0.81241 0.81154 0.81081 0.81118
3884.130 0.81169 0.81137 0.81122 0.81200 0.81239 0.81161 0.81072 0.81059 0.81079 0.81105
3869.965 0.81187 0.81271 0.81247 0.81182 0.81220 0.81355 0.81427 0.81362 0.81190 0.80957
3855.800 0.80747 0.80767 0.81145 0.81485 0.81505 0.81367 0.81234 0.81172 0.81187 0.81224
3841.634 0.81202 0.81138 0.81148 0.81261 0.81347 0.81345 0.81323 0.81317 0.81289 0.81234
3827.469 0.81213 0.81231 0.81214 0.81178 0.81265 0.81455 0.81497 0.81400 0.81389 0.81490
3813.304 0.81516 0.81411 0.81258 0.81164 0.81198 0.81289 0.81283 0.81213 0.81246 0.81366
3799.139 0.81391 0.81353 0.81392 0.81484 0.81512 0.81463 0.81407 0.81376 0.81362 0.81364
3784.973 0.81382 0.81376 0.81326 0.81294 0.81342 0.81417 0.81419 0.81340 0.81235 0.81175
3770.808 0.81212 0.81320 0.81399 0.81415 0.81404 0.81366 0.81303 0.81286 0.81384 0.81519
3756.643 0.81551 0.81468 0.81357 0.81325 0.81439 0.81573 0.81552 0.81456 0.81466 0.81600
3742.477 0.81639 0.81504 0.81318 0.81208 0.81264 0.81499 0.81771 0.81909 0.81891 0.81787
3728.312 0.81670 0.81598 0.81592 0.81620 0.81646 0.81674 0.81706 0.81721 0.81689 0.81606
3714.147 0.81509 0.81475 0.81545 0.81643 0.81691 0.81694 0.81672 0.81656 0.81698 0.81786
3699.981 0.81818 0.81744 0.81606 0.81464 0.81360 0.81333 0.81443 0.81724 0.82030 0.82106
3685.816 0.81951 0.81735 0.81572 0.81478 0.81411 0.81336 0.81310 0.81448 0.81647 0.81672
3671.651 0.81606 0.81682 0.81882 0.81955 0.81853 0.81705 0.81590 0.81512 0.81460 0.81467
3657.485 0.81586 0.81763 0.81805 0.81643 0.81431 0.81422 0.81751 0.82129 0.82221 0.82076
3643.320 0.81869 0.81725 0.81684 0.81703 0.81720 0.81721 0.81705 0.81634 0.81491 0.81405
3629.155 0.81608 0.82011 0.82197 0.82104 0.81909 0.81742 0.81682 0.81760 0.81874 0.81889
3614.989 0.81828 0.81776 0.81760 0.81769 0.81816 0.81884 0.81893 0.81810 0.81694 0.81631
3600.824 0.81652 0.81717 0.81765 0.81789 0.81805 0.81785 0.81690 0.81556 0.81500 0.81629
3586.659 0.81871 0.82019 0.82014 0.81940 0.81862 0.81805 0.81772 0.81763 0.81768 0.81758
3572.493 0.81698 0.81591 0.81517 0.81600 0.81847 0.82046 0.82039 0.81901 0.81756 0.81673
3558.328 0.81667 0.81712 0.81766 0.81804 0.81833 0.81858 0.81868 0.81864 0.81865 0.81870
3544.163 0.81853 0.81803 0.81731 0.81664 0.81630 0.81648 0.81701 0.81745 0.81751 0.81729
3529.997 0.81711 0.81712 0.81712 0.81699 0.81691 0.81710 0.81746 0.81778 0.81804 0.81825
3515.832 0.81827 0.81800 0.81771 0.81780 0.81840 0.81908 0.81915 0.81847 0.81764 0.81737
3501.667 0.81776 0.81829 0.81860 0.81868 0.81873 0.81878 0.81867 0.81823 0.81767 0.81739
3487.501 0.81755 0.81791 0.81812 0.81819 0.81834 0.81860 0.81875 0.81880 0.81895 0.81921
3473.336 0.81926 0.81896 0.81855 0.81830 0.81825 0.81830 0.81834 0.81836 0.81833 0.81825
3459.171 0.81825 0.81848 0.81881 0.81895 0.81882 0.81868 0.81873 0.81894 0.81912 0.81914
3445.006 0.81900 0.81881 0.81866 0.81856 0.81849 0.81849 0.81867 0.81900 0.81925 0.81919
3430.840 0.81890 0.81870 0.81880 0.81901 0.81910 0.81912 0.81935 0.81978 0.82001 0.81971
3416.675 0.81896 0.81813 0.81753 0.81740 0.81778 0.81838 0.81881 0.81887 0.81875 0.81872
3402.510 0.81892 0.81921 0.81937 0.81931 0.81919 0.81912 0.81905 0.81889 0.81857 0.81819
3388.344 0.81803 0.81836 0.81898 0.81935 0.81922 0.81900 0.81918 0.81970 0.82012 0.82007
3374.179 0.81954 0.81879 0.81826 0.81829 0.81880 0.81943 0.81989 0.82018 0.82024 0.82006
3360.014 0.81987 0.82001 0.82042 0.82066 0.82045 0.82001 0.81968 0.81962 0.81972 0.81987
3345.848 0.81998 0.82000 0.81995 0.81985 0.81980 0.81992 0.82027 0.82064 0.82072 0.82049
3331.683 0.82026 0.82013 0.82001 0.81994 0.82009 0.82038 0.82057 0.82060 0.82060 0.82059
3317.518 0.82057 0.82067 0.82094 0.82119 0.82123 0.82114 0.82111 0.82113 0.82098 0.82057
3303.352 0.82004 0.81979 0.82012 0.82084 0.82137 0.82145 0.82133 0.82131 0.82127 0.82108
3289.187 0.82091 0.82098 0.82124 0.82148 0.82167 0.82196 0.82236 0.82263 0.82260 0.82239
3275.022 0.82223 0.82208 0.82184 0.82163 0.82164 0.82182 0.82195 0.82195 0.82191 0.82186
3260.856 0.82179 0.82165 0.82133 0.82089 0.82067 0.82097 0.82162 0.82207 0.82194 0.82138
3246.691 0.82088 0.82080 0.82110 0.82151 0.82188 0.82218 0.82238 0.82238 0.82218 0.82185
3232.526 0.82162 0.82167 0.82206 0.82271 0.82331 0.82357 0.82344 0.82313 0.82288 0.82288
3218.360 0.82317 0.82357 0.82379 0.82381 0.82387 0.82402 0.82403 0.82389 0.82384 0.82408
3204.195 0.82446 0.82476 0.82480 0.82453 0.82414 0.82389 0.82391 0.82419 0.82459 0.82489
3190.030 0.82490 0.82467 0.82450 0.82463 0.82495 0.82516 0.82509 0.82493 0.82502 0.82548
3175.864 0.82600 0.82626 0.82617 0.82579 0.82529 0.82496 0.82490 0.82492 0.82485 0.82484
3161.699 0.82507 0.82542 0.82565 0.82569 0.82569 0.82565 0.82553 0.82533 0.82514 0.82509
3147.534 0.82521 0.82547 0.82571 0.82582 0.82576 0.82564 0.82556 0.82560 0.82561 0.82545
3133.369 0.82522 0.82511 0.82508 0.82490 0.82457 0.82423 0.82388 0.82339 0.82294 0.82288
3119.203 0.82330 0.82385 0.82424 0.82447 0.82467 0.82489 0.82508 0.82518 0.82522 0.82534
3105.038 0.82562 0.82592 0.82608 0.82616 0.82639 0.82676 0.82698 0.82672 0.82603 0.82521
3090.873 0.82455 0.82414 0.82393 0.82394 0.82422 0.82475 0.82525 0.82538 0.82511 0.82478
3076.707 0.82469 0.82486 0.82504 0.82501 0.82475 0.82447 0.82427 0.82399 0.82342 0.82261
3062.542 0.82183 0.82117 0.82058 0.81999 0.81944 0.81897 0.81859 0.81826 0.81793 0.81761
3048.377 0.81745 0.81749 0.81763 0.81781 0.81806 0.81838 0.81851 0.81826 0.81773 0.81709
3034.211 0.81633 0.81528 0.81402 0.81285 0.81196 0.81145 0.81150 0.81229 0.81369 0.81529
3020.046 0.81666 0.81760 0.81818 0.81862 0.81922 0.81997 0.82062 0.82091 0.82089 0.82077
3005.881 0.82067 0.82054 0.82023 0.81963 0.81874 0.81766 0.81634 0.81454 0.81200 0.80891
2991.715 0.80590 0.80360 0.80225 0.80175 0.80186 0.80220 0.80236 0.80210 0.80126 0.79989
2977.550 0.79826 0.79672 0.79547 0.79454 0.79393 0.79364 0.79360 0.79369 0.79389 0.79440
2963.385 0.79551 0.79726 0.79939 0.80164 0.80388 0.80596 0.80774 0.80929 0.81071 0.81199
2949.219 0.81304 0.81374 0.81413 0.81447 0.81505 0.81591 0.81681 0.81757 0.81821 0.81881
2935.054 0.81937 0.81969 0.81946 0.81864 0.81757 0.81661 0.81557 0.81390 0.81130 0.80794
2920.889 0.80429 0.80088 0.79838 0.79744 0.79827 0.80048 0.80333 0.80616 0.80867 0.81081
2906.723 0.81258 0.81400 0.81517 0.81615 0.81690 0.81732 0.81737 0.81719 0.81706 0.81727
2892.558 0.81781 0.81836 0.81872 0.81888 0.81893 0.81888 0.81890 0.81922 0.81986 0.82058
2878.393 0.82106 0.82123 0.82114 0.82095 0.82084 0.82095 0.82120 0.82132 0.82098 0.81996
2864.227 0.81824 0.81607 0.81400 0.81260 0.81215 0.81254 0.81341 0.81450 0.81568 0.81695
2850.062 0.81826 0.81946 0.82039 0.82109 0.82173 0.82231 0.82264 0.82267 0.82264 0.82284
2835.897 0.82330 0.82383 0.82424 0.82445 0.82448 0.82441 0.82431 0.82426 0.82425 0.82423
2821.732 0.82417 0.82418 0.82430 0.82442 0.82441 0.82427 0.82414 0.82412 0.82418 0.82425
2807.566 0.82426 0.82428 0.82445 0.82481 0.82521 0.82549 0.82568 0.82592 0.82628 0.82665
2793.401 0.82683 0.82678 0.82664 0.82660 0.82678 0.82713 0.82758 0.82801 0.82827 0.82824
2779.236 0.82797 0.82768 0.82752 0.82747 0.82751 0.82770 0.82804 0.82841 0.82864 0.82868
2765.070 0.82860 0.82855 0.82862 0.82877 0.82883 0.82883 0.82891 0.82914 0.82937 0.82941
2750.905 0.82924 0.82904 0.82896 0.82899 0.82904 0.82905 0.82910 0.82926 0.82952 0.82976
2736.740 0.82988 0.82978 0.82948 0.82912 0.82884 0.82859 0.82826 0.82792 0.82786 0.82823
2722.574 0.82883 0.82926 0.82932 0.82912 0.82894 0.82894 0.82905 0.82918 0.82935 0.82965
2708.409 0.83000 0.83022 0.83028 0.83030 0.83041 0.83061 0.83081 0.83088 0.83076 0.83049
2694.244 0.83026 0.83019 0.83032 0.83057 0.83077 0.83079 0.83064 0.83048 0.83043 0.83049
2680.078 0.83059 0.83067 0.83068 0.83063 0.83053 0.83047 0.83049 0.83065 0.83093 0.83124
2665.913 0.83138 0.83123 0.83093 0.83080 0.83097 0.83136 0.83173 0.83195 0.83191 0.83161
2651.748 0.83121 0.83097 0.83104 0.83139 0.83180 0.83212 0.83229 0.83235 0.83238 0.83240
2637.582 0.83242 0.83249 0.83260 0.83263 0.83253 0.83251 0.83281 0.83329 0.83366 0.83380
2623.417 0.83377 0.83353 0.83306 0.83264 0.83260 0.83291 0.83325 0.83351 0.83389 0.83452
2609.252 0.83512 0.83541 0.83540 0.83534 0.83539 0.83559 0.83598 0.83646 0.83677 0.83668
2595.086 0.83628 0.83590 0.83569 0.83556 0.83544 0.83553 0.83597 0.83657 0.83696 0.83696
2580.921 0.83665 0.83626 0.83619 0.83667 0.83743 0.83791 0.83792 0.83776 0.83768 0.83775
2566.756 0.83800 0.83842 0.83868 0.83849 0.83801 0.83761 0.83745 0.83745 0.83752 0.83757
2552.590 0.83766 0.83796 0.83845 0.83880 0.83875 0.83849 0.83840 0.83863 0.83894 0.83899
2538.425 0.83872 0.83843 0.83833 0.83830 0.83817 0.83797 0.83785 0.83786 0.83798 0.83806
2524.260 0.83796 0.83768 0.83740 0.83737 0.83769 0.83821 0.83866 0.83884 0.83880 0.83878
2510.094 0.83893 0.83924 0.83948 0.83931 0.83867 0.83795 0.83768 0.83798 0.83846 0.83870
2495.929 0.83862 0.83837 0.83815 0.83818 0.83851 0.83897 0.83924 0.83927 0.83924 0.83936
2481.764 0.83967 0.84012 0.84056 0.84074 0.84066 0.84062 0.84088 0.84124 0.84130 0.84097
2467.599 0.84059 0.84040 0.84029 0.84012 0.84010 0.84055 0.84139 0.84207 0.84219 0.84197
2453.433 0.84180 0.84174 0.84155 0.84117 0.84087 0.84085 0.84104 0.84118 0.84117 0.84113
2439.268 0.84119 0.84134 0.84155 0.84180 0.84208 0.84234 0.84257 0.84273 0.84270 0.84245
2425.103 0.84217 0.84216 0.84252 0.84302 0.84329 0.84323 0.84314 0.84324 0.84345 0.84363
2410.937 0.84382 0.84403 0.84419 0.84417 0.84382 0.84309 0.84223 0.84162 0.84142 0.84143
2396.772 0.84152 0.84168 0.84201 0.84245 0.84277 0.84273 0.84239 0.84204 0.84189 0.84191
2382.607 0.84196 0.84204 0.84227 0.84270 0.84321 0.84359 0.84373 0.84365 0.84348 0.84340
2368.441 0.84356 0.84404 0.84471 0.84524 0.84538 0.84536 0.84551 0.84592 0.84653 0.84727
2354.276 0.84775 0.84747 0.84637 0.84504 0.84414 0.84401 0.84459 0.84537 0.84573 0.84545
2340.111 0.84483 0.84434 0.84426 0.84437 0.84433 0.84414 0.84412 0.84426 0.84402 0.84308
2325.945 0.84191 0.84139 0.84178 0.84246 0.84272 0.84251 0.84221 0.84200 0.84184 0.84166
2311.780 0.84163 0.84185 0.84210 0.84203 0.84168 0.84137 0.84125 0.84129 0.84160 0.84240
2297.615 0.84358 0.84463 0.84514 0.84511 0.84481 0.84457 0.84460 0.84493 0.84538 0.84569
2283.449 0.84581 0.84588 0.84604 0.84610 0.84577 0.84511 0.84467 0.84492 0.84568 0.84635
2269.284 0.84670 0.84695 0.84728 0.84767 0.84809 0.84853 0.84881 0.84874 0.84837 0.84799
2255.119 0.84785 0.84784 0.84774 0.84776 0.84835 0.84955 0.85090 0.85190 0.85219 0.85155
2240.953 0.85025 0.84910 0.84873 0.84903 0.84937 0.84924 0.84871 0.84823 0.84802 0.84795
2226.788 0.84803 0.84846 0.84929 0.85024 0.85089 0.85102 0.85084 0.85085 0.85113 0.85126
2212.623 0.85095 0.85040 0.84989 0.84960 0.84968 0.85017 0.85079 0.85126 0.85165 0.85200
2198.457 0.85213 0.85204 0.85200 0.85198 0.85174 0.85144 0.85142 0.85154 0.85141 0.85108
2184.292 0.85090 0.85078 0.85012 0.84871 0.84731 0.84714 0.84877 0.85154 0.85391 0.85444
2170.127 0.85295 0.85066 0.84908 0.84879 0.84936 0.85050 0.85258 0.85586 0.85921 0.86069
2155.962 0.85979 0.85772 0.85587 0.85483 0.85468 0.85530 0.85620 0.85655 0.85615 0.85588
2141.796 0.85648 0.85736 0.85739 0.85641 0.85547 0.85573 0.85717 0.85857 0.85872 0.85777
2127.631 0.85681 0.85641 0.85620 0.85584 0.85552 0.85551 0.85552 0.85502 0.85400 0.85307
2113.466 0.85264 0.85263 0.85291 0.85348 0.85421 0.85484 0.85519 0.85523 0.85522 0.85539
2099.300 0.85546 0.85504 0.85455 0.85480 0.85590 0.85705 0.85762 0.85767 0.85765 0.85779
2085.135 0.85801 0.85806 0.85777 0.85708 0.85624 0.85567 0.85558 0.85586 0.85651 0.85747
2070.970 0.85824 0.85820 0.85750 0.85698 0.85726 0.85797 0.85835 0.85826 0.85812 0.85817
2056.804 0.85818 0.85785 0.85717 0.85654 0.85660 0.85768 0.85929 0.86037 0.85999 0.85812
2042.639 0.85596 0.85518 0.85633 0.85855 0.86068 0.86189 0.86180 0.86080 0.85993 0.85992
2028.474 0.86052 0.86082 0.86000 0.85815 0.85648 0.85630 0.85760 0.85914 0.85994 0.86021
2014.308 0.86042 0.86034 0.85963 0.85861 0.85798 0.85811 0.85869 0.85919 0.85960 0.86035
2000.143 0.86126 0.86161 0.86150 0.86212 0.86387 0.86540 0.86505 0.86279 0.86011 0.85832
1985.978 0.85747 0.85678 0.85602 0.85602 0.85757 0.86035 0.86304 0.86442 0.86406 0.86246
1971.812 0.86082 0.86031 0.86096 0.86171 0.86199 0.86258 0.86395 0.86513 0.86505 0.86426
1957.647 0.86409 0.86466 0.86494 0.86442 0.86372 0.86357 0.86393 0.86420 0.86397 0.86334
1943.482 0.86272 0.86245 0.86247 0.86263 0.86298 0.86353 0.86396 0.86403 0.86391 0.86392
1929.316 0.86401 0.86388 0.86328 0.86224 0.86088 0.85916 0.85693 0.85432 0.85183 0.84998
1915.151 0.84879 0.84805 0.84772 0.84799 0.84897 0.85046 0.85210 0.85369 0.85523 0.85658
1900.986 0.85743 0.85764 0.85747 0.85725 0.85716 0.85730 0.85786 0.85884 0.85974 0.85998
1886.820 0.85974 0.85971 0.86017 0.86081 0.86126 0.86148 0.86161 0.86171 0.86162 0.86119
1872.655 0.86064 0.86052 0.86109 0.86190 0.86228 0.86227 0.86229 0.86252 0.86290 0.86335
1858.490 0.86365 0.86359 0.86328 0.86313 0.86328 0.86353 0.86370 0.86376 0.86378 0.86399
1844.325 0.86444 0.86465 0.86422 0.86357 0.86335 0.86371 0.86414 0.86412 0.86374 0.86368
1830.159 0.86440 0.86537 0.86589 0.86602 0.86591 0.86542 0.86462 0.86393 0.86358 0.86341
1815.994 0.86308 0.86241 0.86143 0.86024 0.85901 0.85793 0.85704 0.85612 0.85502 0.85395
1801.829 0.85325 0.85291 0.85250 0.85182 0.85107 0.85061 0.85087 0.85184 0.85265 0.85274
1787.663 0.85248 0.85238 0.85243 0.85240 0.85238 0.85270 0.85333 0.85388 0.85416 0.85444
1773.498 0.85527 0.85670 0.85806 0.85906 0.86000 0.86077 0.86105 0.86109 0.86144 0.86200
1759.333 0.86237 0.86262 0.86294 0.86303 0.86279 0.86266 0.86307 0.86367 0.86380 0.86352
1745.167 0.86328 0.86329 0.86347 0.86373 0.86383 0.86345 0.86273 0.86240 0.86309 0.86401
1731.002 0.86431 0.86439 0.86462 0.86480 0.86477 0.86459 0.86422 0.86365 0.86326 0.86371
1716.837 0.86507 0.86606 0.86598 0.86538 0.86481 0.86451 0.86442 0.86454 0.86478 0.86492
1702.671 0.86503 0.86563 0.86682 0.86767 0.86781 0.86768 0.86716 0.86613 0.86486 0.86358
1688.506 0.86232 0.86119 0.86070 0.86107 0.86125 0.86051 0.85948 0.85864 0.85820 0.85822
1674.341 0.85841 0.85838 0.85843 0.85917 0.86025 0.86059 0.86024 0.86015 0.86102 0.86251
1660.175 0.86373 0.86435 0.86453 0.86472 0.86604 0.86923 0.87127 0.87083 0.87001 0.87046
1646.010 0.87203 0.87299 0.87295 0.87264 0.87247 0.87255 0.87316 0.87472 0.87638 0.87681
1631.845 0.87639 0.87608 0.87634 0.87691 0.87730 0.87751 0.87783 0.87807 0.87784 0.87737
1617.679 0.87720 0.87714 0.87593 0.87313 0.86933 0.86528 0.86154 0.85805 0.85408 0.84868
1603.514 0.84100 0.83049 0.81721 0.80213 0.78706 0.77443 0.76687 0.76607 0.77179 0.78212
1589.349 0.79450 0.80648 0.81667 0.82476 0.83102 0.83569 0.83895 0.84119 0.84327 0.84587
1575.183 0.84791 0.84770 0.84533 0.84130 0.83632 0.83225 0.83072 0.83165 0.83376 0.83572
1561.018 0.83777 0.84268 0.85082 0.85582 0.85742 0.85835 0.85919 0.85993 0.86072 0.86143
1546.853 0.86177 0.86189 0.86220 0.86302 0.86498 0.86819 0.87039 0.87073 0.87045 0.87073
1532.687 0.87179 0.87274 0.87309 0.87332 0.87387 0.87452 0.87479 0.87445 0.87293 0.86890
1518.522 0.86034 0.84519 0.82391 0.80022 0.77742 0.75786 0.74474 0.74307 0.75902 0.78420
1504.357 0.80050 0.80895 0.81530 0.82156 0.82799 0.83445 0.84002 0.84357 0.84550 0.84717
1490.192 0.84963 0.85263 0.85495 0.85633 0.85726 0.85811 0.85897 0.85982 0.86060 0.86138
1476.026 0.86235 0.86376 0.86571 0.86753 0.86831 0.86819 0.86786 0.86785 0.86807 0.86773
1461.861 0.86622 0.86348 0.85890 0.85080 0.83982 0.83030 0.82365 0.81910 0.81614 0.81392
1447.696 0.81065 0.80476 0.79628 0.78619 0.77584 0.76728 0.76320 0.76682 0.77925 0.79484
1433.530 0.80774 0.81818 0.82777 0.83617 0.84235 0.84654 0.84965 0.85201 0.85343 0.85404
1419.365 0.85422 0.85406 0.85364 0.85356 0.85442 0.85628 0.85860 0.86048 0.86123 0.86027
1405.200 0.85644 0.84837 0.83525 0.81619 0.79138 0.76567 0.74719 0.74087 0.74565 0.75638
1391.034 0.76868 0.78147 0.79480 0.80735 0.81695 0.82301 0.82612 0.82626 0.82260 0.81478
1376.869 0.80413 0.79372 0.78755 0.78793 0.79361 0.80210 0.81133 0.81946 0.82559 0.83023
1362.704 0.83405 0.83698 0.83884 0.84002 0.84114 0.84248 0.84388 0.84502 0.84578 0.84626
1348.538 0.84636 0.84575 0.84412 0.84147 0.83809 0.83441 0.83103 0.82873 0.82795 0.82854
1334.373 0.83023 0.83289 0.83639 0.84035 0.84430 0.84789 0.85093 0.85339 0.85538 0.85704
1320.208 0.85846 0.85961 0.86040 0.86076 0.86082 0.86088 0.86123 0.86188 0.86243 0.86210
1306.042 0.85998 0.85553 0.84911 0.84189 0.83539 0.83092 0.82936 0.83106 0.83558 0.84170
1291.877 0.84795 0.85313 0.85664 0.85838 0.85860 0.85773 0.85622 0.85443 0.85256 0.85068
1277.712 0.84893 0.84761 0.84711 0.84774 0.84951 0.85212 0.85506 0.85790 0.86047 0.86277
1263.546 0.86480 0.86648 0.86773 0.86851 0.86881 0.86867 0.86822 0.86763 0.86705 0.86658
1249.381 0.86637 0.86655 0.86720 0.86820 0.86929 0.87022 0.87094 0.87161 0.87236 0.87312
1235.216 0.87371 0.87391 0.87351 0.87227 0.87002 0.86666 0.86201 0.85566 0.84703 0.83569
1221.050 0.82180 0.80617 0.78983 0.77352 0.75782 0.74386 0.73365 0.72939 0.73224 0.74162
1206.885 0.75554 0.77136 0.78668 0.80000 0.81080 0.81910 0.82500 0.82848 0.82957 0.82855
1192.720 0.82593 0.82226 0.81792 0.81305 0.80742 0.80022 0.79034 0.77696 0.76016 0.74100
1178.555 0.72133 0.70370 0.69140 0.68773 0.69424 0.70938 0.72909 0.74915 0.76694 0.78175
1164.389 0.79383 0.80360 0.81148 0.81794 0.82342 0.82819 0.83235 0.83597 0.83911 0.84172
1150.224 0.84385 0.84572 0.84756 0.84949 0.85152 0.85353 0.85537 0.85692 0.85823 0.85942
1136.059 0.86042 0.86094 0.86065 0.85922 0.85615 0.85102 0.84409 0.83655 0.82970 0.82425
1121.893 0.82029 0.81760 0.81587 0.81510 0.81592 0.81922 0.82518 0.83280 0.84053 0.84717
1107.728 0.85234 0.85619 0.85907 0.86130 0.86316 0.86475 0.86601 0.86688 0.86756 0.86832
1093.563 0.86927 0.87024 0.87102 0.87159 0.87218 0.87308 0.87439 0.87593 0.87736 0.87839
1079.397 0.87895 0.87895 0.87797 0.87520 0.86983 0.86113 0.84841 0.83168 0.81305 0.79728
1065.232 0.78977 0.79312 0.80525 0.82095 0.83531 0.84588 0.85228 0.85466 0.85264 0.84539
1051.067 0.83222 0.81287 0.78754 0.75761 0.72696 0.70209 0.68972 0.69324 0.71074 0.73597
1036.901 0.76190 0.78401 0.80105 0.81363 0.82261 0.82854 0.83215 0.83489 0.83834 0.84263
1022.736 0.84449 0.83710 0.81545 0.78467 0.76039 0.75598 0.77049 0.79199 0.81007 0.82202
1008.571 0.82977 0.83544 0.84012 0.84418 0.84768 0.85042 0.85223 0.85331 0.85428 0.85560
994.405 0.85727 0.85897 0.86038 0.86142 0.86221 0.86292 0.86357 0.86405 0.86417 0.86370
980.240 0.86235 0.85961 0.85476 0.84711 0.83649 0.82373 0.81091 0.80055 0.79414 0.79121
966.075 0.78991 0.78855 0.78692 0.78645 0.78915 0.79585 0.80538 0.81526 0.82337 0.82912
951.909 0.83327 0.83697 0.84092 0.84524 0.84971 0.85398 0.85774 0.86081 0.86320 0.86507
937.744 0.86665 0.86802 0.86917 0.87009 0.87089 0.87170 0.87261 0.87368 0.87480 0.87581
923.579 0.87655 0.87708 0.87761 0.87827 0.87902 0.87966 0.88001 0.87982 0.87880 0.87689
909.413 0.87448 0.87221 0.87051 0.86941 0.86871 0.86809 0.86732 0.86645 0.86569 0.86488
895.248 0.86322 0.85963 0.85349 0.84547 0.83821 0.83577 0.84068 0.85139 0.86346 0.87325
881.083 0.87993 0.88425 0.88705 0.88895 0.89057 0.89231 0.89420 0.89602 0.89761 0.89898
866.918 0.90024 0.90144 0.90242 0.90319 0.90400 0.90514 0.90651 0.90768 0.90811 0.90713
852.752 0.90345 0.89454 0.87794 0.85435 0.82856 0.80517 0.78420 0.76310 0.74211 0.72434
838.587 0.71073 0.69761 0.67986 0.65413 0.61881 0.57433 0.52645 0.48766 0.47154 0.48413
824.422 0.52049 0.56898 0.61807 0.66067 0.69454 0.72054 0.74068 0.75681 0.77025 0.78175
810.256 0.79173 0.80050 0.80823 0.81496 0.82082 0.82602 0.83076 0.83524 0.83950 0.84326
796.091 0.84626 0.84846 0.84987 0.85037 0.84998 0.84913 0.84871 0.84977 0.85286 0.85743
781.926 0.86214 0.86594 0.86885 0.87144 0.87387 0.87583 0.87724 0.87847 0.87976 0.88072
767.760 0.88049 0.87771 0.86999 0.85396 0.82669 0.78866 0.74594 0.70875 0.68676 0.68485
753.595 0.70155 0.73024 0.76193 0.78781 0.80059 0.79650 0.77783 0.75161 0.72424 0.69876
739.430 0.67813 0.66819 0.67440 0.69624 0.72633 0.75561 0.77893 0.79595 0.80840 0.81779
725.264 0.82499 0.83066 0.83523 0.83884 0.84158 0.84380 0.84594 0.84802 0.84925 0.84764
711.099 0.84016 0.82458 0.80307 0.78357 0.77530 0.78164 0.79793 0.81633 0.83157 0.84239
696.934 0.84971 0.85485 0.85873 0.86174 0.86402 0.86574 0.86718 0.86852 0.86991 0.87148
682.768 0.87305 0.87411 0.87457 0.87511 0.87638 0.87803 0.87918 0.87951 0.87956 0.88010
668.603 0.88127 0.88196 0.88121 0.87913 0.87552 0.86968 0.86141 0.85149 0.84126 0.83194
654.438 0.82477 0.82095 0.82078 0.82304 0.82608 0.82895 0.83146 0.83428 0.83920 0.84762
640.272 0.85863 0.86939 0.87779 0.88364 0.88776 0.89066 0.89230 0.89280 0.89265 0.89172
626.107 0.88812 0.87854 0.86047 0.83541 0.80956 0.78962 0.77789 0.77277 0.77305 0.77801
611.942 0.78380 0.78405 0.77525 0.75951 0.74143 0.72378 0.70657 0.68876 0.67014 0.65130
597.776 0.63281 0.61509 0.59897 0.58533 0.57497 0.56930 0.57036 0.57910 0.59384 0.61062
583.611 0.62522 0.63478 0.63802 0.63671 0.63699 0.64568 0.66358 0.68422 0.70059 0.71072
569.446 0.71695 0.72254 0.72932 0.73739 0.74618 0.75505 0.76346 0.77108 0.77792 0.78391
555.280 0.78881 0.79223 0.79361 0.79228 0.78820 0.78220 0.77540 0.76868 0.76279 0.75842
541.115 0.75595 0.75533 0.75619 0.75791 0.75985 0.76159 0.76317 0.76484 0.76667 0.76877
526.950 0.77128 0.77381 0.77575 0.77753 0.78072 0.78646 0.79422 0.80186 0.80731 0.81021
512.785 0.81165 0.81297 0.81489 0.81726 0.81946 0.82118 0.82279 0.82484 0.82714 0.82910
498.619 0.83061 0.83203 0.83355 0.83507 0.83638 0.83734 0.83814 0.83907 0.84010 0.84104
484.454 0.84181 0.84248 0.84321 0.84451 0.84669 0.84913 0.85080 0.85131 0.85118 0.85114
470.289 0.85138 0.85127 0.85013 0.84817 0.84634 0.84529 0.84464 0.84353 0.84169 0.83973
456.123 0.83818 0.83697 0.83634 0.83695 0.83878 0.84113 0.84367 0.84623 0.84834 0.84956
441.958 0.84974 0.84896 0.84790 0.84767 0.84875 0.85035 0.85100 0.84994 0.84776 0.84583
427.793 0.84487 0.84475 0.84585 0.84919 0.85475 0.86112 0.86608 0.86769 0.86684 0.86559
413.627 0.86441 0.86288 0.86094 0.85901 0.85739 0.85615 0.85542 0.85530 0.85564 0.85665
399.462 0.85911 0.86262 0.86420 0.86242 0.85942 0.85698 0.85486 0.85250 0.85076 0.85150
385.297 0.85568 0.86148 0.86568 0.86713 0.86672 0.86542 0.86309 0.85960 0.85749
##END= 
