##TITLE=X9369
##JCAMP-DX=5.0
##DATA TYPE=LINK
##BLOCKS=1


$$ === CHEMSPECTRA SPECTRUM ORIG ===
##TITLE=X9369
##JCAMP-DX=5.00
##DATA TYPE=INFRARED SPECTRUM
##DATA CLASS=XYDATA
##ORIGIN=ComPlat
##OWNER=
##XUNITS=1/CM
##YUNITS=TRANSMITTANCE
##XFACTOR=1
##YFACTOR=1.0187831e-009
##FIRSTX=3997.453
##LASTX=373.96442
##MAXX=3997.453
##MAXY=1.0939100230355914
##MINX=373.96442
##MINY=0.6222424158142568
##NPOINTS=2559
##XYDATA= (X++(Y..Y))
2559I09332945I09245479I08730863I08100698I07835667I08192084I09022338I09886936
2551I10331404I10236449I09903435I09642499I09389988I08925160I08276332I07644587
2543I07125056I06776421I06820417I07433849I08404401I09265079I09684214I09542162
2535I08888126I08031544I07348490I06918999I06680062I06706272I06880795I06620444
2527I05399664I03465172I01905526I01728722I02601569I03217868I03109925I03210204
2519I04293789I05813943I06839607I06945385I05997534I04049761I01872412I00931698
2511I01811215I03240919I03609447I02837171I02319805I02802653I03287256I02628540
2503I01229083I00871145I02636789I05571495I08055239I09359917I09420997I07876855
2495I04104405H98348904H92589718H89311408H89121615H91186575H94727751H98576433
2487I01053917I01139043H99538384H98651730H99798442I01186491I00620097H98177834
2479H95949702H94926787H94626302H95681219H98596150I01329713I01476445H98786235
2471H94965109H91745187H90443142H91748464H93903405H94340677H93071278H92949001
2463H95631547H99169798I01037184I00300890H96695767H89996685H83794142H84751647
2455H91285976H98096101I02465602I03556967I01575905H97509932H92723813H88449443
2447H86007472H86661098H89827955H93316768H95854454H97610913H99024061H99948685
2439I00154742H99911885H99067998H96260542H90991224H86686665H86727736H89250094
2431H92161046H95950755I00526020I04167884I05562310I04429054I01632187H99166229
2423H97834171H96013356H92890613H90942723H92329718H95673203H99420963I03160884
2415I06402276I08531826I09471662I09526248I08817802I07413314I05931656I05049273
2407I04389972I03287080I02492573I03570658I06343069I08929256I09674911I07943668
2399I04505404I01516990I00451717I00665731I01313214I02256619I02826348I01965436
2391H99944356H98631955H98737792H98454273H95597614H89610313H83296960H81361123
2383H83391857H85471852H86136185H86947308H89418707H92080367H92742886H90156406
2375H84655171H79590798H79750694H85621159H93193087H98831050I00989092H99808154
2367H97093957H95459833H96103630H98354755I01065735I03291761I04250845I03312881
2359I00058910H94977746H91107299H92342882H97826039I03610091I07206789I07882120
2351I06276080I04708360I05336244I07457486I09044571I09166848I07646284I03940180
2343H97806673H91498995H89702401H93643991H99544996I04394184I07134300I07308881
2335I04913540I00246479H93547807H86966030H85309265H88263629H90645748H91106305
2327H93342277H99298511I05929141I10383884I12150757I12087863I11063018I09194345
2319I06554508I04237330I03046797I01309762H96329462H87627671H80491494H82143812
2311H90363633H98668287I04150625I06851542I08111697I09036380I09466865I08729049
2303I06942401I04847077I02352393H98418058H93949625H93535229H98166484I03325987
2295I05800604I04693851I00568495H95941452H94085475H95015892H96344615H97235131
2287H98296483H99159560H98886338H98553616I00317388I03664091I06001688I06087808
2279I04986964I04236745I03873191I03194173I02588990I03215411I04841344I05367603
2271I02972378H98715560H96966297H99877952I04460179I07670037I08936511I09070196
2263I08955993I09004260I09295911I09794380I10043790I08791241I04593630H97789999
2255H92514245H93273533H98510556I03730144I06921807I08668671I10046013I11004688
2247I10711633I09039539I07197954I06488689I06547956I05913286I04238676I03108053
2239I04163906I07015241I09941346I11595537I11715416I11063603I10660499I10692970
2231I10457191I09406312I07858016I06679945I06374603I06671520I07202167I08089582
2223I09489331I11036106I12189312I12774252I12916246I12624127I11698800I10187129
2215I08813473I08462088I08987411I09216870I08431431I07386226I07505636I09060016
2207I10887969I11885024I12093129I12269523I12713933I12979139I12648641I11940897
2199I11479696I11578220I11847639I11707751I11270772I11317343I12166904I13163959
2191I13612230I13582626I13505281I13437064I13153837I12656071I12242201I12194227
2183I12496116I12829950I12922857I12956030I13463567I14680018I16115163I16971453
2175I16939451I16269151I15152335I13654471I12248637I11585942I11611919I11787085
2167I12043165I12615877I13287816I13572446I13371947I12971885I12627929I12378227
2159I12112494I11791356I11569268I11548265I11498242I11031191I10051981I08994899
2151I08553825I09040768I10046306I10843446I11063077I10921551I10837420I10952267
2143I11148554I11366078I11603728I11678323I11365668I10749486I10144069I09804385
2135I09866635I10314964I10919153I11426748I11805163I12153390I12478623I12686318
2127I12778465I12951934I13359778I13785231I13832445I13463742I13065845I13013658
2119I13407694I14079632I14616013I14582898I13950627I13142604I12566733I12286432
2111I12192881I12228920I12359388I12584577I13065026I13922778I14851147I15278883
2103I15007767I14390181I13906104I13794417I14005154I14306283I14450441I14290487
2095I13826653I13280151I13033082I13267514I13737315I14050555I14032125I13750947
2087I13421033I13293959I13437532I13665412I13818755I13965838I14201090I14447516
2079I14575176I14541944I14331909I13919443I13370777I12864293I12583582I12631323
2071I12970656I13417815I13770312I13933894I13878080I13596316I13181511I12775773
2063I12419064I12134726I12133966I12651098I13535295I14239353I14357125I14080568
2055I13937814I14090105I14148142I13811149I13375984I13354454I13780785I14217998
2047I14398605I14514096I14767484I15005310I15073527I15194576I15575858I15934205
2039I15867509I15438545I15017011I14819554I14879698I15171876I15563162I15884066
2031I16110366I16276756I16281027I15986685I15473882I15044275I14960377I15227280
2023I15620556I15933620I16143071I16286176I16279331I16007571I15573283I15309247
2015I15475462I15984696I16496036I16730468I16630833I16278921I15821523I15492136
2007I15521740I15921100I16442386I16850346I17143109I17406736I17581492I17526029
1999I17253217I16955423I16800500I16801845I16897619I17055175I17239292I17365080
1991I17397726I17436515I17547267I17575174I17312308I16826593I16453561I16452156
1983I16760716I17115319I17396731I17787901I18428421I19011782I19120310I18891611
1975I18848844I19063443I19064379I18621841I18055564I17690898I17502393I17393748
1967I17438446I17703594I18082536I18446207I18824271I19287988I19732105I19970574
1959I20020011I20068747I20167621I20161361I19910957I19443730I18933911I18608795
1951I18585334I18778754I19060868I19402776I19731871I19814071I19514814I19074734
1943I18880261I18976562I19046944I18881373I18584983I18299182I18049831I17921996
1935I18022977I18212886I18194925I17893328I17470624I17060616I16773353I16853038
1927I17474895I18393552I19048875I19057826I18450537I17509940I16623169I16202220
1919I16412724I16915346I17126142I16806467I16210879I15683684I15378167I15377699
1911I15788935I16587831I17511286I18205456I18477508I18402737I18181410I17899296
1903I17487298I16895396I16144241I15145138I13650961I11526618I09007068I06648118
1895I05031780I04417177I04601704I05193548I06026026I07167707I08582609I10006112
1887I11187987I12079087I12776359I13373995I13846428I14048332I13885393I13411497
1879I12639923I11386262I09467801I06995759I04384297I02217479I01148579I01633884
1871I03533390I06084766I08438217I10190113I11370875I12137417I12675670I13235980
1863I13985262I14880342I15789696I16621472I17268604I17600273I17598986I17450615
1855I17480921I17900466I18509686I18854987I18819298I18776882I19011958I19343158
1847I19422317I19047997I18147769I16750828I14935688I12578434I09280641I04768445
1839H99327705H93785399H89101197H85907544H84253178H83640447H83297311H82576579
1831H81267045H79568039H77754537H75875801H73722498H70991860H67433542H62902565
1823H57534431H52214563H48697141H48517996H51367752H54917470H56689433H55983678
1815H53891630H51843637H50294171H48372141H44564179H38163535H30448911H24239874
1807H21929424H23871288H28589014H34190119H39388762H43532138H46180575H46869831
1799H45297841H41857002H37952154H35334783H34695842H35064896H34974037H34230195
1791H34370258H37355805H43770490H52116683H59851433H65106769H67361345H66878732
1783H64342859H61148096H59165278H59561420H61980223H65067219H67632169H69263308
1775H70198990H70934115H71850724H73042193H74503140H76385679H78811560H81513355
1767H83949299H85740335H86785481H87052911H86493304H85146443H83198495H80852181
1759H78215738H75531495H73518664H73096955H74521277H77011163H79401766H81014301
1751H81902652H82547268H83478562H85035458H87236619H89801627H92366694H94683872
1743H96574835H97861727H98532086H98813849H98915591H98875866H98776055H98884466
1735H99439978I00394616I01426481I02154878I02348473I01999018I01292737I00543805
1727I00042470H99871692H99958105I00330084I01146765I02399900I03780927I04965844
1719I05897431I06695507I07449353I08215076I09043108I09842823I10369316I10520144
1711I10532430I10724387I11111051I11419201I11471856I11404399I11424759I11525214
1703I11612504I11784569I12230032I12914608I13562149I13933017I14014574I13959871
1695I13906163I13887909I13908561I14003107I14182134I14399658I14627714I14901228
1687I15233541I15542919I15728675I15805610I15875231I15979606I16085677I16169632
1679I16204151I16154713I16092171I16176477I16447768I16790027I17101160I17344018
1671I17483495I17549256I17667203I17879287I18016249I17889057I17573711I17369936
1663I17436983I17600390I17615894I17501164I17467699I17631105I17926735I18232252
1655I18454690I18536423I18448196I18191766I17836343I17553936I17541767I17835232
1647I18222130I18416077I18322760I18114304I18059894I18307373I18788056I19310454
1639I19741465I20057513I20244966I20255848I20091388I19831623I19553721I19282722
1631I19031264I18828425I18702345I18655541I18671337I18724753I18774424I18787471
1623I18791332I18847264I18968663I19137394I19370305I19665467I19909611I19967005
1615I19864269I19809976I20001991I20426158I20852840I21049420I20997993I20875892
1607I20819843I20785617I20684870I20566981I20541473I20600213I20672233I20769528
1599I20938025I21172106I21462060I21779513I21992181I22024476I22087370I22483863
1591I23188213I23864832I24268580I24384656I24250092I23954287I23778829I23965170
1583I24317433I24371784I23996880I23528424I23330207I23478343I23815395I24130448
1575I24365700I24698422I25270432I25865728I26069445I25724437I25073912I24534898
1567I24429998I24804902I25412660I25960741I26353315I26613373I26739511I26786140
1559I26867814I26961833I26955397I26911401I26972715I27053921I26978800
1552I26817265I26755951I26762796I26694462I26610857I26722779I27060474
1545I27386760I27512372I27528753I27586148I27611656I27535072I27597030
1538I28032722I28553774I28599701I28099477I27584509I27528753I27891489
1531I28323086I28566470I28598765I28512703I28348828I28114922I27933496
1524I27972110I28222514I28524930I28718116I28609062I28081165I27420869
1517I27177017I27520972I28078473I28455133I28607131I28710920I28918147
1510I29205703I29344128I29107004I28584080I28187879I28260543I28701559
1503I29081203I29138714I29062072I29195582I29591139I29985350I30165724
1496I30192753I30233473I30361542I30572982I30799341I30886807I30805601
1489I30822333I31178750I31690032I31932187I31726130I31245096I30727145
1482I30231426I29726697I29398304I29618461I30431515I31271657I31455658
1475I30875808I30078433I29724532I30026597I30682388I31264754I31579690
1468I31703430I31822021I32016494I32151467I32039487I31677804I31226257
1461I30869548I30786118I31048283I31452850I31639015I31475082I31226959
1454I31240591I31497782I31651886I31526099I31301437I31116325I30858431
1447I30526528I30412735I30671213I30996095I31001653I30765817I30725974
1440I31086779I31602741I31928209I31937862I31719051I31484092I31458759
1433I31692372I32051597I32426151I32780754I33035781I33105461I33005358
1426I32782509I32457042I32133388I31994086I32070378I32196516I32313527
1419I32656020I33493354I34790835I36239086I37538264I38652096I39896513
1412I41667716I43911118I46111050I47978729I49710615I51401665I52771810
1405I53596624I53898923I53716093I53019641I51791079I50051821I47844517
1398I45290917I42826773I41167375I40831786I41787126I43423824I44888398
1391I45744278I46126847I46250937I46226482I46188804I46281946I46491104
1384I46536328I46064070I45028343I43733612I42481589I41433985I40738820
1377I40498947I40606305I40746953I40605486I40100932I39410857I38666079
1370I37727238I36490193I35281172I34603442I34560908I34779368I34849517
1363I34723612I34706178I35085938I35781337I36400562I36626043I36417353
1356I35850491I35007658I34167398I33819465I34168100I34775156I35046681
1349I34941722I34889769I35145146I35553867I35910518I36274307I36805714
1342I37369417I37538030I37123283I36487794I36129564I36186490I36541561
1335I37127964I37817805I38224654I38067215I37692895I37785217I38518762
1328I39450290I40213205I40760584I40950143I40476188I39290921I37810082
1321I36695899I36474045I37206771I38526777I40005275I41355237I42299695
1314I42557471I42119907I41346812I40633451I40150019I40027157I40488123
1307I41574341I43007555I44359155I45085035I44773200I43851442I43430961
1300I43947157I44723996I45155125I45289454I45099837I44303516I43126147
1293I42406351I42703618I43688036I44546900I44882898I45023312I45322042
1286I45544013I45328536I44922623I44868447I45200584I45548986I45887500
1279I46532233I47473590I48323561I48762062I48595087I47845102I47026840
1272I46625316I46359290I45801789I45313266I45529035I46493502I47923909
1265I49681596I51554891I53044272I53607389I53306845I52918543I52725591
1258I52059269I50801221I50009345I50325452I50916769I50528057I48705077
1251I45936060I43402703I42349834I43054185I44619388I45969525I46726121
1244I47088330I47261799I47222718I46908834I46316581I45412726I44321302
1237I43562248I43586236I44080668I44276135I43901055I43355723I43035170
1230I42958820I43080571I43530597I44258232I44699190I44303340I43346655
1223I42682088I42721170I43121583I43401592I43493738I43740925I44444339
1216I45384409I45993980I46084138I46065357I46378363I46943996I47233190
1209I46854600I46081154I45645988I45940155I46642048I47197736I47361435
1202I47208676I46950842I46867003I47214995I48013481I48891301I49281768
1195I48997957I48539565I48497967I48739596I48714965I48522071I48931026
1188I50173805I51431035I51812375I51252475I50441001I50533908I52403224
1181I55242507I56820524I56171052I54955010I55077346I56224819I56957954
1174I56873706I56471479I55904500I55025276I54167640I53994990I54679507
1167I55560837I55735067I55021473I54202802I54148684I54764399I54854146
1160I53335806I50777350I49096422I49518307I51480999I53654837I55161009
1153I55473078I54385749I52604718I51371417I51395990I52704529I55009304
1146I57563371I59221891I59242134I57676521I55051779I52404043I51325490
1139I52702715I55454474I57616202I58442771I58436979I57939387I56955087
1132I55953176I55601381I55842133I55891687I55052715I53559941I52772630
1125I53962402I56669579I59010744I59536594I58239112I56102366I54164247
1118I52945923I52371807I52047393I51697177I51279680I50770681I50104534
1111I49227826I48211815I47601952I48208422I49839562I51176944I51473451
1104I51258969I51299689I51697996I52202550I52761045I53392264I53679410
1097I52793341I50560820I48315488I47604351I48037410I48049287I47407888
1090I47389634I48582859I50073702I50726333I50255362I49438798I49385674
1083I50362837I51617551I52350803I52455119I52251987I51835602I51098898
1076I50346046I50225173I50702580I50862535I50266244I49746713I50243485
1069I51474621I52637364I53405427I53660688I53308835I52749929I52724304
1062I53381440I54049225I53892312I52293526I48986197I44970949I43154288
1055I45467604I49829382I53029938I54099130I54074967I54138797I54560155
1048I55161828I55854828I56496461I56753067I56274022I54944187I52955635
1041I50574803I48241127I47285143I48972507I52095016I54321218I54854146
1034I54581919I54640834I54893813I54041619I51332218I48141024I46859924
1027I47491434I48355564I49240288I50979078I53262849I54996666I55847457
1020I56265187I56389688I55624901I53529460I50827256I49130238I49254856
1013I50384543I51122651I50533791I48583561I46363151I45403424I46038152
1006I47099388I47260688I45845376I43424643I42516517I45061224I49106953
999I51674477I51933599I50912966I49784157I48885684I48400906I48440397
992I48169750I46243858I42028462I36346210I31868474I30910560I32483077
985I34370296I35245834I34221984I30964795I26829785I24216686I23419194
978I22990172I22502585I21850187I19641655I14356715I06700948I00264792
971H97425216H96352982H94391636H90697759H85363383H78157408H69467084
964H60374474H49263242H30772273H02152967G70728955G40820476G07990045
957F72539845F41032404F19600937F11723784F16726375F29148428F43973604
950F59942274F77393070F95536223G13223909G29985566G45333842G58343878
943G68343560G76139858G83596237G91120600G97625852H03073730H08775581
936H15474955H23582504H33791929H44080161H51018180H53774619H53733548
929H52696300H50871096H47176577H43712219H46196781H53613143H60976615
922H66133603H68827850H70107897H71678659H73505968H74385953H75541382
915H80180068H87440979H93105095H95431165H96135633H98351771I02362924
908I05436464I05381410I01271149H93510305H88054237H91106773H95418762
901H95775296H94645082H97939540I05905095I13140966I17078402I17561425
894I14747241I09500389I05873385I09282045I16991813I22874974I25113637
887I24666068I23401525I22346960I21396066I21287070I23123916I25511476
880I25916628I24129980I23506075I26477874I30357271I32185458I31515626
873I29543223I27589892I25825184I23563060I20387544I16699109I13524062
866I11877711I12179542I14191086I17306633I20795973I24030813I26759169
859I29045807I30788693I31475608I30642721I28521011I26027438I23835404
852I21621547I19051449I18041231I21354293I26496654I28935290I27838366
845I26172883I27263664I30151741I32284450I32611614I30168415I22754159
838I10134825I03331779I09323877I17924804I24164908I27855625I29631683
831I30658927I31134169I29341963I23760809I15202416I06175801I00199792
824I03329673I14302831I23454063I27209078I27711935I29117418I32407663
817I34310854I32793450I29061779I25456598I22183963I18516239I16205379
810I16906219I18880495I21338789I25483978I30361074I32788769I30614463
803I23618523I13682086I08419612I16294015I28130017I33837134I31784051
796I21521385I02276277H76756488H54796187H44315354H43571571H48598090
789H58879595H74985871H93526921I09401631I20440082I27216274I31432899
782I34251939I35310132I33518862I28477014I21329603I15430705I14464424
775I16846602I17609341I14617241I10117156I09364773I14149956I19697469
768I21325040I18046145I13806410I15626348I21068726I22121537I14629879
761H97031414H72069945H50344720H43922898H52883050H66691396H75841400
754H77749213H75493817H73697516H75314322H79537324H84587480H91027907
747H99363218I07041978I10201580I08084960I03026262H97448794H91407083
740H82808847H70139256H55467657H43965899H40181690H47053188H63989602
733H84832092I01738609I10896569I12695036I09103076I02208001H92869492
726H80922739H68181303H59821829H60432629H70110062H84768906H98571694
719I07911958I12664730I14838100I17188158I20786085I24197905I25989351
712I26184467I25515630I24283733I22343157I20269480I19790493I21726565
705I24500029I26367122I27144078I27136238I26073599I24092653I22917449
698I24377401I27757218I30776406I32066984I31679852I30363883I28653292
691I26405794I22828871I16861580I08323371H99090874H92234880H89577024
684H90942372H95559702I02696875I10858658I17981379I22671666I24661095
677I24578193I23593600I22904168I23110225I23962361I24676716I24416717
670I22648849I19435422I15461654I11477765I07718889I04122659I00755421
663H97629518H94520290H91385085H88603137H86427953H84464384H82022939
656H78837010H75172972H71259992H66745748H60904712H53701194H46736204
649H42715690H43560045H49027054H57184801H65891448H73678267H79686747
642H83347100H84251540H82342439H78310810H73440734H68489511H63050234
635H56827565H51177608H48206570H48470548H50582839H52799972H54162746
628H54526944H54310180H54041522H53772747H53122806H51815730H49825775
621H47214488H44151889H40894583H37445845H33168082H26775688H17221176
614H05466848G95290655G91011370G93562220G99397991H04053175H06293710
607H07870790H09732326H10045975H06421428G99113770G91512589G87988672
600G91365915H01655785H16483887H32670725H47696283H60077441H69040343
593H74347222H76283645H75485977H72784007H69129038H65261926H61321448
586H57156425H53200151H50688383H50768945H53606239H58400725H63879670
579H68668714H71791458H73269722H74050305H75156064H77018886H79499061
572H82106895H83865694H83053693H78044667H69639500H62037617H59437154
565H61558630H64607422H66420807H67946169H69819054H70652527H69404483
558H67221341H66132725H66980239H68918709H70519719H71330433H72275885
551H74419828H77711009H81196195H84055136H86103539H87532248H88518538
544H89156777H89563684H89886460H90252238H90735437H91283577H91704584
537H91844764H91709265H91365427H90816233H89922090H88203660H84537223
530H77298894H65791344H52221994H41322903H36591662H37082700H38654106
523H37923428H34651612H31335098H31259216H36229804H45397827H56220158
516H66450294H75091649H81998016H87155589H90189637H90364979H87560273
509H83592473H81890190H84965836H92256644I00823580I07811972I11761752
502I12036203I08215954I00978561H93347601H89676366H92331941H99778667
495I08364617I15278707I19545062I21427425I21863176I22026699I22721630
488I23960723I24998088I24705150I22230416I17842662I13423256I11674345
481I14097476I19728770I26201726I31716359I35639169I37783696I37719632
474I34764625I28861689I21712523I16381423I14886953I16031442I16051100
467I12028538I04719769H97142282H90467773H83294210H75359313H69078196
460H66193630H65888932H67800782H73980801H85799016I00947495I15269463
453I26197982I33180173I35940590I34022480I28275111I21778518I18093067
446I18337387I20668196I22742458I23907834I24892778I26268306I27697133
439I28318698I27450239I24871131I20624960I14445878I04774764H88830549
432H66043387H42454813H29070633H33168960H51890325H75537989H95754994
425I09397185I16632998I18163683I14808379I08552947I02864552I01387867
418I05896845I15263379I26447743I36649796I44680000I50686432I55158552
411I58437856I60840043I62755403I64494662I66184132I67856518I69507608
404I71040107I72312724I73303694I74097031I74590410I74227207I72091748
397I67292406I59370730I48871936I37985833I30140625I27970179I31283476
390I36943554I40689968I39803138I34965300I29617700I27348146I29885774
383I36727024I45581398I53223650I56438130I52884258I42672786I29509465
376I18459839I12160703I10710346I13975375I20782750I26530295I25213974
369I14935337I00063239H87263590H79949028H77462067H79076884H86155141
362H99131243I14784919I28572262I38407250I44985634I49711083I53368335
355I55953352I56808881I54911423I49323951I39918277I28492401I18941868
348I14558326I14468286I14239353I10392250I02901528H94183765H88269362
341H89747100H99952663I14422066I26462955I32673455I33648511I30960056
334I25860346I20684578I19234396I24155313I34357718I46027680I55842308
327I62624877I66749297I68989189I69803823I69335952I67896887I66015050
320I63907791I61149129I56626051I48641423I35634313I17551538H97157143
313H80149586H72515817H75826188H85358878H94447216I00747230I07221240
306I17378244I31107490I45365687I57329933I65946657I71513711I74995445
299I77440985I79413681I81010653I82319368I83554658I84953178I86720753
292I88866159I91081069I92986365I94433329I95478242I96172587I96478456
285I96386836I95995783I95324372I94131674I92037988I88762604I84396555
278I79653847I75505030I72130946I68215099I60648788I43878823I10723041
271H58082688G94874854G41847310G18401490G27959103G57543168G90483707
264H17240834H35575534H44859516H43224983H30621211H13101378H01119463
257H02143138H16106700H38018968H62741265H86751548I07750424I24639741
250I37766086I48295186I57019794I64021701I69455128I73891501I77592749
243I80143598I81064888I80231650I77387920I71432329I60526218I42498497
236I14339866H73207355H21060029G65869587G14120275F66665343F27598026
229F10770257F27946545F73422404G28169665G76446896H13182525H39885066
222H59594593H74801285H86821638H95875984I01638799I04248798I05250240
215I06923094I10432561I15379395I21060477I27550576I35634371I45033609
208I52295281I55276850I55492034I52690195I43898013I27229672I05730923
201H86655423H76781470H78003947H87160796H99242228I10275473I18544029
194I24731009I30835907I37969686I45205908I50865635I54218131I55289838
187I53533906I47121152I33416360I11069571H83361317H59347991H49344389
180H57570353H79125443I03973119I23886655I36393892I43717230I49237889
173I54561325I59074925I61934276I63700329I65594920I68107215I71041745
166I74279862I77785057I81228587I84181136I86534823I88442342I89946877
159I90857810I90979503I90215652I88196619I84048680I77168524I68390441
152I60129549I55365603I55922753I61147315I68771372I76891967I84518949
145I91047486I96065406I99381159A001091515A001815583A002480091A003504760
138A004456647A004727061A004204372A002975166A000380788I94413204I82314102
131I62355692I36227853I10867902H96569979H99958807I18082360I41027429
124I60275755I73340786I81583132I86682959I89684771I90708972I87528133
117I75721618I53674671I28336835I12411809I13117856I25495036I37628188
110I39630137I27669752I05769654H85599044H78562735H87646920I07492940
103I29196459I45651020I53526300I50173805I32064703I00558958H68385371
96H54245063H66692976H96113576I26233144I48869595I64840899I77197367
89I87423876I95443724A000635405A003020684A003442861A002441126I99556793
82I93485303I82377873I64915493I42415360I20128130I05781297I05929609
75I21735867I46290721I68077728I79144262I78282356I67453823I48041388
68I22460695H98641375H87932135H94885833I12165442I26917486I29843357
61I20172887I06736988I01892245I09913615I26977746I47623131I66454077
54I79634482I86966361I91264191I95445596A000310113A005086404A008911275
47A011027427A010552243A007086715A001548795I96136899I93466230I95192266
40A000625927A007387668A013668959A018699400A021592157A021151258A016988575
33A012564371A015408803A025405560A034613894A038464390A038122600A037735877
26A039548969A042533346A045405393A047996026A049742656A049421811A047084389
19A045092503A045894383A047356793A044674772A036420083A023238391A006452045
12I89483510I77816475I76867746I89146752A010148670A030744676A047066603
5A060150942A069785081A073741823A072547370A073598718
##END=


$$ === CHEMSPECTRA PEAK TABLE EDIT ===
##TITLE=X9369
##JCAMP-DX=5.00
##DATA TYPE=INFRAREDPEAKTABLE
##DATA CLASS=PEAKTABLE
##$CSTHRESHOLD=0.93
##MAXX=3997.453
##MAXY=1.0939100230355914
##MINX=373.96442
##MINY=0.6222424158142568
##$CSSOLVENTNAME=- - -
##$CSSOLVENTVALUE=0
##$CSSOLVENTX=0
##NPOINTS=74
##PEAKTABLE= (XY..XY)
388.12973892106174, 0.9961828996315726
417.8769086552288, 1.0344813280876293
433.45875946836395, 1.014847437987607
456.12326974201505, 0.9188325772270596
464.6224610946342, 0.9116945630898223
480.20431190776935, 0.922945775438808
508.5349497498041, 0.8702904334428353
524.1168005629684, 0.9022333394033564
532.6159919155875, 0.9302690400010336
553.8639702971354, 0.9134103425725549
585.0276719234057, 0.9738779456618744
628.9401605785765, 0.8652977095930259
655.8542665285654, 0.893250144029157
696.9336913995307, 0.6222424158142568
738.0131162705234, 0.8161669699854753
752.1784351915558, 0.731895297026819
814.5058384440968, 0.8889043688422927
842.836476286187, 0.9365004675835076
857.001795207219, 0.9049538142533822
889.5820287255924, 0.8939435247506677
902.3308157545212, 0.9278163094999526
917.9126665676563, 0.9447666189611327
926.4118579202755, 0.9487758666580556
966.0747508991649, 0.9183187254446478
981.656601712275, 0.8446431496067023
1004.3211119859511, 0.9355866099737598
1022.7360265832681, 0.8821530103986492
1055.316260101666, 0.9287984153895695
1077.9807703753172, 0.9063872461502146
1092.1460892963491, 0.898454821627789
1109.1444720015634, 0.8468728409800497
1117.6436633541825, 0.8523054468465122
1161.556152009382, 0.8824013825869476
1174.3049390383107, 0.8755800480072974
1199.8025130961687, 0.8666669479667273
1223.883555261923, 0.8027895420250433
1239.4654060750586, 0.805869015663847
1269.2125758092257, 0.8641385188249671
1291.8770860828772, 0.858544503076839
1340.039170414408, 0.9123810894386363
1362.7036806880592, 0.940252699736312
1376.8689996090911, 0.9396676207522467
1398.1169779906177, 0.8759719483962899
1415.115360695856, 0.855962906701439
1437.779870969507, 0.8901082638127796
1446.2790623221263, 0.8597743861854238
1463.277445027386, 0.9313205260385437
1473.1931682721083, 0.9326253314750855
1493.0246147615321, 0.8594164601752501
1505.7734017904818, 0.9335048571131466
1518.5221888194105, 0.9361399192256346
1541.1866990930616, 0.9171083347131153
1559.6016136904032, 0.9272299784314575
1579.4330601798479, 0.9389324566794557
1600.6810385613958, 0.9306828758089523
1634.6778039718724, 0.9263611805794395
1654.5092504613172, 0.9102931984098456
1684.2564201954651, 0.859559749980699
1723.9193131743546, 0.6232138530072504
1770.664865613779, 0.948395946139536
1790.4963121032238, 0.9628124034765144
1847.1575877873515, 0.9684295445822293
1866.9890342767962, 0.9632264165526925
1915.1511186083048, 0.966400185698883
1942.0652245582655, 0.9660187156112682
2348.609877591882, 0.9585035235196167
2816.065401985936, 0.9168621080820255
2859.9778906411257, 0.8894964224154606
2895.391187943706, 0.8753030653332018
2910.973038756841, 0.8498996241757045
2932.2210171383895, 0.8373678065639344
2950.635931735731, 0.8644557943706677
3027.128653909312, 0.919163920129805
3055.459291751376, 0.9214049352773087
##END=


$$ === CHEMSPECTRA PEAK TABLE AUTO ===
##TITLE=X9369
##JCAMP-DX=5.00
##DATA TYPE=INFRAREDPEAKTABLE
##DATA CLASS=PEAKTABLE
##$CSTHRESHOLD=0.93
##MAXX=3997.453
##MAXY=1.0939100230355914
##MINX=373.96442
##MINY=0.6222424158142568
##NPOINTS=231
##PEAKTABLE= (XY..XY)
3991.786872431587, 0.9248876351168277
3973.3719578342457, 0.9238084931932852
3957.79010702111, 0.9237103242725522
3947.8743837763877, 0.9186659827581982
3943.624788100078, 0.9200731290322676
3930.8760010711494, 0.9178539881767038
3923.7933416106334, 0.9192681681292956
3916.7106821501175, 0.9177922978036496
3901.128831336982, 0.9058220752067065
3891.2131080922595, 0.915531195309763
3881.297384847537, 0.9114301572930962
3869.9651297107116, 0.9071684245805002
3862.8824702501956, 0.9097213513806831
3852.966747005473, 0.9003945357486002
3838.801428084441, 0.9026494389473232
3820.3865134870994, 0.9033413892973615
3800.555066997654, 0.9076773892603813
3779.3070886161063, 0.9194441812479163
3767.9748334792807, 0.9173649916455827
3758.0591102345584, 0.9155110488739605
3749.5599188819388, 0.8979158171094214
3735.394599960907, 0.8961122399179138
3724.0623448240813, 0.9122793445892223
3711.3135577951525, 0.907845056507847
3701.39783455043, 0.921701587596716
3688.649047521501, 0.9064137701682231
3674.483728600469, 0.9019381174554215
3648.9861545426115, 0.8970298537809515
3627.738176161063, 0.9103185905598299
3617.822452916341, 0.9108791718854725
3607.9067296716185, 0.9154312384246897
3595.1579426426897, 0.9195424092580691
3586.6587512900705, 0.9138141046531807
3578.159559937451, 0.9260290043121183
3566.8273048006254, 0.9092784293152595
3551.2454539874902, 0.9235153566943559
3545.5793264190775, 0.9200712218703043
3535.663603174355, 0.927765526218767
3527.1644118217355, 0.9233991278056093
3508.749497224394, 0.9255258222451128
3503.083369655981, 0.9244297522215806
3487.501518842846, 0.9286001102779377
3481.8353912744333, 0.9283872620375532
3466.2535404612977, 0.9293280623851637
3446.422093971853, 0.9287083519071803
3419.507988021892, 0.9256192823503575
3411.0087966692727, 0.927945770343602
3398.260009640344, 0.9268933317438935
3375.595499366693, 0.9301628848395799
3362.846712337764, 0.9293266911031112
3347.2648615246285, 0.9309583089139527
3337.349138279906, 0.9301826736825142
3327.4334150351838, 0.9304484507612929
3309.018500437842, 0.9297247306790642
3292.0201177326035, 0.9292666694967746
3283.5209263799843, 0.9311043993541435
3276.4382669194683, 0.9305100820449275
3256.6068204300236, 0.9320027011647374
3241.024969616888, 0.9321461692572287
3228.2761825879593, 0.9325015921173258
3216.9439274511337, 0.9326879163397016
3201.362076637998, 0.93402085547155
3182.9471620406566, 0.9336659684913636
3170.198375011728, 0.9361076737217364
3160.2826517670055, 0.9346252465080588
3136.2016096012508, 0.9358392141870554
3124.869354464425, 0.9361396808303891
3114.953631219703, 0.9351634166430677
3105.0379079749805, 0.9339931985667344
3092.2891209460513, 0.9334113379184821
3080.9568658092257, 0.9325713298580869
3055.4592917513683, 0.9214049352773087
3025.7121220172007, 0.9180749428742149
3001.6310798514464, 0.9346831816466066
2993.1318884988273, 0.9360343600522942
2950.635931735731, 0.8644557943706677
2932.2210171383895, 0.8373678065639344
2915.2226344331507, 0.8503740174698702
2910.973038756841, 0.8498996241757045
2895.391187943706, 0.8753030653332018
2859.9778906411257, 0.8894964224154606
2833.063784691165, 0.9156578555186705
2817.48193387803, 0.9167740719780052
2789.1512960359655, 0.9285233989668569
2772.1529133307267, 0.931053556983538
2748.0718711649724, 0.9332992218571101
2729.656956567631, 0.9346009872448816
2722.574297107115, 0.9347005865370869
2708.408978186083, 0.9347760457637377
2699.909786833464, 0.9353039047949915
2678.6618084519155, 0.9359107398921571
2658.8303619624703, 0.9370868587602056
2643.248511149335, 0.9378320955415064
2617.7509370914777, 0.94113025912299
2609.2517457388585, 0.9406732106111018
2592.25336303362, 0.9417936590954338
2576.6715122204846, 0.9443216705361231
2569.5888527599686, 0.9441633007032282
2565.339257083659, 0.9440154813881168
2554.007001946833, 0.9449570560108832
2544.0912787021107, 0.9449506183204743
2532.759023565285, 0.9453629636487176
2521.4267684284596, 0.9445922756280127
2505.8449176153244, 0.9456221247500449
2498.7622581548085, 0.9465127378045832
2483.1804073416733, 0.9482890156841431
2469.015088420641, 0.9468552852838624
2459.0993651759186, 0.9471876408570092
2440.6844505785766, 0.9482691667330059
2433.6017911180606, 0.9487182880935929
2420.853004089132, 0.9478887704427785
2413.770344628616, 0.9482078930422394
2403.8546213838936, 0.948954442016173
2388.2727705707584, 0.9494998241167466
2348.6098775918686, 0.9585035235196167
2337.2776224550425, 0.9639611629244125
2323.1123035340106, 0.9581644327713957
2307.5304527208755, 0.9521148589910549
2301.8643251524627, 0.9522628576119918
2289.115538123534, 0.9513594893930415
2282.032878663018, 0.952449897020104
2267.867559741986, 0.9537129792135685
2257.9518364972632, 0.9553056744160745
2242.369985684128, 0.9540639306346396
2226.7881348709925, 0.9576837810926467
2215.455879734167, 0.9611515190835591
2204.1236245973414, 0.9601076637314682
2189.9583056763095, 0.9626160055268457
2170.1268591868647, 0.9630691796066047
2151.7119445895232, 0.9678534655280695
2141.7962213448004, 0.9600500851670054
2124.797838639562, 0.9612852720604088
2114.8821153948393, 0.960670509811942
2104.966392150117, 0.9603885799271128
2090.801073229085, 0.9638353972070667
2082.301881876466, 0.9634081511572028
2072.3861586317435, 0.9646521006040494
2062.470435387021, 0.9663136991639577
2058.2208397107115, 0.9663382559118001
2049.7216483580924, 0.9682932293658831
2041.222457005473, 0.972892025448331
2028.473669976544, 0.9719139732966691
2019.9744786239248, 0.9720705541464404
2012.8918191634086, 0.9669233950040682
2001.559564026583, 0.9692411214626527
1987.3942451055511, 0.9691943318112191
1974.6454580766222, 0.9735505372994612
1967.5627986161062, 0.9706686535865531
1943.4817564503514, 0.9654008542246112
1936.3990969898355, 0.9691265613406239
1922.2337780688035, 0.9654032982852682
1916.5676505003908, 0.9651845482343854
1908.0684591477716, 0.9672180800533094
1895.3196721188428, 0.9680733474469764
1889.6535445504296, 0.9675859004849503
1878.321289413604, 0.9706194198744624
1868.4055661688817, 0.9608696493069329
1861.3229067083657, 0.9719954525126577
1844.3245240031274, 0.9650780945694833
1837.2418645426114, 0.972511926642769
1828.7426731899918, 0.9646448886384844
1810.3277585926503, 0.9669578461733779
1800.412035347928, 0.9631610310533344
1791.9128439953088, 0.9602198989904627
1780.5805888584828, 0.9662148150574886
1770.6648656137604, 0.948395946139536
1723.9193131743546, 0.6232138530072504
1684.2564201954651, 0.859559749980699
1653.0927185691944, 0.9047346485389948
1647.4265910007816, 0.9114492900397142
1636.094335863956, 0.9228884953777935
1623.3455488350273, 0.9385916971645171
1616.262889374511, 0.9408523819573326
1599.2645066692726, 0.9290056012334841
1576.5999963956215, 0.9352848912459961
1569.5173369351055, 0.9435692808786773
1558.1850817982795, 0.9202991501381349
1541.1866990930412, 0.9171083347131153
1521.3552526035965, 0.9334145562542949
1507.1899336825645, 0.9254825484141572
1493.0246147615321, 0.8594164601752501
1471.7766363799842, 0.9316409007224344
1464.6939769194682, 0.9264454624677363
1457.6113174589523, 0.930970527179671
1446.2790623221263, 0.8597743861854238
1437.779870969507, 0.8901082638127796
1415.115360695856, 0.855962906701439
1398.1169779906177, 0.8759719483962899
1374.035935824863, 0.9370670098090683
1362.7036806880374, 0.940252699736312
1342.8722341985927, 0.9062860381994944
1328.7069152775603, 0.9402391692779608
1291.8770860828772, 0.858544503076839
1269.2125758092257, 0.8641385188249671
1239.4654060750586, 0.805869015663847
1223.883555261923, 0.8027895420250433
1199.8025130961687, 0.8666669479667273
1174.3049390383107, 0.8755800480072974
1161.556152009382, 0.8824013825869476
1117.6436633541825, 0.8523054468465122
1109.1444720015634, 0.8468728409800497
1092.146089296325, 0.898454821627789
1077.980770375293, 0.9063872461502146
1055.3162601016415, 0.9287984153895695
1038.3178773964032, 0.9320713661268943
1022.7360265832681, 0.8821530103986492
1005.7376438780293, 0.9353377008867677
981.656601712275, 0.8446431496067023
966.0747508991399, 0.9183187254446478
927.8283898123532, 0.9454003356691749
917.9126665676308, 0.9447666189611327
902.3308157544952, 0.9278163094999526
889.5820287255665, 0.8939435247506677
857.001795207193, 0.9049538142533822
842.8364762861606, 0.9365004675835076
814.5058384440968, 0.8889043688422927
752.1784351915558, 0.731895297026819
738.0131162705234, 0.8161669699854753
696.9336913995307, 0.6222424158142568
655.8542665285377, 0.893250144029157
628.9401605785765, 0.8652977095930259
586.4442038154807, 0.9733103306577093
553.8639702971068, 0.9134103425725549
534.0325238076621, 0.9295497312496279
522.7002686708365, 0.8950648667077785
508.5349497498041, 0.8702904334428353
481.62084379984344, 0.9227946776796807
466.03899298670785, 0.9046102530849185
456.1232697419855, 0.9188325772270596
432.0422275762312, 1.0121266055447131
386.71320702892854, 0.9952163505598927
##END=

##END=

