##TITLE=X8743
##JCAMP-DX=5.0
##DATA TYPE=LINK
##BLOCKS=1


$$ === CHEMSPECTRA SPECTRUM ORIG ===
##TITLE=X8743
##JCAMP-DX=5.00
##DATA TYPE=INFRARED SPECTRUM
##DATA CLASS=XYDATA
##ORIGIN=ComPlat
##OWNER=
##XUNITS=1/CM
##YUNITS=TRANSMITTANCE
##XFACTOR=1
##YFACTOR=9.3624908e-010
##FIRSTX=3997.453
##LASTX=373.96442
##MAXX=3997.453
##MAXY=1.0052897939412728
##MINX=373.96442
##MINY=0.4514056452599798
##NPOINTS=2559
##XYDATA= (X++(Y..Y))
2559A014523173A014255533A013671869A013199169A013206299A013682373A014335876
2552A014844991A015031652A014920496A014658458A014349182A013989230A013570453
2545A013208973A013096480A013289316A013646085A014025200A014369745A014595686
2538A014670363A014752807A015014081A015451320A015995704A016501254A016603115
2531A016037149A015134213A014539662A014436273A014482938A014469887A014559207
2524A014812205A014966206A014887073A014770187A014714736A014535842A014199191
2517A013978534A014040351A014258080A014459892A014598933A014678703A014750197
2510A014928326A015260012A015605894A015741242A015610032A015357926A015081500
2503A014740838A014370000A014184676A014328937A014725750A015186608A015514346
2496A015584440A015449665A015359963A015565341A015887349A015705400A014759619
2489A013628068A013035682A013123537A013687403A014545201A015421971A015945856
2482A016062296A015981634A015891360A015964318A016189877A016155881A015572598
2475A014972127A014935966A015121544A014807939A014012467A013575292A013931424
2468A014535142A014773879A014556788A013941228A013268307A013262514A014178246
2461A015491491A016576758A017168508A017069639A016033775A014738546A014155518
2454A014400431A015212073A016180964A016732733A016464265A015626967A014884717
2447A014620897A014774452A015117597A015430948A015565977A015592525A015776957
2440A016181091A016454334A016276077A015855199A015596918A015450683A015131794
2433A014865300A014969134A015208826A015240785A015201951A015344238A015631996
2426A015917271A016172879A016509275A016977964A017438950A017633377A017466898
2419A017205306A016982357A016634692A016099157A015594371A015372950A015539812
2412A016055420A016748585A017321364A017411001A016913028A016225528A015897917
2405A016114882A016630554A017179076A017675331A018021214A018091816A017933868
2398A017811316A017908593A018093726A018158471A018134725A018229201A018467493
2391A018526127A018045215A017149027A016286199A015805287A016002261A016989042
2384A018104867A018616592A018686049A018530519A017946791A017077788A016527419
2377A016553139A017055124A017810998A018429104A018446102A017902609A017276545
2370A016825554A016528438A016341905A016346298A016724584A017569969A018679555
2363A019601399A019984970A019853951A019525321A019333122A019316442A019087445
2356A018489711A018151341A018517596A019275316A019794426A019692564A019186442
2349A018801597A018636200A018514858A018521670A018786828A019048038A018889580
2342A018338447A017886566A017774137A017850660A018062786A018473286A019107181
2335A019842682A020313345A019937923A018429295A016832876A016514814A017283548
2328A018275166A019048674A019791815A020566151A021004664A020839458A020315700
2321A019999167A020200533A020678581A020816730A020352116A019754318A019573960
2314A019927163A020329961A020097845A019353430A018679428A018454760A018805481
2307A019554161A020212184A020290490A019687344A018779634A018166175A018213668
2300A018801088A019366927A019365908A019031422A018853101A018992269A019430527
2293A019978540A020257958A020144000A020046214A020317992A020952969A021766267
2286A022417224A022465735A021823182A020994223A020371978A019839690A019372593
2279A019262710A019583318A020042267A020558703A021276569A022058163A022629222
2272A022995349A023195698A023066143A022642082A022311543A022221141A022190710
2265A021986605A021426305A020566597A019832178A019698549A020232874A021020580
2258A021502065A021388235A020901084A020657763A020928331A021268229A021298533
2251A021113846A021057632A021351437A021813059A022019201A021760792A021232514
2244A020780569A020529418A020371278A020217977A020122610A020136870A020140945
2237A020010499A019882854A020041694A020476577A020763507A020596901A020240005
2230A020171185A020513120A020984164A021295350A021379258A021247157A020922474
2223A020573536A020433668A020538585A020711686A020761152A020567998A020117771
2216A019620116A019446251A019765459A020389932A021041334A021469151A021429425
2209A020975379A020571563A020563668A020835956A021103087A021254988A021315786
2202A021244674A020935653A020397507A019909338A019886419A020445064A021196035
2195A021633083A021680194A021669053A021825219A022064657A022145191A021819744
2188A021075521A020335245A020078682A020238795A020379618A020387449A020473967
2181A020664447A020852572A021165986A021727623A022241449A022283849A021877487
2174A021399057A021056358A020804379A020618674A020484217A020272091A019982168
2167A019893167A020189456A020689212A021117666A021371428A021469851A021534151
2160A021751815A022106356A022281112A022038109A021568338A021319606A021532241
2153A022001248A022303012A022234765A021972409A021804529A021855523A022058736
2146A022301420A022584785A023026863A023669225A024297263A024544276A024221121
2139A023530057A022867832A022445999A022232346A022181033A022264814A022314089
2132A022106738A021656321A021232260A021077813A021212206A021502383A021804401
2125A022020029A022090377A022002394A021790459A021514543A021307637A021396129
2118A021910528A022632405A023093645A022993821A022439888A021802364A021450115
2111A021564200A022017164A022481778A022822822A023248029A023858941A024290769
2104A024116968A023418264A022667420A022211400A022056635A022047276A022102727
2097A022208981A022220631A021915876A021372765A021033058A021180502A021546247
2090A021631492A021308592A020901466A020732185A020814311A021035095A021373210
2083A021776644A022074970A022185808A022240813A022409966A022668566A022700461
2076A022097889A020829208A019396912A018345005A017796801A017594606A017601800
2069A017676222A017518847A016782836A015454949A014065689A013243351A013021421
2062A012903071A012614422A012351621A012227095A011981673A011459762A010940079
2055A010698414A010548487A010109847A009292347A008261703A007145114A005983705
2048A004835157A003801966A002975172A002298304A001542813A000587037I99643038
2041I98997366I98598579I98054131I96966318I95236078I93111127I90961028I89004721
2033I87176949I85116934I82399788I79038432I75629139I72737746I70274488I67707204
2025I64666139I61157085I57415660I53760117I50483880I47823266I45976077I45037681
2017I44899150I45330278I46164966I47308103I48623513I49951337I51262290I52692867
2009I54381216I56323454I58416701I60557123I62646168I64599802I66405928I68097524
2001I69641803I70925890I71904776I72747168I73755976I75077370I76540160I77870785
1993I78976997I79910046I80720988I81522699I82493882I83671906I84916013I86130453
1985I87320574I88453716I89472391I90385322I91248913I92175214I93301225I94542276
1977I95564008I96229479I96808114I97506564I98125370I98411855I98475709I98648810
1969I99076117I99571544I99870252I99962373A000083142A000425714A001027905
1962A001854190A002786283A003662289A004511621A005536599A006642365A007248057
1955A006904403A005987398A005460839A005909856A007006837A007964523A008306395
1948A008125591A007830067A007795816A008133231A008636616A008986446A009000643
1941A008676724A008129347A007537025A007043889A006736905A006741871A007118630
1934A007591902A007677975A007174972A006302022A005362798A004469157A003534263
1927A002418246A001204825A000320861A000151198A000495616A000590411I99766481
1920I98057951I96155439I94868550I94664701I95526064I97011964I98498437I99559130
1912A000151899A000411199A000407634A000167878I99717970I99045623I98229078
1905I97599448I97554693I98210616I99349805A000588310A001535683A001993358
1898A002081595A002043906A002006218A002033465A002192369A002414172A002561870
1891A002718355A003083654A003565649A003816482A003703034A003460286A003414003
1884A003717358A004258177A004689368A004677209A004226091A003685526A003387773
1877A003348875A003356642A003212636A002821362A002243236A001773910A001704581
1870A001892961A001899518A001621373A001415359A001548606A001895953A002213123
1863A002426650A002646351A002986695A003340472A003381725A002910108A002077584
1856A001177322A000372937I99655771I98839290I97601040I95722975I93270858
1849I90420018I87169055I83263634I78356472I72343670I65668326I59230126I53881078
1841I49900852I46750222I43235312I38082091I30562508I20702983I09034594H96197858
1833H82649940H68633524H54382509H40283967H26804869H14245195H02468197G90952154
1825G79416058G68528499G59847507G54942637G54439952G57607580G62686124G67817126
1817G71938174G74922070G76994881G78179718G78234404G76813696G73524662G68087694
1809G60735546G52312581G43754842G35593661G28050395G21377915G16025620G12666875
1801G12108803G14996758G21466025G30978395G42420779G54455295G65982988G76429997
1793G85693062G93878498H01078237H07335951H12778648H17648504H22121546H26188799
1785H29785390H32905462H35585111H37975347H40414222H43153205H46033521H48734943
1777H51287457H53995563H56955649H60008556H63033897H65902180H68215384H69377938
1769H68848833H66200315H61097134H53465312H43889789H33962972H25930072H21368538
1761H19978324H19817447H18741729H15679336H10930059H05637289H01004070G97861079
1753G96784279G98307040H02773271H10035527H19465898H30228614H41475106H52439443
1745H62583288H71657018H79544765H86170326H91646382H96348358I00689999I04876366
1737I08879256I12565039I15870498I18927861I21984842I25160619I28343781I31363264
1729I34210539I37044826I39986959I42934121I45631086I47947982I49998575I51922033
1721I53680220I55199225I56573396I57933370I59190209I60078885I60472323I60585708
1713I60840488I61497938I62452887I63447879I64386594I65317477I66270325I67267291
1705I68341672I69417835I70340316I71107330I71898601I72803064I73668184I74315066
1697I74774715I75195847I75605838I75922244I76139909I76323514I76448230I76444410
1689I76396917I76551492I77048447I77714046I78217177I78447319I78610679I78904740
1681I79250622I79408507I79245847I78884240I78638245I78753667I79190015I79736818
1673I80241540I80597736I80694631I80591179I80580738I80908031I81527792I82219493
1665I82823721I83300559I83665413I83957181I84259136I84705734I85418571I86400194
1657I87498194I88489303I89179413I89469781I89446926I89383963I89520966I89858763
1649I90261433I90642076I90915573I90949887I90752149I90562687I90618838I90930852
1641I91355931I91775663I92181198I92676625I93386980I94275909I95113908I95714062
1633I96107246I96384945I96529079I96533535I96527551I96621772I96780930I96937160
1625I97062067I97106377I97052390I96996494I97017121I97034183I96952184I96857008
1617I96900426I97042522I97103257I97103703I97325060I97888416I98481948I98729407
1609I98656958I98575088I98634804I98721386I98671728I98443305I98115375I97822397
1601I97665276I97646623I97716143I97877402I98184132I98612394I99009271I99234639
1593I99337009I99552382A000068118A000768159A001295927A001452093A001453430
1586A001739023A002589309A003884347A005118076A005761139A005765914A005621844
1579A005868793A006665793A007748769A008667174A009209840A009647397A010326366
1572A011097773A011474723A011232866A010555681A009772814A009196152A008997650
1565A009085378A009223782A009288528A009342259A009548019A009998946A010542057
1558A010886475A010969619A011051617A011399919A012016434A012662488A013076108
1551A013204390A013203053A013237303A013444846A014006674A014930491A015812609
1544A016165112A015934651A015443362A014919095A014383942A013928368A013753103
1537A013841977A013879220A013651560A013290208A012984688A012727234A012420504
1530A012019617A011554048A011129668A010840765A010724516A010912067A011569008
1523A012512498A013247426A013493484A013338146A012966225A012665608A012869203
1516A013722545A014772861A015379953A015284331A014733007A014269221A014314676
1509A014741411A015042856A015051642A015137778A015551844A016010347A016123858
1502A015891424A015652941A015749773A016226611A016757817A016981848A016929007
1495A016944477A017237264A017655214A017870332A017765860A017674758A018070871
1488A018960756A019806522A020097144A019774754A019122906A018449858A017887903
1481A017433347A017175447A017338234A017944627A018560250A018667523A018346851
1474A018295793A018980937A020062511A020939282A021510150A022031615A022573580
1467A022993121A023142984A022881392A022207262A021480674A021154463A021284782
1460A021631301A022140543A022924174A023813868A024360353A024324192A023866899
1453A023264518A022723444A022457331A022645838A023204228A023747912A023937438
1446A023879186A024009759A024494173A024981451A025125012A025044733A025051099
1439A025182054A025223945A025055619A024827450A024818792A025168494A025755151
1432A026290240A026495554A026297307A025908006A025609362A025442118A025228083
1425A024867112A024471572A024216792A024148291A024168408A024188653A024272179
1418A024631558A025486619A026814889A028180720A029048068A029410057A029778540
1411A030369462A030783910A030702739A030309873A029809607A029107975A028207522
1404A027457760A027196168A027401164A027782506A028051292A028069437A027877683
1397A027649196A027560895A027680581A027963501A028314094A028681495A029064238
1390A029338690A029250581A028726568A028071983A027728584A027754240A027615008
1383A026783503A025579249A024938288A025296011A026323472A027659636A029299474
1376A031214337A032906696A033638760A033247868A032424766A031863065A031505469
1369A031051104A030661612A030581078A030683067A030901368A031449827A032300113
1362A033046947A033408108A033391046A033069674A032645104A032519879A032855257
1355A033244876A033200439A032785609A032422092A032258859A032131151A032015984
1348A032158972A032757406A033680650A034484462A034769546A034674497A034802588
1341A035421521A036061019A036228262A036122836A036193757A036392640A036421735
1334A036356225A036461015A036751064A037183529A037849319A038689228A039493358
1327A040261455A041036046A041497286A041256448A040432009A039659201A039635964
1320A040601863A042085980A043368603A044259188A045092030A046025970A046785791
1313A047103470A047044582A046832201A046603841A046511848A046800433A047393838
1306A047696684A047276889A046424311A045656851A045197966A045199494A045804677
1299A046826472A047980431A049286037A050649576A051455234A051275831A050621373
1292A050249962A050093924A049622306A049099376A049588565A051491459A053786837
1285A055004396A054551496A052982452A051317022A050146000A049306919A048566515
1278A048464145A049845446A052397259A054441677A054756746A054071220A054100124
1271A055460416A057371141A058978892A059909330A059926837A059137604A058231231
1264A057680544A056933519A055141272A052813362A051813404A052945463A054806849
1257A055630142A055111987A054021499A052939797A052039918A051409333A050956497
1250A050522313A050348322A050813445A051639285A052095114A052103708A052342000
1243A053085841A053801798A053989159A053534157A052353905A050641045A049285528
1236A049058823A049496062A049486322A048775394A048040784A047647282A047164396
1229A046233003A045286331A045012069A045470572A046206328A046917765A047474245
1222A047604309A047189607A046672407A046702392A047469279A048550472A049341806
1215A049723085A050291725A051637184A053408422A054521701A054351912A053299686
1208A052144644A051338540A051037285A051326826A052135922A053160773A054063581
1201A054699959A055172021A055661210A056143586A056308283A055796112A054599562
1194A053341067A052864293A053190885A053391042A052960424A052553935A052853534
1187A053749084A054972628A056369782A057548506A058476080A059952366A062237940
1180A064272235A065316949A066000310A067020386A068039443A068299126A067611054
1173A066608994A066109747A066224914A066585566A067317821A068833388A070516644
1166A070688025A068513793A065332928A063313403A063087781A063294368A062467446
1159A060902667A060292710A061918287A065423903A069071361A071155440A071206626
1152A069874536A068047147A066389165A065381376A065343369A066357333A068236094
1145A070513206A072438637A073146317A072302520A070722780A069869311A070396060
1138A071357762A071363365A070348827A069419725A069264128A069748228A070797903
1131A072388725A073741823A073715976A072053469A069754213A068311344A068414861
1124A069230774A069363066A068334523A066736384A065252331A064079463A063263619
1117A062967839A063231469A063842508A064491937A064825851A064536438A063676793
1110A062716624A062121436A061975584A062013846A061940315A061724114A061653002
1103A061957567A062335409A062192548A061365181A060153861A058703612A056850439
1096A054657050A052747407A051840906A051981538A052589013A053161345A053698982
1089A054511834A055686166A056870366A057615034A057991984A058650326A059967136
1082A061460421A062329424A062341775A061986789A061815089A061898933A061955212
1075A061698522A061032477A060102866A059208334A058669489A058777907A059715666
1068A061314887A062927859A063836588A063904453A063560162A063239681A063067727
1061A062946576A062840895A062934607A063372101A063909036A064040501A063601479
1054A062867570A062123792A061591631A061425406A061565465A061826739A062181598
1047A062805625A063779354A064784915A065267037A065002007A064367221A063974610
1040A064152294A064716859A065179309A065395573A065635583A066066392A066632168
1033A067249064A067862651A068394111A068829950A069239172A069567292A069526044
1026A068827658A067596220A066522922A066157940A066250125A066095932A065220435
1019A063684942A061908801A060360257A059426253A059368447A060180153A061487605
1012A062734131A063495034A063611984A063125979A062222661A061168461A060178307
1005A059422625A059096287A059386655A060296212A061440685A062351070A062897491
998A063184294A063343134A063498727A063780246A064199914A064537074A064525106
991A064099071A063361342A062460189A061548467A060731668A060036593A059460504
984A058998245A058613911A058231167A057844668A057664819A057814491A057949139
977A057615034A056845155A055971441A055045905A053891181A052490590A051032893
970A049624025A048225853A046803935A045414166A044111871A042934547A042070701
963A041767282A042122905A042994136A043912669A044517342A044834194A045042628
956A045331595A045820147A046536677A047361243A048068987A048532455A048796339
949A049038514A049448506A049966406A050361564A050551344A050617617A050502069
942A049902679A048753940A047506713A046409159A045076624A043231218A041630151
935A040994410A040937941A040799346A040392092A039612536A038238492A036482278
928A034844924A033195473A031178176A029667384A029305204A029319464A028948053
921A027663265A025147230A021817962A018244990A013647931A006375680I96441351
914I85992240I75202532I61648565I44122904I26514099I14278280I07928000
907I04995735I02733335H95806966H76684376H52792647H34719482H16054440
900G88045609G53206795G25041480G06726968F93383281F82518896F73685367
893F65664627F56113551F45105986F35466863F27568611F20855196F16294807
886F14836728F14920318F13543028F09272498F03829482E99951055E98365776
879E98885077F02010878F07614516F14385547F21752911F29813313F38342723
872F46721695F54430740F61200689F66863151F71233760F74169972F75898492
865F77185636F79042310F82290599F87196806F93262767F99433198G04541473
858G07627994G08233176G06699529G04125052G01910144G01162929G02326311
851G05596627G11399276G18912748G25682569G30755192G34476053G36963885
844G38643257G40830790G44427317G49032079G53530523G56784542G56787916
837G52180162G47382246G45132897G45191212G48227121G55104660G65450763
830G77417287G89392914H01263943H13086842H24331552H35895788H48695599
823H59122364H65607737H70549087H76031573H82197485H87420481H90890509
816H93126234H94690631H95857960H96855372H97966104H99498797I01556520
809I03945228I06550582I09278043I11644914I12916333I12553452I10110248
802I04180973H92794103H80104047H72349292H67753634H63954021H61444608
795H62845708H70813926H83977636H97480863I09142058I20137462I31860156
788I43398544I52160515I57205826I58902897I56850013I49626718I35482912
781I12371312H78385394H33801140G81318442G25905390F79914687F55298152
774F49482515F54991550F68422328F87141037G05371323G19183444G29679983
767G39917732G52382802G64728504G71598467G72784004G70511226G67299353
760G66847025G72905537G85388369G99591255H10568770H16172344H17550526
753H17862412H19544713H21757393H21022337H16504348H10837238H07264903
746H07040490H07465442H04127006G94317456G78602696G59847125G39658495
739G19760487G07484369G09180931G21918607G40506617G61599901G82066995
732G98300356H07292151H07962206H02734436G98173602H00649720H11976492
725H29906732H49300400H65143887H75912332H82256628H84800738H83873674
718H79360460H71264470H61965500H56262993H56822466H62163493H68575272
711H72104952H69868272H59781151H39632374H09782147G77522713G52722827
704G40001449G38185837G42935751G50713807G61427374G74978603G87421136
697G96003641H03459879H12287168H20618712H26553335H33077416H44588429
690H60530276H75540603H84389474H84771772H76716972H61585940H41712506
683H20470695H01334354G85032556G69305699G52877911G38174696G30198138
676G33134605G47639700G70846986G98347530H25945606H50421255H69790157
669H83110161H90011447H90596003H85342640H74521482H58114320H36669932
662H11786457G85612591G60198546G36941730G16134357F97326709F80505864
655F66836349F58089785F55393137F58522504F66185393F76858406F89510647
648G03720663G19167464G35119752G50588263G64819861G77317908G87655608
641G95929473H03358845H11562999H20754315H29281177H35707917H41046589
634H48081949H58395457H70721296H82192838H90493250H94992777H96767835
627H97935355I00502257I05311505I11942349I19364909I26467180I32342468
620I36622675I39589891I41829245I43830308I45840602I47683971I48514649
613I46893974I41012319I28708253I08211874H80389195H49951229H22093980
606G96779568G67901543G29387069F81319289F29709861E81688492E41739812
599E11532944D91606861D82142685D82324093D89942131E02232159E17075433
592E33399960E50520691E67083764E80740737E89071390E91003760E87707596
585E82631090E80483347E85131654E97677322F16454157F38844452F62914758
578F87577958G11967280G35148591G56275109G74741203G90165849H02190498
571H10120454H12718487H08494558G96346913G76148606G49020874G17097263
564F82866497F48691181F16794882E89204191E67338862E51725836E42295974
557E38878850E41126098E47976199E57694010E68744929E80478508E93014563
550F06809240F22170860F38568663F54225617F67004293F76501829F85314412
543F97315823G14096433G33533710G51967336G66894263G77206243G81694883
536G78331745G65796391G46235098G25685752G09821892F98419998F84819812
529F61782762F28324867E91171067E59919358E40861132E34653648E38286846
522E48145543E61621968E77168975E93862939F11147126F28624784F45714352
515F61541733F75314382F86722324F96089605G04431272G13089153G22748840
508G32888165G42472856G50914473G58113957G64016240G68594326G72149791
501G75292781G78539415G82004223G85458144G88520537G90718064G91602347
494G91198340G90393382G90530130G92244454G94574210G95319834G92739754
487G87480152G82816247G82372578G87318129G95972382H05809434H15217651
480H23621643H30864546H36740981H40659771H41614401H38935898H33370585
473H26816010H20020087H10685529G95234907G73268545G49650376G31424356
466G22629344G21860801G23971683G23927564G20350709G16709809G18830495
459G30069857G48363169G67849976G83047600G91785251G95500192G97611710
452H01170613H07236191H14959560H22873027H29913799H35214909H37437393
445H35632922H31468137H29228719H32094074H39066981H46491578H51487996
438H53059650H51459347H48112253H45474494H45605640H48721001H53374210
431H57862532H61451356H64611217H68232827H72527167H76749249H80021348
424H82194111H83796706H85425657H87338482H89386083H91193928H92597447
417H93998166H96079954H99100074I02601679I05754537I07788195I08103583
410I05726589H98178803H81772151H55268510H23811487G97178355G82865777
403G81613458G89333007H01324232H14155111H25473416H33888231H39503074
396H44181239H50377836H58979567H68459850H76370135H81130553H82092441
389H78805699H71551655H62814195H57024533H57580822H64177288H73666166
382H83133908H91494291H98768006I05021519I10166272I14172281I17125746
375I19092685I19952648I19264639I16402086I11401211I05918152I02502683
368I02212378I03632833I04995035I06465783I09423640I14194245I19643181
361I24627057I28837680I32387415I35377231I37881488I39938065I41554029
354I42664698I42854860I41542061I39063460I37176163I37682923I40666118
347I44557533I47796910I50033335I51808330I53511576I54923245I55631244
340I55516713I54678587I53125841I50735414I47294734I42200020I34191885
333I22050925I06151859H89415177H76415590H70719386H71985775H75464971
326H74924215H65993027H46967843H18986960G87652170G62486157G51053450
319G52850281G60218091G64910772G62784165G53466987G38127522G18357031
312F96017220F72936879F50231004F27878588F05445192E83825603E66169814
305E56292591E55542129E61310654E69007858E75459363E80316103E84891707
298E90442887E97419359F05661456F14868051F24770103F35087558F45718809
291F57069390F70027532F85466503G03552719G23376241G43369170G62189869
284G79212272G94332799H07449908H18009092H24851999H26370367H21130755
277H09644698G96339082G88013523G87717170G90284263G85901177G68943392
270G43610900G21656951G14368466G25144996G48463375G75019920G97262072
263H11112582H15020740H09164678G96023504G81269231G71691734G69412335
256G68658372G61024895G44279555G23810933G05150221F87842415F68702382
249F49524533F38604824F43994681F66208566F97376367G27233978G50336347
242G67872449G83704922G99747930H14968664H27604606H36949223H42773836
235H43982483H39282417H30004710H21145653H17559312H18826146H19764924
228H17150212H14260474H17185227H27943995H42880854H56860218H67284627
221H74389826H79484094H83604061H87187091H90480518H93945134H97985967
214I02519936I07113365I11432916I15530791I19619626I23068709I24082036
207I22192894I17637471I08244534H89605084H58601598H18835569G82594572
200G64131788G67736910G84045139G99110725H04363578G96952478G75552272
193G41682668G04191580F77069514F70156832F83103070G08261061G37348793
186G65125953G89048241H08044650H22064122H31852790H38988738H45855646
179H54308850H63904237H72466305H78566516H82410311H84586130H85075764
172H83448022H79471744H73625485H67199828H61828879H58925899H59373261
165H63179367H69308418H76295203H83135308H89445226H95201656I00778046
158I06842796I13653744I20496587I26247860I30549457I33677232I35107745
151I33686590I29983491I27039703I27510875I31199013I36110632I40339462
144I41929324I38895962I31600919I23986414I20512885I21791879I23690571
137I21122778I11949670H96852443H77494555H56099824H35663862H19282166
130H08916264H04561889H04513187H06813085H10620592H16015287H22705593
123H29593382H35884264H42152610H49791498H59429984H70214091H80887487
116H91315907I02212315I13329380I22750265I28404770I29685674I26640089
109I17619836H98819765H67063397H22919947G72185060G26310161F98588642
102F95007776G09806868G32684060G56788616G79177448G98945201H16590676
95H32827856H47223642H58750952H67117511H73147693H78372789H84004248
88H90032456H95347763H98389083H97371171H90652727H78491330H64513175
81H54434585H52733249H59188319H68348885H73510000H70804440H60311402
74H46161611H34789511H30549476H32960658H38161053H43261433H48405104
67H54109011H59271845H63042236H66885331H73042776H81852239H91609012
60I00031594I05816545I09808739I14083598I19726325I25585125I29815356
53I32477116I35090046I37352192I36252091I30654501I24938116I24632214
46I30635784I38955933I44522137I45860210I45583148I46818087I50470893
39I55425739I59970211I62411123I61922572I58929572I52515692I39745930
32I23713554I13457470I10566586I11930126I16349946I24291170I35254807
25I47079680I56841864I61505323I59077780I50368459I39254259I31686037
18I33217774I42505031I53078985I64058155I77143751I89373458I95138610
11I93615785I90307780I90488711I94002157I98930583A005831805A014496308
4A022678943A028387880A029093778A020977098
##END=


$$ === CHEMSPECTRA PEAK TABLE EDIT ===
##TITLE=X8743
##JCAMP-DX=5.00
##DATA TYPE=INFRAREDPEAKTABLE
##DATA CLASS=PEAKTABLE
##$CSTHRESHOLD=0.93
##MAXX=3997.453
##MAXY=1.0052897939412728
##MINX=373.96442
##MINY=0.4514056452599798
##$CSSOLVENTNAME=- - -
##$CSSOLVENTVALUE=0
##$CSSOLVENTX=0
##NPOINTS=43
##PEAKTABLE= (XY..XY)
399.4619940578573, 0.872290194990096
415.04384487099287, 0.8525171284212408
439.12488703674717, 0.8656860596958631
474.5381843393275, 0.7776011827994821
485.870439476153, 0.7983707198616609
517.0341411024233, 0.650700390872846
553.8639702971068, 0.7532247311766179
609.1087140891318, 0.8041685827269229
641.6889476075057, 0.6274337174157145
655.8542665285377, 0.715417683513755
694.1006276153244, 0.7623506196628639
699.7667551837371, 0.7654391537054329
723.8477973494914, 0.5978931789535619
752.1784351915558, 0.6688268190735113
803.1735833072712, 0.5201258071774914
825.8380935809223, 0.703173101593326
838.586880609851, 0.8152102240806649
893.8316244018761, 0.8446955088671122
919.329198459734, 0.8023884305586796
943.4102406254883, 0.7317848809681187
1025.5690903674745, 0.6710188993032257
1031.2352179358872, 0.6758415108243131
1059.5658557779511, 0.7324956063697282
1114.8105995699761, 0.5005689860586439
1161.556152009382, 0.504524827543958
1199.8025130961687, 0.5434769995840707
1218.2174276935102, 0.4514056452599798
1297.54321365129, 0.6136112215545639
1331.5399790617666, 0.683647334920213
1368.3698082564501, 0.6911258107602799
1403.7831055590304, 0.7472893005527862
1417.9484244800624, 0.6623815895906305
1449.1121261063327, 0.717959821656987
1468.9435725957778, 0.6080774071448362
1500.107274222048, 0.8065267217109606
1555.352018014073, 0.6976299892939848
1580.849592071931, 0.6564631472063553
1619.0959531587177, 0.5602194072834861
1627.595144511337, 0.5756403209402102
2855.728294964816, 0.7459885481722133
2923.7218257857703, 0.6667112116686512
2952.052463627834, 0.7063437109752442
3229.6927144800625, 0.884660959880282
##END=


$$ === CHEMSPECTRA PEAK TABLE AUTO ===
##TITLE=X8743
##JCAMP-DX=5.00
##DATA TYPE=INFRAREDPEAKTABLE
##DATA CLASS=PEAKTABLE
##$CSTHRESHOLD=0.93
##MAXX=3997.453
##MAXY=1.0052897939412728
##MINX=373.96442
##MINY=0.4514056452599798
##NPOINTS=66
##PEAKTABLE= (XY..XY)
3229.6927144800625, 0.884660959880282
3088.0395252697417, 0.9312539112197251
3069.6246106724, 0.9339596635709324
2952.052463627834, 0.7063437109752442
2923.7218257857703, 0.6667112116686512
2855.728294964816, 0.7459885481722133
2765.0702538702108, 0.9141507152560864
2748.0718711649724, 0.9162491565340646
2736.739616028147, 0.918067813818221
2712.6585738623926, 0.926309825125504
2701.326318725567, 0.9274134043860779
2680.0783403440187, 0.9329980028184031
2670.1626170992963, 0.9334370502707255
2664.496489530883, 0.9333064566315527
2650.331170609851, 0.934915007450919
2638.9989154730256, 0.9340457329488568
1627.595144511337, 0.5756403209402102
1619.0959531587177, 0.5602194072834861
1580.849592071931, 0.6564631472063553
1555.352018014073, 0.6976299892939848
1500.107274222048, 0.8065267217109606
1468.9435725957778, 0.6080774071448362
1449.1121261063327, 0.717959821656987
1429.280679616888, 0.7555909162852492
1417.9484244800624, 0.6623815895906305
1403.7831055590304, 0.7472893005527862
1385.3681909616885, 0.8016754394342964
1368.3698082564501, 0.6911258107602799
1331.5399790617666, 0.683647334920213
1297.54321365129, 0.6136112215545639
1218.2174276935102, 0.4514056452599798
1199.8025130961687, 0.5434769995840707
1161.556152009382, 0.504524827543958
1114.8105995699761, 0.5005689860586439
1070.8981109147771, 0.7400050767355886
1059.5658557779511, 0.7324956063697282
1031.2352179358872, 0.6758415108243131
1025.5690903674745, 0.6710188993032257
1000.0715163096165, 0.7763646252733285
988.739261172791, 0.7915747171709655
943.4102406254883, 0.7317848809681187
919.329198459734, 0.8023884305586796
893.8316244018761, 0.8446955088671122
868.3340503440186, 0.87743032040668
838.586880609851, 0.8152102240806649
825.8380935809223, 0.703173101593326
803.1735833072712, 0.5201258071774914
760.6776265441749, 0.7374994757127036
752.1784351915558, 0.6688268190735113
723.8477973494914, 0.5978931789535619
699.7667551837371, 0.7654391537054329
694.1006276153244, 0.7623506196628639
655.8542665285377, 0.715417683513755
641.6889476075057, 0.6274337174157145
609.1087140891318, 0.8041685827269229
583.6111400312743, 0.8679400690572232
570.8623530023451, 0.8618293417093957
553.8639702971068, 0.7532247311766179
517.0341411024233, 0.650700390872846
485.870439476153, 0.7983707198616609
474.5381843393275, 0.7776011827994821
439.12488703674717, 0.8656860596958631
432.0422275762312, 0.8853013523785038
415.04384487099287, 0.8525171284212408
399.4619940578573, 0.872290194990096
386.71320702892854, 0.9271747479418424
##END=

##END=

