##TITLE=X8864
##JCAMP-DX=4.24
##DATA TYPE=INFRARED SPECTRUM
##DATE=2/11/2018
##SAMPLING PROCEDURE=ATR platinum Diamond 1 Refl
##ORIGIN=ComPlat
##XUNITS=1/CM
##YUNITS=TRANSMITTANCE
##RESOLUTION=4
##FIRSTX=3997.453
##LASTX=373.96442
##DELTAX=-1.4165319
##MAXY=0.94898164
##MINY=0.52304584
##XFACTOR=1
##YFACTOR=8.8380803e-010
##NPOINTS=2559
##FIRSTY=0.91685843
##XYDATA=(X++(Y..Y))
3997+1037395459+1037155977+1036773454+1036553664+1036767384+1037359513
3989+1037963040+1038303683+1038494136+1038793438+1039187494+1039378621
3980+1039171780+1038737664+1038406598+1038217966+1037840838+1037094539
3972+1036365100+1036216798+1036752210+1037577954+1038252766+1038608313
3963+1038766664+1038958802+1039215886+1039287171+1038969458+1038388119
3955+1037798755+1037254710+1036681397+1036218754+1036236558+1036857957
3946+1037677227+1038213920+1038385759+1038367819+1038234085+1037921362
3938+1037473218+1037130080+1037137903+1037471195+1037776230+1037701708
3929+1037304954+1036932951+1036859980+1037146198+1037558059+1037643843
3921+1037198330+1036639786+1036727257+1037645327+1038583967+1038824056
3912+1038632389+1038651812+1038944100+1038971144+1038338685+1037200286
3904+1036040643+1035222924+1034778287+1034671799+1034989714+1035731629
3895+1036676474+1037533982+1038092459+1038317711+1038377531+1038402889
3887+1038318925+1037993389+1037562240+1037330581+1037312710+1037376643
3878+1037615383+1038035404+1038171027+1037569996+1036657388+1036404283
3870+1036931197+1037372867+1037224092+1036734203+1036303729+1036320859
3861+1036879875+1037604930+1038158753+1038583225+1039062324+1039437362
3853+1039179671+1038489820+1038134340+1038274347+1038763629+1039374574
3844+1039650002+1039062459+1037660366+1036229881+1035557497+1035757729
3836+1036357209+1036935244+1037391548+1037829238+1038380633+1038945854
3827+1039164294+1038813265+1038158551+1037590700+1037032831+1036233186
3819+1035618666+1035902996+1037217955+1038905524+1040113118+1040554450
3810+1040346463+1039802351+1039382735+1039280832+1039166048+1038720669
3802+1037994333+1037407666+1037451233+1038181413+1039290004+1040265736
3793+1040746453+1040816794+1040812276+1041009607+1041459032+1041993365
3785+1042318362+1042167294+1041537128+1040786581+1040495641+1041052634
3776+1042167564+1043084488+1043247560+1042714171+1042078880+1041886404
3768+1042061480+1042200408+1042155020+1042010023+1041854235+1041786726
3759+1042021623+1042643696+1043201363+1042984743+1041628308+1039482075
3751+1037805499+1037601491+1038050309+1038270435+1038548965+1039293174
3742+1039911875+1039723917+1038848604+1037679789+1036783705+1036931197
3734+1038298693+1039992331+1041199520+1041777420+1041755636+1041121491
3725+1040169498+1039710834+1040460572+1042330906+1044473902+1045901217
3717+1046177657+1045606838+1044793975+1044066762+1043470047+1043398425
3708+1044292958+1045697681+1046650551+1046534688+1045472699+1044372673
3700+1044180400+1044799843+1045466292+1045661263+1045226540+1044118894
3691+1042595476+1041558777+1041770676+1042578413+1043164001+1043737517
3683+1044558472+1045204689+1044902555+1043272311+1040664108+1038392638
3674+1038212504+1039748533+1041163642+1041734325+1042352284+1044038032
3666+1046168282+1047508060+1047595935+1046950055+1046328589+1046002648
3657+1045824200+1045549514+1045067447+1044431212+1043626779+1042542602
3649+1041483580+1041224069+1041770406+1042572546+1043330444+1043927699
3640+1044340302+1044620316+1044745958+1044627262+1044364715+1044212771
3632+1044142363+1043778790+1043097100+1042908333+1043440575+1043829708
3623+1043543557+1042730020+1041866239+1041317474+1041093369+1041032672
3615+1041122975+1041474274+1042080296+1042697109+1043034987+1043021296
3606+1042803598+1042481703+1042063571+1041725018+1041777892+1042238647
3598+1042782556+1043290587+1043899105+1044499934+1044770371+1044619169
3589+1044125233+1043399234+1042832867+1042826460+1043204668+1043591777
3581+1043822829+1043833215+1043581729+1043272176+1043367604+1044057995
3572+1044817580+1044826077+1043809476+1042389512+1041688196+1042209377
3564+1043438889+1044724646+1045614729+1045903105+1045792840+1045539667
3555+1045066908+1044340504+1043724231+1043526967+1043503969+1043227193
3547+1042593722+1041857674+1041353487+1041189876+1041239580+1041366369
3538+1041543670+1041720297+1041728188+1041485199+1041190011+1041129854
3530+1041399347+1041896318+1042499103+1043116995+1043603107+1043821683
3521+1043846366+1043889528+1043984282+1043929858+1043573771+1043009899
3513+1042500047+1042321599+1042587180+1043106474+1043604861+1044024747
3504+1044319328+1044244401+1043769146+1043302726+1043092379+1042953923
3496+1042804946+1042883313+1043256529+1043624149+1043758423+1043761458
3488+1043836924+1044026365+1044180804+1044108575+1043834766+1043682755
3479+1043893237+1044274817+1044495011+1044531091+1044557326+1044537431
3471+1044266252+1043717554+1043127043+1042847097+1043128122+1043818311
3462+1044369369+1044454816+1044366334+1044455963+1044553279+1044357027
3454+1044004110+1043778925+1043631837+1043472475+1043536948+1043927295
3445+1044213513+1044091108+1043919134+1044110261+1044547345+1044956642
3437+1045291688+1045463055+1045257226+1044762548+1044414284+1044475318
3428+1044811645+1045165304+1045335389+1045149995+1044607704+1044042821
3420+1043862619+1044110059+1044495078+1044758029+1044853391+1044926968
3411+1045179332+1045662882+1046252044+1046774102+1047006908+1046684676
3403+1045852255+1045008167+1044588349+1044590642+1044860607+1045294183
3394+1045640019+1045597734+1045267679+1045129493+1045465685+1046054442
3386+1046476756+1046565508+1046470484+1046356509+1046221358+1046047766
3377+1045953551+1046066244+1046318608+1046486198+1046430627+1046224460
3369+1046031917+1045980865+1046145959+1046499146+1046824885+1046838373
3360+1046531653+1046356577+1046851389+1047948785+1048838395+1048780059
3352+1047889100+1046884975+1046330545+1046322249+1046635377+1046933599
3343+1046934813+1046485389+1045595913+1044573309+1043981517+1044115926
3335+1044607906+1044872476+1044807531+1044695377+1044617955+1044393445
3326+1043990622+1043628128+1043492639+1043634130+1044035739+1044540870
3318+1044838014+1044717228+1044201509+1043349935+1042147467+1040663367
3309+1039158899+1038011395+1037537152+1037789043+1038453672+1038966019
3301+1038822505+1037950429+1036843862+1036158327+1036074970+1036248293
3292+1036412106+1036694683+1037229218+1037835510+1038283586+1038537770
3284+1038574390+1038320274+1037872737+1037437070+1037027638+1036530600
3275+1035918305+1035195476+1034439330+1033969741+1034054716+1034498543
3267+1034929355+1035239177+1035426123+1035385119+1035119403+1034791169
3258+1034474737+1034136724+1033797362+1033548236+1033462452+1033439859
3250+1033136443+1032314813+1031239134+1030373397+1029802916+1029345264
3241+1028999630+1028842291+1028685289+1028253466+1027564222+1026880710
3233+1026385898+1026068724+1025834232+1025630359+1025477336+1025374624
3224+1025192669+1024718156+1023842506+1022709569+1021701600+1021183858
3216+1021133143+1021125926+1020828311+1020304229+1019717022+1019054890
3207+1018312637+1017578140+1016827525+1015997128+1015275242+1014918683
3199+1014783262+1014429401+1013690588+1012832944+1012179848+1011822817
3190+1011617190+1011303186+1010708899+1009921663+1009201531+1008727963
3182+1008426503+1007990498+1007199689+1006323701+1005889720+1005885741
3173+1005699807+1005021893+1004202084+1003548448+1002925026+1002214741
3165+1001573515+1001075802+1000581799+1000029527+999486359+998879123+998033214
3155+997063821+996405533+996279486+996397912+996398519+996307137+996290681
3145+996145616+995396215+993906517+992159128+990848350+990313613+990349222
3135+990395553+989906743+988751214+987342849+986276544+985802301+985650560
3125+985283682+984321910+982817240+981153680+979685428+978492942+977470203
3115+976535542+975684845+974919191+974224282+973585348+972921732+972088704
3105+971033459+969869432+968732112+967676058+966704102+965793585+964906538
3095+964000809+963008688+961900435+960789282+959793452+958798162+957577485
3085+956133512+954706264+953503594+952555310+951768614+951058464+950410493
3075+949805483+949213151+948693115+948293192+947845318+947157693+946400738
3065+945982741+946029410+946224988+946200035+945919481+945624968+945474507
3055+945361949+945099672+944637838+944091838+943649629+943402998+943218076
3046+942855717+942218739+941459559+940897441+940739023+940711642+940205432
3036+938989948+937475836+936084197+934801745+933519831+932301043+931130407
3026+929878775+928641642+927667259+926865119+925850339+924573214+923448303
3016+922734578+922203077+921583634+920973903+920629213+920587130+920647018
3006+920563728+920158005+919343591+918193524+916984178+916001634+915231596
2996+914416372+913491828+912727657+912318089+912069908+911593709+910662690
2986+909414160+908305704+907746621+907676482+907635816+907248638+906439215
2976+905283618+903931702+902599073+901420682+900418040+899663109+899205052
2966+898796766+898061999+897009115+896019287+895255724+894439017+893316129
2956+892075961+891149258+890761070+890827566+891176235+891680354+892230468
2946+892758933+893283487+893776951+894089269+894143963+893993436+893500512
2936+892295751+890275362+887806290+885297225+882949749+880950199+879441955
2927+878293035+877278727+876476250+876165483+876389319+876865180+877352642
2917+877928855+878813880+880015134+881264540+882257942+882901327+883394183
2907+884080527+885088092+886166266+886998013+887496332+887648546+887376018
2897+886804593+886387674+886445471+886761768+886890580+886711659+886454373
2887+886341747+886444729+886718876+886973936+887003745+886879857+886835481
2877+886814574+886514935+885919433+885357382+884995091+884656943+884195784
2867+883699353+883250804+882759499+882133986+881445686+880820106+880244972
2857+879570092+878725195+877921976+877526369+877658351+878097862+878667803
2847+879446878+880514532+881764209+882994462+883939374+884381313+884513092
2837+884906676+885852937+887034498+888000384+888618208+888976251+889187813
2827+889361945+889541067+889658549+889667721+889633124+889622873+889616938
2817+889578429+889526298+889486036+889429588+889327415+889245879+889344343
2808+889731250+890333091+890964876+891522610+892022076+892476222+892892129
2798+893378916+894071869+894921353+895702923+896267199+896703811+897248327
2788+898051344+899041913+900031673+900949541+901915157+903043575+904212997
2778+905146714+905779780+906400504+907303063+908467494+909703278+910885446
2768+911948110+912901047+913911916+915130435+916428871+917526266+918305071
2758+918840955+919226042+919528041+919850340+920285401+920798894+921280960
2748+921740367+922314220+923022752+923682322+924140379+924442716+924722797
2738+925093519+925647882+926401397+927222420+927917801+928364056+928516877
2728+928385368+928090517+927889881+928000551+928377275+928769442+929023626
2718+929202547+929365753+929393741+929141176+928672935+928273753+928217777
2708+928508851+928837220+928846257+928438915+927770443+927023537+926297066
2698+925632033+924997551+924286051+923420652+922448899+921466760+920471874
2689+919362677+918081640+916688045+915270307+913873542+912532079+911275658
2679+910080474+908894394+907709798+906561485+905501047+904591002+903850098
2669+903205163+902559958+901898162+901283575+900770890+900372518+900134250
2659+900189821+900601816+901175602+901619294+901890878+902198813+902675618
2649+903227014+903712182+904169228+904807689+905740529+906796381+907742574
2639+908603050+909546006+910570566+911530787+912370693+913147273+913905576
2629+914671231+915508170+916450991+917390171+918152521+918703174+919148822
2619+919564931+919974769+920433500+920947938+921409570+921740906+921949972
2609+921973711+921725125+921335318+921082010+921049571+921087608+921079043
2599+921046806+921004116+920854803+920483204+919930190+919440706+919233056
2589+919255581+919326124+919439357+919653683+919748168+919380481+918602080
2580+917858614+917429893+917155342+916745437+916121881+915384821+914574656
2570+913579501+912304399+910885851+909629498+908717767+908034120+907280336
2560+906238444+904908243+903430887+901956566+900678294+899820381+899346408
2550+898775454+897620262+896012611+894598581+893807704+893499972+893363539
2540+893354030+893563569+893848303+893858419+893469961+893006778+892900222
2530+893181922+893458766+893395978+893085751+892917756+893232300+894099250
2520+895273528+896363370+897144266+897683792+898184741+898845525+899786930
2510+900899095+901921429+902859057+904059704+905650900+907219032+908277244
2500+908817849+909241579+909912951+910908039+912087172+913293889+914439370
2490+915434323+916180824+916682313+917067737+917470762+917977175+918675793
2480+919628191+920759779+921882869+922862580+923705926+924435904+924921612
2470+924959919+924633169+924473739+925036801+926250869+927400463+927876662
2461+927807603+927835793+928451999+929654872+931045904+932113827+932625500
2451+932854259+933251013+933915978+934658500+935469138+936507792+937655701
2441+938524742+938993118+939357904+939807599+940068257+939845298+939396548
2431+939330658+939936276+940962049+941928609+942466179+942567273+942693657
2421+943383845+944590360+945639939+945993599+945837541+945760254+946013291
2411+946333567+946451993+946503585+946815701+947477497+948281862+948993564
2401+949562898+950113349+950764422+951472415+952074391+952464130+952683852
2391+952886107+953223176+953706793+954205450+954628977+954993090+955262920
2381+955384179+955544755+956068567+956927762+957742311+958395137+959224792
2371+960473727+961945418+963243517+964038373+964231389+964147627+964408286
2361+965379567+966786110+967865094+967955465+967096203+966007979+965389615
2351+965373834+965713601+966216371+966862049+967743566+968978608+970450097
2342+971634491+972017419+971627747+970918135+970286688+969946045+969975179
2332+970224710+970359861+970174197+969802531+969647350+970101833+971248190
2322+972774441+974168306+974965185+975028580+974726647+974546716+974520481
2312+974359703+974046171+973896722+974199194+975001401+976061232+976983011
2302+977570150+977911063+978100437+978193909+978379237+978775990+979126008
2292+979062883+978657227+978425164+978803911+979771483+980983864+982162593
2282+983245624+984140360+984543925+984314222+983943163+984204563+985229460
2272+986357608+986962619+987012525+986879532+987037343+987798277+988938294
2262+989766938+989869381+989594425+989616546+990203212+991134771+992210720
2252+993398014+994437275+994850147+994574382+994135546+994059810+994487047
2242+995297954+996268898+997225207+998147324+998990063+999609371+1000084019
2232+1000673451+1001180133+1000998920+1000174659+999719637+1000403958
2224+1001855080+1003294129+1004392199+1004897263+1004427943+1003394818
2215+1003122021+1004211795+1005731302+1006715936+1007407339+1008222764
2207+1008566240+1007717701+1006275549+1005628455+1006228745+1007241434
2198+1007835048+1008047486+1008354004+1009063345+1010111172+1011059456
2190+1011461537+1011462279+1011700210+1012409551+1013063119+1013238263
2181+1013551727+1014958810+1016953235+1017623325+1016169169+1014114587
2173+1013120849+1013021778+1012959193+1012898024+1013215333+1014048765
2164+1015397310+1016849308+1017369614+1016570576+1015801347+1016424769
2156+1017813036+1018703861+1019023327+1019202854+1018930866+1017673029
2147+1015835068+1014477216+1014182770+1014806057+1015845116+1016513251
2139+1015980132+1014251425+1012564193+1012276423+1013475317+1015182309
2130+1016530044+1017046370+1016414586+1014900339+1013570341+1013228012
2122+1013501889+1013611143+1013496628+1013577894+1013864922+1013940658
2113+1013617212+1013133662+1012735627+1012425872+1012251268+1012454871
2105+1013045180+1013529607+1013446587+1012971805+1012665489+1012827819
2096+1013415430+1014341728+1015435009+1016310659+1016708155+1016743426
2088+1016562753+1016123781+1015502922+1014979043+1014741179+1014855491
2079+1015358869+1016155883+1017142271+1018430726+1020035680+1021568135
2071+1022589390+1022883566+1022297237+1020930416+1019611950+1019529874
2062+1021017684+1023026338+1024197244+1024372185+1024585096+1025586658
2054+1027025842+1028057685+1028167681+1027607991+1027510741+1028894153
2045+1031121584+1032409028+1032144188+1031612283+1032089561+1033236997
2037+1033960366+1033962390+1033800465+1034013307+1034593163+1034970359
2028+1034842761+1035230950+1037321140+1039957869+1040430291+1038225587
2020+1035770408+1035105307+1035610978+1035461327+1034375329+1033927321
2011+1035274314+1037657129+1039558485+1040416668+1040422401+1039642247
2003+1038346306+1037446579+1037832273+1039482749+1041528563+1043141408
1994+1044080115+1044375910+1043945504+1042714104+1040951001+1039553495
1986+1039735719+1041668638+1043804688+1044602309+1044312111+1044079913
1977+1044243794+1044683305+1045717104+1047349641+1048692723+1048944277
1969+1048120421+1046654125+1045059894+1044073574+1044369638+1045837890
1960+1047386059+1047723128+1046415925+1044078564+1041686038+1039921788
1952+1039015048+1038728088+1038317172+1037073767+1035184415+1033555587
1943+1032640956+1031970258+1031025684+1029968753+1029198243+1028808908
1935+1028659189+1028668361+1028929222+1029573618+1030453921+1030975980
1926+1030583610+1029538683+1028880395+1029323345+1030426743+1031194960
1918+1031115717+1030572280+1030359842+1030799825+1031562579+1032153225
1909+1032425820+1032687423+1033287578+1034121145+1034606718+1034253531
1901+1033261006+1032398912+1032278462+1032883203+1033750491+1034460911
1892+1034890509+1035068822+1035107196+1035349241+1036217877+1037721468
1884+1039256958+1040013710+1039750759+1039061110+1038726065+1038925824
1875+1039177513+1039003516+1038544244+1038411521+1039022332+1040108802
1867+1041041709+1041563970+1041724546+1041541782+1041104699+1040721703
1858+1040765539+1041321048+1042057703+1042556360+1042678765+1042551909
1850+1042381621+1042353431+1042565464+1043017115+1043595014+1043969310
1841+1043910300+1043664074+1043632444+1043925879+1044345562+1044677236
1833+1044795189+1044667861+1044510117+1044685126+1045192078+1045637996
1824+1045725264+1045585190+1045567723+1045768629+1046015462+1046176510
1816+1046287855+1046477633+1046909456+1047645706+1048490064+1049198731
1807+1049803539+1050471877+1051213522+1051866011+1052348077+1052901833
1799+1053820915+1054967744+1055975916+1056654099+1057011333+1057323583
1790+1058019504+1059024641+1059915532+1060574900+1061181057+1061843662
1782+1062589557+1063468242+1064340655+1064909720+1065067261+1064974125
1773+1065057954+1065890847+1067483729+1069229567+1070679610+1071569692
1765+1071787863+1071599569+1071538940+1071967930+1072729066+1073400506
1756+1073723951+1073741823+1073484469+1072759684+1071608876+1070590588
1748+1069954285+1069308675+1068320129+1066831645+1064708409+1061893973
1740+1058643398+1055619154+1053272150+1051401210+1049730164+1048587381
1731+1047989182+1047302972+1046228305+1044808543+1042938884+1040632141
1723+1038329243+1036215584+1033792102+1030456754+1026442345+1022907305
1714+1020079314+1016790365+1011933015+1005237906+996282588+983543712+966923352
1704+949599923+932246618+909830606+880016348+850439143+824222780+797257554
1694+771848388+751453170+733068156+713483710+694238558+677365161+660007135
1684+638667612+618917599+606939723+600049238+595192899+592103845+591809331
1674+594566915+599387307+606199224+616169457+628715453+640786801+651299797
1664+661875108+674165099+687474727+699561317+709650717+718050391+725416535
1655+734343663+748069736+761141972+768674223+774568070+782590345+792640900
1645+801494045+808356205+814423509+820205741+825707757+831793067+840409563
1635+850995799+859974923+866870601+873434606+880840406+889098251+897547022
1625+905988509+914592258+922432443+927838154+929543527+925123328+911122703
1615+888359843+860111558+826516438+788019390+749142718+716509573+694373777
1605+683588118+683187116+691254779+705107708+721998572+740013134+758256319
1595+776280592+793490181+809368018+823893399+837155413+848954166+859052199
1585+867303031+873420646+877015641+877998589+876773326+874022419+870841241
1575+868755704+867889158+866779287+864160766+860126193+856769668+855949117
1565+857625491+860709015+863846695+866535758+870082668+875873869+881509553
1555+885855634+889743389+893143548+895736643+897688850+899314576+900779118
1545+902255665+903867363+905838655+909759186+917596472+926292952+932364707
1536+936497272+940104743+943392343+945415160+945646077+944272107+941729052
1526+938896610+936961736+937016565+939579245+943538824+947475001+951333824
1516+955034768+957724371+958909912+958917870+958491982+958966494+962909753
1506+970438227+976933780+981005311+983631587+985410066+986751597+988218769
1496+989916927+991218937+991594177+990793319+988755395+986050955+983598608
1486+981709729+980465313+980249772+981499314+984165717+987611398+991094981
1476+994132241+996643801+999070520+1001695785+1003821314+1004757053+1004545627
1466+1003695537+1002943842+1002588632+1002063336+1000576741+997466915+992721246
1456+988338207+985896381+984268564+982232327+979365490+975805699+972082837
1446+968777365+965948901+963052120+959578519+955345670+949536327+939793976
1436+924536998+906728468+889282837+870636558+848803032+825365630+804089501
1426+786343353+771430660+759655040+752032148+748209204+746775819+746601957
1417+747021236+747683773+748703747+750496793+753361674+757245922+761940808
1407+767505004+774161470+781497266+788714636+795962355+804076013+813038411
1397+821814472+829523755+835369044+838547457+839161235+838154952+836823740
1387+836560384+838037673+840853997+844430445+848521399+852989886+857629672
1377+862379185+867510142+873193978+878951189+884217027+889045445+893677611
1367+898144209+902663816+907867677+914160974+921007623+927481662+933293838
1357+938685588+943866451+948771616+953249140+957343264+961185496+964718985
1347+967734192+970072159+971637256+972284012+971838971+970327692+968076521
1337+965290006+961694943+956854116+950481373+942413576+932592252+921158555
1327+908406933+894588330+879871822+864560689+849241733+834754321+822151540
1317+812493221+806404740+803926901+804681967+807884187+812323607+816525029
1307+818921400+818151564+813525401+805251369+794250710+781754215+768879648
1298+756401025+744755295+734091907+724309563+715176270+706481004+698127932
1288+690210189+683025191+676916343+672043752+668313673+665534846+663640099
1278+662702808+662720747+663491527+664778701+666514625+668773551+671588864
1268+674889413+678630754+682899549+687806265+693305179+699163214+705046202
1258+710635014+715784653+720608754+725319623+729976404+734470114+738707684
1248+742716158+746601013+750463612+754305372+757999775+761407352+764511917
1238+767417466+770263531+773171980+776226572+779468514+782915140+786607788
1228+790642699+795118065+800013923+805101111+809949559+814110921+817509798
1218+820699339+824489170+829207660+834480647+839729423+844673165+849319493
1208+853695721+857793823+861727910+865705563+869740069+873514928+876603106
1198+878696331+879592146+879088566+876964790+873041629+867235860+859506480
1188+849764399+838003817+824660537+810781778+797741846+786848956+779290673
1179+776192717+778256065+785168941+795532286+807461132+819312623+830085536
1169+839454265+847546274+854637260+860953218+866660456+871975998+877202047
1159+882536000+887904888+893127092+898136656+902908019+907335637+911370143
1149+915117351+918632496+921710693+923991740+925254230+925562232+925102084
1139+923854835+921363912+916766277+909143385+898088099+884139133+868826517
1129+854348209+842939129+836052690+833785131+834983418+838019599+841702873
1119+845677829+850088721+854916330+859545933+862783829+863299548+860322513
1109+854172391+846252087+838603905+833327546+832001594+835193023+842281447
1099+851770895+861928411+871339021+879189322+885318874+890028326+893731226
1089+896760461+899411420+901980102+904726018+907867272+911539284+915677514
1079+920003701+924179562+927979644+931373733+934454964+937279044+939851233
1069+942252123+944586988+946809564+948754419+950311625+951481317+952353393
1060+953086473+953805661+954538337+955318559+956263268+957478078+958955029
1050+960585139+962202300+963599334+964551665+964893724+964629693+963956770
1040+963113087+962207763+961283555+960599436+960741669+962240943+964997785
1030+968228465+971020848+972766011+973065987+971608121+968267378+963032293
1020+955956885+947960777+941725478+940487267+944676212+949601205+947035220
1010+930496667+901192125+869652801+849669105+848329463+861634707+879732018
1000+895191318+906148006+913849668+919546385+923698170+926582745+928594299
990+929980813+930702024+930645441+929870547+928636854+927231255+925783775
980+924311679+922893873+921608183+920339825+918869618+917105369+915075875
970+912812430+910345921+907728546+905047913+902444971+900025131+897732619
960+895438218+893107872+890725933+888115640+885039804+881502674+877790669
950+874181175+870757007+867512839+864432619+861438387+858483135+855700396
941+853259919+851117867+849088441+847106628+845281952+843755364+842593832
931+841784679+841252774+840874364+840534463+840208319+839984214+840029669
921+840523537+841535350+842943378+844563506+846322495+848211577+850185296
911+852248173+854528681+857150371+860053761+862974012+865622543+867919035
901+869969570+871783657+873129572+873687306+873322115+872330534+871403494
891+871162461+871805980+873292913+875508003+878072774+880457545+882604587
881+885204022+889167783+894883181+901795450+908348259+912263462+911268375
871+904093492+891145414+874472856+857116583+841872824+829770790+819735409
861+810407145+802315136+797733079+798428257+803934657+811962934+820172897
851+827519417+834197126+840742113+847398241+853993067+859972832+864623477
841+867518234+868622644+867759268+864198937+857120562+846424667+832852831
832+817480124+801507938+786473042+774080946+765493112+760941606+760231860
822+763385320+770356802+780157286+790749458+799979664+806403459+809332207
812+808661374+805026387+799959229+795551776+793697763+795443399+800801564
802+808902340+818349772+827851023+836824954+845427152+854062935+863022569
792+872408226+882105054+891655131+899924240+904768843+903729245+896059145
782+883964125+870755793+857257534+840435257+815984357+782406637+743110753
772+705416250+677386742+664147456+665820929+678138909+694637268+709241285
762+718945599+725178200+732005426+742508575+756898063+773397569+789901526
752+804892517+817691888+828311777+837114544+844548399+850916219+856157239
742+859857576+861493351+860771465+858034249+854477830+851834492+851689090
732+854924558+861468600+870193405+879041560+885668554+888512394+887581847
722+884296203+880668837+878458939+878371131+879516005+879680560+876377314
713+868013991+854514316+837199115+818159927+799397246+782345873+768182446
703+758149560+753230907+753666169+758916901+767985519+779670432+792731743
693+806118387+819044412+830929893+841475935+850604508+858267999+864684241
683+870544232+876406786+882109033+887192309+891573191+895502624+899195678
673+902733752+906277964+910225809+914487657+917157230+916676985+914026160
663+910859144+908825942+909030894+910997803+912964711+913283638+911684551
653+909512084+908486243+909096919+910527336+912048259+913842250+916298036
643+919131692+921637115+923455519+924686312+925520284+926208246+927197062
633+928920172+931521091+934835060+938432011+941795886+944730839+947398996
623+949841833+951917658+953837763+956126364+958742794+960785640+961544483
613+961473805+961662572+962573156+963564602+963430665+961167422+956609981
603+950952514+946537440+945469921+948050945+952743133+957813933+962515157
594+966519517+969290049+970875445+972351318+974329152+976014226+976507959
584+975923518+974551234+972204365+968952846+965179673+960694123+955113809
574+949247546+944869564+942846208+941975211+939753242+934253249+925091833
564+912873059+898439802+882728206+866885034+852145663+839374820+828826283
554+820595346+814944960+811705918+809710617+807313234+803425075+798194373
544+793016545+789578687+788576585+789572347+792104004+796386220+802506330
534+809432694+815589154+820404556+824735194+829549045+834608245+838773788
524+841482882+843400761+845733467+849391991+854001025+857460126+857917105
514+855978521+853658493+852175742+851733803+852439705+854200986+856085347
504+856973542+856839132+856688200+857125148+857556836+857057168+855384234
494+852987728+850586164+849076301+849198436+850847295+853388730+856628650
484+860608326+864620307+867634165+869513468+870751477+871641560+872524898
475+874134438+876809677+879767289+882321471+885384156+890126655+895683567
465+899791381+901747297+903050724+905031053+907261992+908267330+906709113
455+902044576+894951499+887142943+879590055+871727682+864292343+860794800
445+863642012+870848322+878732276+885897380+892592287+897913630+899942921
435+898378296+895374352+893428755+893930918+897120797+902399921+909115532
425+916753328+924150158+929790697+933100283+934851448+936714835+939057591
415+940184997+939112825+937717409+939439845+944641480+949667431+951486780
405+950382370+947686563+944297195+942238027+945079777+954191692+964523070
395+971056659+974688004+977284539+978887267+978830685+977037234+974247279
385+971863115+971692894+974261914+977890089+981141676+984407829+987668993
375+987327068+982457377
##END=
