##TITLE=X8727
##JCAMP-DX=4.24
##DATA TYPE=INFRARED SPECTRUM
##DATE=2/11/2018
##SAMPLING PROCEDURE=ATR platinum Diamond 1 Refl
##ORIGIN=ComPlat
##XUNITS=1/CM
##YUNITS=TRANSMITTANCE
##RESOLUTION=4
##FIRSTX=3997.453
##LASTX=373.96442
##DELTAX=-1.4165319
##MAXY=0.94738853
##MINY=0.5794704
##XFACTOR=1
##YFACTOR=8.8232433e-010
##NPOINTS=2559
##FIRSTY=0.94028842
##XYDATA=(X++(Y..Y))
3997+1065694776+1065513258+1065253310+1065217439+1065667822+1066356942
3989+1066719369+1066633305+1066564806+1066810635+1066977764+1066485024
3980+1065438273+1064648363+1064704770+1065302354+1065618913+1065246217
3972+1064619855+1064482788+1065028828+1065702815+1065853190+1065397065
3963+1064794550+1064554665+1064753882+1065002954+1064974919+1064826841
3955+1064838055+1064859807+1064564393+1064101715+1064041119+1064590807
3946+1065290937+1065700518+1065908855+1066117327+1066123947+1065674712
3938+1065034907+1064718146+1064841635+1065037069+1064908514+1064443741
3929+1064003423+1063899052+1064121576+1064455023+1064717403+1064814613
3921+1064577498+1063809746+1062681930+1061887020+1061952953+1062630318
3912+1063397666+1064116847+1064916080+1065702072+1066057744+1065601822
3904+1064458806+1063285053+1062473728+1061832504+1061326591+1061260591
3895+1061698072+1062327068+1062773668+1062959375+1063233036+1063789412
3887+1064185685+1063848589+1063085633+1062680849+1062582760+1062504668
3878+1062863042+1063807719+1064521158+1064218110+1063235198+1062551077
3870+1062480754+1062672607+1062871149+1062962820+1062725029+1062135214
3861+1061673144+1061779136+1062451030+1063458532+1064354164+1064104957
3853+1062056379+1060187899+1059893093+1060264708+1060604100+1060937885
3844+1061334225+1061566003+1061559856+1061662741+1062095695+1062516827
3836+1062492035+1062129337+1061879927+1062095695+1062702128+1063149404
3827+1062916140+1062143253+1061501084+1061223099+1060870196+1060301255
3819+1060010232+1059990844+1059904104+1059940246+1060358676+1060934980
3810+1061459538+1061925256+1062271876+1062465419+1062662474+1062784680
3802+1062501155+1062031316+1062008753+1062214658+1062006321+1061410291
3793+1061021585+1061129266+1061603158+1062284374+1063056247+1063707604
3785+1063971943+1063726316+1063050235+1062157575+1061421100+1061236339
3776+1061645582+1062408268+1063291200+1064032134+1064282827+1063892635
3768+1063162240+1062472917+1061992675+1061850541+1062083806+1062452381
3759+1062630116+1062640384+1062768467+1062948701+1062805486+1062200742
3751+1061540941+1061384891+1061557424+1061396037+1060477571+1059442237
3742+1059678271+1061007398+1062177436+1062405296+1061744819+1060918767
3734+1060405018+1060048805+1059938489+1060299499+1060796832+1060737655
3725+1059974293+1059317194+1059512763+1060351853+1061173716+1061590390
3717+1061641461+1061625856+1061838111+1062268566+1062490144+1062256204
3708+1062030100+1062166357+1062404553+1062258298+1061587823+1060940249
3700+1060975715+1061576339+1062215806+1062623158+1062754956+1062551888
3691+1061931741+1060866953+1059469866+1058189918+1057622059+1058012724
3683+1059156685+1060574849+1061737658+1062131431+1061315715+1059695970
3674+1059126489+1060193168+1061142574+1060739884+1059887756+1060263627
3666+1061688276+1062913505+1063179128+1062686253+1062239653+1062324568
3657+1062720030+1062978492+1062979911+1062777249+1062214793+1061105554
3649+1059843778+1059351782+1059725829+1060380969+1060960110+1061440285
3640+1061963424+1062510477+1062741445+1062371586+1061666186+1061333009
3632+1061734551+1062383070+1062386313+1061690303+1061224382+1061220059
3623+1061370434+1061466564+1061261334+1060576335+1059872286+1059819459
3615+1060369350+1061082789+1061705232+1062077928+1061839260+1060755084
3606+1059338068+1058391095+1058117838+1058300977+1058781152+1059443318
3598+1060077583+1060567216+1060976391+1061329834+1061556140+1061583162
3589+1061240392+1060365702+1059368873+1058960914+1059066433+1059132028
3581+1058957333+1058747443+1058668742+1058657933+1058695088+1058931325
3572+1059386572+1059771496+1059724478+1059120071+1058317663+1058009279
3564+1058312191+1058634222+1058560183+1058336173+1058412847+1058708869
3555+1058772775+1058460135+1058025965+1057699138+1057421423+1057034203
3547+1056593277+1056438105+1056752907+1057179714+1057252335+1057013261
3538+1056958204+1057391023+1057946318+1057989080+1057443581+1056854306
3530+1056745341+1057189442+1057879575+1058399336+1058444260+1058001307
3521+1057392374+1057020421+1057019138+1057161677+1057145667+1056962190
3513+1056838971+1056805802+1056605031+1056184372+1055945027+1056154851
3504+1056386223+1055933881+1054844503+1054044054+1054164503+1054825453
3496+1055226049+1055121070+1054952995+1055078443+1055273810+1055131811
3488+1054690885+1054412360+1054581785+1055044936+1055559969+1056052236
3479+1056399194+1056363998+1055987316+1055657044+1055544026+1055360482
3471+1054898682+1054331565+1053883276+1053659401+1053762692+1054140860
3462+1054464782+1054581920+1054830520+1055473770+1056106414+1056067436
3454+1055282997+1054293194+1053568001+1053178213+1052982441+1052778698
3445+1052452006+1052179358+1052211716+1052468219+1052720061+1053032972
3437+1053565636+1054152344+1054472280+1054419588+1054116540+1053786741
3428+1053654200+1053799373+1054144102+1054516055+1054637720+1054270428
3420+1053513755+1052739652+1052232726+1052123626+1052446940+1053020002
3411+1053502743+1053756814+1053955694+1054225099+1054334875+1053912999
3403+1053011084+1052252452+1052198273+1052718575+1053204694+1053273937
3394+1053036552+1052783157+1052640888+1052536922+1052376481+1052161591
3386+1051937379+1051691415+1051400932+1051152130+1051113286+1051326149
3377+1051583125+1051644532+1051553469+1051562319+1051740391+1051872460
3369+1051800244+1051660205+1051668716+1051818281+1051932785+1051934745
3360+1051921436+1052027902+1052303928+1052685676+1053040335+1053245430
3352+1053213679+1052907929+1052470922+1052264003+1052529491+1053004802
3343+1053073369+1052368307+1051201107+1050362963+1050400928+1051038977
3335+1051494765+1051389718+1051052015+1050912380+1051037896+1051341011
3326+1051772142+1052142271+1052151526+1051765927+1051258798+1050864147
3318+1050688776+1050853136+1051330135+1051775857+1051854896+1051599001
3309+1051227926+1050840570+1050426937+1050001616+1049643174+1049471113
3301+1049537722+1049714443+1049800034+1049738357+1049618584+1049540019
3292+1049586361+1049804425+1050101799+1050294733+1050321890+1050292707
3284+1050310879+1050413088+1050633990+1050950819+1051217050+1051310477
3275+1051238734+1051014590+1050629666+1050232583+1050082546+1050231232
3267+1050429301+1050385593+1050050457+1049680193+1049635810+1050013640
3258+1050480102+1050604131+1050338981+1050042486+1050029110+1050243865
3250+1050383837+1050248526+1049956152+1049832190+1050042959+1050358369
3241+1050383702+1050019383+1049586834+1049485165+1049735453+1049924874
3233+1049691070+1049200694+1048950068+1049151177+1049581767+1049987362
3224+1050332901+1050647231+1050830437+1050672293+1050070724+1049250752
3216+1048637833+1048440710+1048487525+1048537515+1048572441+1048672151
3207+1048772266+1048705860+1048422268+1048064501+1047856502+1047946079
3199+1048279594+1048587033+1048572914+1048208797+1047770979+1047527514
3190+1047446043+1047360047+1047335592+1047573045+1047968980+1048184478
3182+1048160023+1048113275+1048112059+1048111722+1048260881+1048672556
3173+1049086663+1049160635+1048928654+1048693633+1048617027+1048596558
3165+1048482121+1048265542+1048030049+1047825698+1047686401+1047664176
3156+1047748889+1047889604+1048129691+1048509413+1048842590+1048899403
3148+1048829552+1049036605+1049518807+1049715321+1049215826+1048322828
3139+1047664513+1047522244+1047755847+1048093685+1048289524+1048241763
3131+1048132528+1048266353+1048699037+1049172254+1049401533+1049277909
3122+1048837456+1048243587+1047798676+1047748618+1048029103+1048340798
3114+1048457869+1048374845+1048272433+1048376466+1048669111+1048808948
3105+1048590343+1048311074+1048375926+1048761390+1049162121+1049432270
3097+1049598588+1049619327+1049406261+1049030390+1048707414+1048541028
3088+1048393152+1048086051+1047639181+1047197985+1046834543+1046568042
3080+1046485626+1046614925+1046689167+1046311134+1045425567+1044354767
3071+1043305854+1042164122+1040826415+1039386296+1037934085+1036467553
3063+1035049997+1033864152+1033120787+1032990002+1033574953+1034873411
3054+1036726150+1038811411+1040771358+1042387793+1043603565+1044407459
3046+1044779682+1044754822+1044521625+1044370710+1044432454+1044495009
3037+1044228643+1043537970+1042567623+1041493039+1040464528+1039636584
3029+1039035285+1038456346+1037671232+1036677781+1035552397+1034160985
3020+1032295816+1029984924+1027400574+1024639704+1021829723+1019224431
3012+1017052431+1015466463+1014524758+1013918325+1012893867+1010783003
3003+1007563103+1003853234+1000536056+998284545+997192195+996866516+996869556
2993+996837333+996197865+994146044+990074490+983920782+976040459+966815470
2983+956419094+944862205+932154329+918415307+903911234+889060406+874368398
2973+860207636+846576430+833135727+819531880+805601207+791253455+776383915
2963+761087973+745849924+731335516+718047553+706345490+696760776+690019753
2953+686596921+686337783+688544776+692239379+696334847+699867996+702261843
2944+703323456+703021017+701326219+698156985+693418401+687242873+680242848
2934+673384145+667603877+663648786+662169418+663697695+668375277+675709831
2924+684721956+694436239+704235775+713799277+722867539+731140893+738282579
2914+743975162+748096707+750879261+752824685+754526103+756638520+759798027
2904+764338069+770138536+776808222+783863507+790754162+797006364+802471627
2894+807302490+811612848+815251854+817978879+819786154+820930588+821653350
2884+821933970+821431300+819498982+815271377+807941079+797165927+783364822
2874+767679161+751578041+736443148+723514775+714085368+709460951+710546343
2864+717437809+729277345+744256796+759797824+773180363+782512087+787382604
2854+788745846+788274926+787662345+788130158+790255748+794121060+799586729
2844+806453875+814482210+823366590+832777893+842460627+852243950+861932968
2834+871254491+879888651+887463697+893634158+898331331+901815840+904320342
2825+905810518+906248337+905893069+905193344+904534624+904195502+904467813
2815+905779714+908667855+913490409+920106254+927882409+935964179+943554492
2805+950167365+955759360+960544489+964688799+968254238+971305793+973906492
2795+976060522+977754239+979054656+980145925+981213888+982280095+983249429
2785+984121148+985006242+985935178+986806964+987510000+988033477+988527230
2775+989237629+990256413+991380919+992349983+993135029+993879813+994648985
2765+995375732+996015942+996583937+997034388+997285757+997396411+997555095
2755+997870978+998286706+998656903+998837205+998806063+998726281+998765395
2745+998924350+999160114+999492683+999842140+999990759+999896454+999816875
2735+999937391+1000079593+999953807+999522474+998940765+998340007+997863818
2725+997710672+997935493+998380674+998911920+999528824+1000189301+1000731693
2715+1001031701+1001108307+1001095269+1001184508+1001512348+1002029678
2707+1002543494+1002915312+1003149793+1003287873+1003332999+1003328879
2698+1003381233+1003514450+1003617064+1003620847+1003615848+1003689482
2690+1003780748+1003798650+1003766089+1003760009+1003802365+1003897144
2681+1004071974+1004320708+1004583831+1004820609+1005011111+1005089204
2673+1004998479+1004799126+1004600855+1004424674+1004251870+1004145608
2664+1004178101+1004281594+1004302266+1004198030+1004111493+1004235117
2656+1004608218+1005058399+1005377255+1005518916+1005543573+1005449267
2647+1005223434+1004969701+1004803990+1004718534+1004709550+1004905997
2639+1005407384+1006099408+1006771909+1007343620+1007854464+1008240063
2630+1008273165+1007882634+1007399555+1007221955+1007338486+1007469271
2622+1007514532+1007554389+1007604244+1007682066+1007888849+1008158593
2614+1008196558+1007877162+1007407999+1007000107+1006725365+1006714421
2605+1007083266+1007681255+1008250534+1008704160+1008980186+1008899391
2597+1008438672+1007899388+1007642682+1007819471+1008336395+1008952421
2588+1009457996+1009776041+1009881493+1009800901+1009689504+1009649445
2580+1009559800+1009346735+1009225002+1009432393+1009932497+1010514746
2571+1010980666+1011191773+1011092131+1010727406+1010262093+1009990728
2563+1010147859+1010600607+1010965196+1011119693+1011317829+1011703631
2554+1012093553+1012359311+1012633648+1012953720+1013063765+1012777741
2546+1012267437+1011859140+1011730179+1011847386+1012102470+1012467938
2537+1012923590+1013237447+1013150910+1012856577+1012860225+1013264198
2529+1013596294+1013415452+1012811248+1012305808+1012373767+1012968446
2520+1013551641+1013662227+1013292301+1012695122+1012122263+1011762268
2512+1011643102+1011564537+1011328165+1011031129+1011027279+1011538123
2503+1012296823+1012709849+1012550286+1012322156+1012647902+1013465172
2495+1014183610+1014482604+1014560427+1014689658+1014905155+1015058909
2486+1014915964+1014328649+1013525025+1013039919+1013186038+1013754776
2478+1014295480+1014515030+1014400999+1014104234+1013744846+1013366205
2469+1013119092+1013305069+1014034923+1014930353+1015378845+1015100995
2461+1014344726+1013550358+1013014180+1012890894+1013168947+1013513878
2452+1013528267+1013303177+1013252782+1013333914+1013043634+1012317090
2444+1011772333+1011822188+1012105848+1012118683+1011956891+1012026201
2435+1012316819+1012427946+1012145029+1011617364+1011087807+1010713355
2427+1010517313+1010405916+1010368829+1010621278+1011323031+1012211300
2418+1012738357+1012627163+1012175226+1011870287+1011760849+1011485228
2410+1010911896+1010347279+1010039975+1009909731+1009872103+1010012954
2401+1010310800+1010496911+1010387676+1010183055+1010221426+1010488129
2393+1010641207+1010561561+1010525284+1010702276+1010855286+1010750307
2384+1010546226+1010565749+1010921692+1011515222+1012141787+1012464020
2376+1012204612+1011560348+1011126989+1011250950+1011754634+1012317968
2367+1012728156+1012795238+1012471451+1012055993+1011985061+1012418623
2359+1013076803+1013378297+1012863873+1011697213+1010605133+1010096045
2350+1009998902+1009915338+1009729699+1009617627+1009739630+1010043623
2342+1010438139+1010881564+1011204473+1011187382+1010875620+1010614118
2333+1010684644+1010944390+1010938377+1010502856+1010087331+1010231221
2325+1010860420+1011377006+1011434562+1011314789+1011375655+1011558322
2316+1011592436+1011292429+1010665121+1009986202+1009599049+1009502920
2308+1009451376+1009454619+1009775433+1010436518+1011083686+1011354376
2299+1011215417+1010948916+1010852313+1010931014+1010914734+1010560750
2291+1009887978+1009176026+1008797520+1008991805+1009733752+1010774626
2282+1011742947+1012229337+1011939665+1010941350+1009802590+1009292556
2274+1009670454+1010343293+1010490021+1009933037+1009174066+1008771444
2265+1008969242+1009742669+1010808809+1011633915+1011806718+1011431725
2257+1010847585+1010200011+1009778406+1010278171+1011880622+1013511109
2248+1013840773+1012663102+1010803067+1009203452+1008440564+1008613029
2240+1009407263+1010410442+1011366806+1012195762+1012900149+1013374582
2231+1013293247+1012492257+1011480499+1011174682+1011944934+1013187592
2223+1014072754+1014434303+1014530973+1014303383+1013576231+1012677491
2214+1012082474+1011736935+1011344580+1010995798+1010994718+1011334988
2206+1011786452+1012401870+1013475102+1014880431+1015959675+1016453091
2197+1016986768+1018152415+1019710888+1021047041+1021703667+1021228694
2189+1019335220+1016612924+1014485239+1014069443+1015181384+1016492407
2180+1016718443+1015938666+1015719520+1017362774+1019933547+1020989080
2172+1019582062+1017391417+1016513619+1017341968+1019131341+1021371571
2163+1023610585+1024760221+1024001723+1022343945+1021623953+1021811754
2155+1021300099+1019350014+1016745262+1014660880+1013757749+1013886304
2146+1014118961+1013559207+1012406126+1011709846+1011956148+1012388494
2138+1012008840+1010938850+1010299383+1010804418+1012023567+1012963515
2129+1012808276+1011376398+1009457996+1008309171+1008293498+1008508118
2121+1008164808+1007678283+1007832577+1008450629+1008528925+1007505817
2112+1005947344+1004858236+1004534652+1004395626+1003931596+1003429332
2104+1003540661+1004435888+1005687058+1006773666+1007431913+1007616471
2095+1007359563+1006781840+1006210129+1006084952+1006564181+1007274309
2087+1007665786+1007543918+1007081442+1006486831+1005912081+1005548910
2078+1005575931+1006021991+1006779948+1007769751+1008999507+1010293371
2070+1010949524+1010020925+1007273566+1003907142+1001961718+1002584365
2061+1004922886+1006992339+1007549795+1006915867+1006197564+1006255053
2053+1007288023+1008811368+1009986743+1010432059+1010736931+1011753148
2044+1013538198+1015405664+1016744857+1017331159+1017060200+1016061209
2036+1015111331+1015134772+1016046482+1016824908+1016710337+1015781130
2027+1014740323+1014342565+1014420522+1013884075+1012507322+1011657221
2019+1012099971+1012362351+1010830831+1008480151+1007704562+1009281140
2010+1011853736+1013867862+1014860435+1014797542+1013429909+1011001743
2002+1008733343+1007970860+1009061859+1011046802+1012381874+1012285812
1993+1011533799+1011474419+1012242848+1012981890+1013581162+1014544416
1985+1015443494+1015187059+1013844623+1012697352+1012367958+1012183265
1976+1011562848+1010819482+1010365721+1010236220+1010332822+1010374706
1968+1009929862+1009102121+1008846564+1009999848+1012183603+1013909002
1959+1013859350+1012151785+1010205618+1009316200+1009390780+1009261144
1951+1008264383+1007004498+1006407928+1006575192+1006884657+1006779746
1942+1006146831+1005219854+1004307670+1003582274+1003062445+1002674820
1934+1002289829+1001851875+1001558690+1001660900+1001986781+1002072237
1925+1001943276+1002253552+1003258149+1004137772+1003913830+1002630572
1917+1001324886+1000797220+1000882474+1001062438+1001103308+1001020419
1908+1000891593+1000929694+1001357649+1001950707+1002102636+1001591116
1900+1000910644+1000656708+1000949014+1001503769+1001936588+1001964083
1891+1001511673+1000805665+1000312655+1000332110+1000717101+1001083920
1883+1001114522+1000749527+1000251856+999965224+999839438+999444584+998680007
1873+998052496+998014531+998443027+998897125+999174435+999349941+999450326
1863+999409861+999157141+998667441+998059117+997622785+997587589+997846524
1853+998068439+998081545+997972107+997849564+997737627+997650617+997543679
1843+997253804+996761875+996318517+996185571+996382558+996657639+996800313
1833+996857464+996946500+997031821+996967915+996629266+995936701+994987498
1823+994124494+993577779+993245750+992916627+992489887+992049164+991753210
1813+991596687+991391322+991086180+990918849+991060645+991387539+991674847
1803+991776381+991651203+991393146+991198455+991219262+991481980+991880752
1793+992159413+992037410+991575542+991128942+990883585+990766041+990593373
1783+990300188+990042064+989977077+990022541+989965052+989728410+989374629
1773+988918706+988323149+987734347+987383471+987224719+987014288+986577888
1764+985871407+985024549+984399403+984131010+983813844+983095541+982178899
1754+981341903+980358721+978792208+976726673+974761794+973081858+971300726
1744+968984971+965828099+961605021+956695255+952354565+949606598+948917817
1734+950658889+954102663+957782944+961305756+964607396+967412716+969661120
1724+971544799+973233315+974800773+976177796+977071402+977326824+977497196
1714+978118153+979143827+980363112+981550983+982450264+982873963+982924899
1704+982990562+983288475+983656240+983787565+983675898+983612262+983714539
1694+983852080+983865050+983763651+983736022+983975906+984417372+984718326
1684+984509111+983989957+983720011+983711634+983706635+983550180+983339141
1674+983336979+983506405+983452767+982975767+982447089+982288066+982331504
1664+982274758+982077500+981925436+981955633+982104522+982212946+982068313
1655+981471270+980827884+981117421+981929151+982494985+982586791+982379805
1645+982278609+982390276+982584697+982703457+982605571+982280298+981972927
1635+981998732+982249020+982453574+982517615+982431551+982261991+982144514
1625+982165050+982290296+982410475+982447967+982371158+982150324+981898144
1615+981888619+982135597+982402233+982495255+982379197+982170590+982032374
1605+982060544+982240238+982472489+982654007+982751285+982793979+982801613
1595+982735815+982564633+982366294+982289350+982408786+982645968+982856197
1585+983006910+983205249+983484720+983672588+983581525+983210788+982783306
1575+982607462+982656642+982644887+982438780+982189775+982187343+982445873
1565+982750002+982902674+982751826+982155255+981147077+980551453+980936984
1555+981655625+982373455+982965026+983225447+983102634+982849711+982735140
1545+982710685+982431822+981559022+980335752+979986092+980965897+982137759
1536+982872545+983174174+983224772+983206465+983147693+983017854+982903282
1526+982968539+983204506+983373121+983232203+982802491+982360012+982218216
1516+982552203+983162082+983661172+983862145+983775203+983396967+982768984
1506+982417906+982615028+982909227+982929628+982553284+981885174+981180719
1496+980661093+980339738+979999400+979335141+978190841+976744913+975140368
1486+973131376+970327744+966214104+960207529+951938297+941106736+927312049
1476+910617602+891723998+871934491+854604291+842891285+835608748+829850908
1466+823840077+817376904+811364587+806294110+801599098+796213684+789830630
1456+785212428+785101301+788576082+794264139+801378602+809232917+816705078
1446+822251407+825609049+828582444+833207199+839933563+848145104+857436701
1436+866695128+873691371+878459543+883631960+891736158+902885492+914390635
1426+923947652+931251063+936682887+940616969+943609481+946155056+948310843
1417+950057320+951651124+953245401+954697882+955754699+956351472+956671679
1407+956858871+956817933+956356674+955272430+953185751+949687326+944849235
1397+939218801+933370776+927879166+922790585+916721590+906890709+890460938
1387+868276030+846592238+831073705+822617550+819438858+819194920+819913561
1377+820513780+820718874+820809802+821372055+822703884+824817180+828215017
1367+834127962+843850418+857808654+874139322+888599822+898463129+904487201
1357+908215580+910229369+910554034+909460738+907718652+906230165+905377632
1347+904755053+903833277+902894477+903054243+905362770+909765474+914617279
1337+917833936+918735716+918041327+916562297+914274847+910399402+904439507
1327+897202772+890759325+887389793+888312447+892961859+899253377+904771266
1317+908408177+911096358+914549184+919366131+924595360+928961789+931963083
1307+933718342+934457181+934365240+933522840+931839324+929078184+924923066
1298+919391329+913707190+910361842+911385152+916492852+923380129+929667729
1288+934280662+937343701+939393901+940785246+941486390+941148890+939327496
1278+935738075+930445277+923927588+917103338+911304357+907894968+907562129
1268+910001576+914318217+919499415+924549626+928602468+931177496+932309028
1258+932431233+932177500+932053403+931977878+931195668+928904435+924964949
1248+919948245+914748334+910329416+907541660+906809982+907941378+910280439
1238+913052523+915682270+917947022+919874408+921531308+922973521+924329467
1228+925778368+927406152+929127094+930703401+931761434+931799332+930354214
1218+927401424+923664330+920333236+918265742+917358355+916595669+914665377
1208+910715218+904897051+898368419+892645706+888765060+886923534+886734856
1198+887688112+889388787+891535860+893848170+895983150+897359025+897127382
1188+894640444+890130464+884913529+880906489+879801168+882306480+887876183
1179+895157841+902785377+909851673+915878987+920583524+923750123+925318527
1169+925495519+924655619+923136462+921166719+918897035+916399086+913631799
1159+910433044+906660214+902503069+898637757+895911948+894862697+895574245
1149+897873044+901459830+905861589+910458985+914701992+918221697+920674789
1139+921618858+920701000+918059229+914619035+911891808+911117300+912430890
1129+914933635+917439893+918969859+918789084+916413408+911584166+904066136
1119+893632875+880739765+867480918+857412314+853434930+855261593+858972949
1109+858988554+850466331+830711074+799860188+761272463+721220435+687204503
1099+665082757+656754415+660194541+671536540+687119384+704104923+720152607
1089+733275603+742206190+746935046+748982814+750989239+755550561+763928623
1079+775579007+788848933+802225528+815067093+827389978+839285584+850620152
1069+860997208+869793228+876377120+880448877+882146985+881976614+880901355
1060+880380310+881810295+885656422+891184240+897058679+902149490+905911917
1050+908344068+909806277+910790338+911647262+912434943+913019489+913306324
1040+913364420+913353274+913318078+913049145+912166753+910327254+907331432
1030+903170909+898196223+893213566+889075944+885835845+882114829+875305914
1020+863029101+845763281+828714715+819793990+823980454+839407924+859244246
1010+876791632+888550710+893879312+893615986+889467352+883917579+879748476
1000+878848925+881090776+884472333+886699998+887005815+886677637+887791064
990+891279221+896167100+900452396+902462604+901496647+897542232+890568012
980+880163191+865987837+848652368+830134432+813053035+799204710+789161709
970+783754812+784953695+793816796+808149822+823867571+838461018+851793905
960+864037887+874514585+882555552+888253337+892097167+894379888+895055767
950+893978279+891211870+887218611+883052210+880554937+881842181+887836393
941+897232226+907261446+915534799+921139967+924360677+925750131+925407699
931+922920559+918119014+912010028+906598064+903263728+901432133+899410238
921+896618091+894457373+894785888+898065168+903319190+909349476+915370237
911+920737750+924810385+927291513+928390956+928505258+927838701+926360009
901+924076410+921328038+918706127+916589927+914965250+913891815+913903029
891+915564050+918697413+922343646+925514097+927870384+929754942+931711714
881+933933299+936066185+937587977+938404301+938934398+939527456+939997970
871+939892181+938920685+936782732+932853717+926687984+919015660+911954498
861+907982248+908468503+912829459+918861704+924101540+927277935+928724809
851+929557684+930573427+931880397+933246949+934437118+935248645+935629786
841+935866428+936332484+936986273+937461246+937685660+937995328+938527993
832+938953043+939023300+939089232+939790714+941311358+943050336+943987176
822+943308528+940737012+936436247+930924439+925250973+920900015+918925070
812+919054842+920038632+921002089+922134566+923958595+926427023+929051501
802+931550395+934024497+936713692+939771394+943079992+946240377+948882621
792+950866145+952083268+952407595+951975316+951054621+949502835+946897881
782+943422154+940183474+938466518+938884678+941209013+944685348+948450815
772+951817915+954366394+956018768+957059372+957806655+958236502+958225694
762+958100178+958465713+959420321+960344461+960612583+960281636+959970279
752+960168077+960807882+961516660+962064186+962374057+962319338+961848824
742+961183821+960567322+959947446+959178004+958405253+958004792+958230220
732+959067013+960268395+961408979+962092694+962290898+962375138+962743578
722+963467353+964254561+964658130+964380280+963471339+962292047+961385808
713+961244958+961914487+962909761+963782898+964575173+965441757+966166681
703+966463986+966464662+966490940+966546065+966341173+965723728+964843431
693+963905104+962909221+961632245+959845979+957707621+955993030+955685389
683+957151043+959826051+962754184+965223895+966899305+967761971+968142504
673+968612207+969638219+971251817+972643973+972547775+971317953+970186489
663+969524864+969220600+969257552+969755831+970447518+970403608+968828448
653+966084265+963445263+961870036+961454511+961945494+963162279+964700351
643+965643812+965124591+963232805+961009937+959442681+958748495+958597647
633+958684927+959069580+960067489+961753100+963648803+965014815+965201197
623+963604826+959698576+953328358+944795867+934984239+925958400+920821855
613+921836991+928605576+938440510+948414741+956811448+963024739+967076432
603+969478386+970963023+972047064+972913986+973586015+974131514+974723018
594+975360999+975723292+975720387+975887449+976693234+977925151+979109915
584+980078979+980939754+981898685+983149990+984589500+985680162+985926667
574+985575588+985484255+985986317+986199450+985050557+982819582+980786744
564+979661089+979269748+979373241+980043243+981441816+983480329+985531407
554+986717928+986873370+986875532+987552154+988431979+988130012+986211069
544+984188094+984148102+986660304+990291271+992868596+993222174+991921419
534+990353083+989194935+988110691+986726170+985260583+984310975+984341914
524+985130541+985913426+986467235+987537022+989621066+991700923+992467730
514+992311544+992467594+993081526+993457735+993568119+994031878+994967908
504+995922853+996429509+996130987+995306421+995213872+996807474+999400674
494+1001384266+1002086220+1002152356+1002243216+1002179715+1001558893
486+1000637117+1000184437+1000566118+1001492893+1002702990+1004240386
477+1006057997+1007795354+1008915604+1008916212+1007838251+1006545198
469+1005771906+1005224717+1004282270+1003540458+1004649089+1007916749
460+1011320801+1013026475+1013691275+1014612781+1015313925+1015380534
452+1015978861+1017937863+1020074194+1020653133+1019369672+1017328660
443+1015879759+1015863005+1017320553+1019692176+1022285038+1024141290
435+1023933358+1021131416+1016966367+1013561234+1012589806+1014726272
426+1019300700+1023984429+1026533179+1027532777+1028969653+1030421594
418+1029857044+1028141913+1026606408+1024822709+1023545463+1025748673
409+1033051409+1042670507+1049491785+1050704652+1047745916+1044485416
401+1044600461+1049045725+1053065330+1050530970+1045597560+1046352072
392+1053352233+1061426842+1066251557+1067968986+1068785850+1068451187
384+1065076791+1060522765+1058819658+1060780754+1064929861+1070017564
375+1073579220+1073741823
##END=
