##TITLE=X8625
##JCAMP-DX=5.0
##DATA TYPE=LINK
##BLOCKS=1


$$ === CHEMSPECTRA SPECTRUM ORIG ===
##TITLE=X8625
##JCAMP-DX=5.00
##DATA TYPE=INFRARED SPECTRUM
##DATA CLASS=XYDATA
##ORIGIN=ComPlat
##OWNER=
##XUNITS=1/CM
##YUNITS=TRANSMITTANCE
##XFACTOR=1
##YFACTOR=7.9225543e-010
##FIRSTX=3997.453
##LASTX=373.96442
##MAXX=3997.453
##MAXY=0.8506777888975935
##MINX=373.96442
##MINY=0.18231111796058372
##NPOINTS=2559
##XYDATA= (X++(Y..Y))
2559G83413632G83559511G83582306G83627673G83977887G84656575G85459548G86140793
2551G86491911G86453843G86206849G85961586G85693451G85328491G85057949G85086237
2543G85212027G85117308G84927944G84963078G85127014G85079917G84863845G84886039
2535G85355349G86041936G86563459G86741237G86655470G86482131G86324139G86149521
2527G85882138G85569014G85424941G85630931G86126498G86716109G87222209G87437454
2519G87216942G86714529G86281030G86190147G86554807G87249293G87711682G87260953
2511G86075942G85208417G85396954G86343474G87056919G86929397G86303675G85886502
2503G86015679G86426382G86640423G86564888G86499960G86667808G86933685G87018776
2495G86809249G86270121G85357456G84385732G84011442G84351952G84741363G84622042
2487G84092844G83623384G83691546G84341344G85008821G85387324G85746491G86095051
2479G85913511G85151388G84510319G84576751G85259200G86097459G86663219G86621689
2471G86212792G86285619G87036079G87581527G87591006G87655106G87841310G87507647
2463G86609878G85866264G85695633G86140492G87300001G88992919G89924092G89353742
2455G88573188G88255173G88130285G87862150G87315649G86566092G85915090G85777638
2447G86340690G87157808G87464387G87171727G86849800G86908106G87215739G87485980
2439G87630429G87548725G87140354G86707081G86785023G87261406G87469804G87583333
2431G88158497G88873823G89020380G88617802G88049859G87617037G87551885G87790753
2423G88020668G88364789G89157381G89964267G90140014G90140465G90648747G91421778
2415G91663279G91074572G90065532G89331247G89277831G89692596G90035062G90038899
2407G89974950G90299133G91093531G91900944G92316236G92360098G92135524G91665536
2399G91028679G90434856G90209004G90532510G91026798G91025595G90555381G90409653
2391G91079538G91971513G92085117G91110910G89471935G88227412G88540235G89718251
2383G89941847G89381502G89242395G89583808G89108027G87442720G85358283G83731947
2375G83488113G85076005G87299173G88325592G87916469G86916232G85956620G85262059
2367G84897023G84905600G85298546G85963166G86645690G87066398G86994475G86354985
2359G85470683G85098048G85862728G87412551G88819204G89530166G89391585G88679118
2351G88012769G87770816G87743807G87698666G87710629G87773373G87597401G86911416
2343G85956545G85546293G86051867G86663896G86885686G87048793G87334232G87594090
2335G87648636G87382306G86873198G86578882G86761474G87036155G87453779G88435660
2327G89626466G90203361G90225104G90218107G90447270G90866851G91339697G92007776
2319G93186093G94432422G94555204G93385915G91990548G91334957G91376712G91367684
2311G91412750G92048403G93142457G94066031G94376222G94228235G93984854G93739214
2303G93500497G93416535G93608909G94114858G94878109G95407305G95263082G94812655
2295G94709584G95381801G96706974G97832929G97924940G97269801G96622186G96182744
2287G95690111G94910685G93900893G92957381G92350016G92087976G92122508G92565336
2279G93413224G94240274G94655491G94881645G95272411G95531818G95184312G94482829
2271G94060991G94114106G94247195G94140664G93972064G94014797G94300762G94496446
2263G94144802G93268851G92495444G92354079G92653436G92781032G92471143G92097756
2255G92244538G92915476G93604771G93989067G93924817G93400360G92700908G92201429
2247G91978209G91818863G91524623G91128213G90790939G90564410G90424774G90441477
2239G90592472G90543645G90021370G89216289G88583570G88392024G88554003G88800395
2231G88972004G89130146G89413553G89832306G90253315G90591569G90929972G91375658
2223G91834436G92055550G91952404G91758525G91774776G92024930G92305628G92530277
2215G92803979G93119436G93254330G93114771G92901482G92841596G92934510G93006810
2207G92886737G92570151G92343471G92541638G93103787G93657585G93994634G94168350
2199G94292862G94462666G94646463G94594852G94192350G93840404G94006973G94570175
2191G95068299G95277903G95221628G94975462G94756380G94815363G95036853G95034821
2183G94732455G94456722G94450403G94647290G94902259G95180249G95497511G95725922
2175G95538213G94803928G93999524G93776531G94081003G94186256G93723415G93082571
2167G92706701G92639818G92787578G93153366G93731917G94371708G94776467G94678813
2159G94116965G93470553G93116201G93118081G93287057G93378993G93177441G92575192
2151G91726776G91012278G90666653G90551845G90464122G90470894G90646264G90717812
2143G90410481G89871729G89359911G88797461G87984029G86978601G86033133G85360615
2135G85055165G85057347G85157709G85132506G84944345G84799369G84915982G85242724
2127G85538919G85660348G85598430G85330447G84831042G84167402G83508727G83102689
2119G83191616G83861952G84952997G86076392G86807668G87069182G87233268G87606053
2111G88016681G88218986G88436938G89147525G90463445G91981068G93158031G93672181
2103G93479281G92778324G92000930G91590001G91638226G91831427G91755817G91241818
2095G90553575G90229016G90557638G91310431G92138834G92956629G93736431G94302417
2087G94588006G94798436G95069579G95183258G94891952G94387582G94155861G94427607
2079G95024740G95637371G95994282G95930107G95583353G95375180G95557097G95930559
2071G96160173G96207345G96301764G96566061G96830660G96847663G96578173G96210956
2063G95983298G96036788G96383318G96912364G97392358G97586311G97525221G97504833
2055G97590825G97419216G96811475G96210054G96113002G96419882G96636556G96453060
2047G95905431G95156550G94313552G93465287G92766588G92325039G92059086G91799754
2039G91424035G90826074G89970210G89022035G88234108G87737638G87551432G87597176
2031G87553765G86935792G85509128G83503913G81334762G79253034G77342614G75725607
2023G74619063G74163746G74237476G74505986G74667063G74571816G74151107G73451430
2015G72737382G72259645G71958408G71674700G71537699G71849469G72740166G74167809
2007G76078756G78378136G80828437G83089523G84922903G86381618G87658416G88719518
1999G89319360G89396174G89183487G88911290G88614115G88220942G87690390G87105220
1991G86723557G86863116G87605226G88686491G89846826G91165982G92762751G94329577
1983G95434992G96180261G97086230G98369348G99680980H00520066H00692954H00440995
1975H00230641H00352971H00719662H01073788H01310175H01526323H01838469H02225624
1967H02531601H02597280H02431991H02257222H02323503H02691322H03237899H03813290
1959H04296669H04559913H04450145H03835107H02784764H01750821H01317397H01636917
1951H02315529H02915671H03296130H03402585H03089688H02345998H01431151H00560241
1943G99593182G98234980G96454941G94573561G93035550G92177956G92072703G92507180
1935G93189554G93966873G94802273G95613748G96218028G96496921G96634525G96999861
1927G97618813G97999422G97695551G96722097G95207333G93140802G90797484G88926412
1919G88107489G88218986G88796257G89623080G90686664G91816531G92777346G93619893
1911G94579203G95675440G96678009G97350302G97472783G96786949G95131722G92508459
1903G88925884G84375801G79063820G73604305G68936404G65947879G65000531G65645964
1895G66694051G66679380G64684698G60953236G56590710G52708854G49933166G48319620
1887G47315395G46041681G43980041G41258069G38283237G35517630G33633392G33314399
1879G34599097G36723258G38920847G41299825G44599216G49116199G54287041G59312229
1871G63680849G67065933G69308662G70627818G71430791G71972477G72498138G73459480
1863G75219958G77695536G80433006G82912195G84804711G86152079G87251400G88290458
1855G89243373G90066360G90694188G90896493G90482856G89650691G88862990G88408651
1847G88215976G88006600G87581753G87058349G86771782G86833849G86940757G86725513
1839G86095803G85131452G83861275G82233660G80168030G77619400G74678121G71569974
1831G68539243G65826526G63765111G62750579G63023904G64474494G66637776G68925119
1823G70982471G72854898G74718673G76503452G77941854G78956386G79764927G80546384
1815G81210701G81596050G81711911G81624489G81232293G80363113G79045087G77497370
1807G75901504G74389373G73209552G72633183G72644091G72913656G73181339G73539529
1799G74242817G75338902G76633382G77944637G79215718G80398323G81406460G82202362
1791G82845990G83506922G84457580G85871530G87531195G88911516G89672357G89944706
1783G90082685G90327347G90806663G91624609G92726112G93826411G94682575G95320485
1775G95882409G96438841G97021529G97609784G98055848G98200824G98000250G97478275
1767G96770849G96235708G96193577G96541460G96887612G96999485G96897919G96648894
1759G96315155G96024752G95897230G95878798G95708768G95141954G94259308G93477701
1751G93180299G93432184G94100564G95066269G96200198G97303582G98234378G99018995
1743G99764038H00562573H01513533H02702458H04125436H05685190H07216581H08508050
1735H09424251H10048092H10599859H11204441H11816621H12349127H12792257H13181593
1727H13492235H13662640H13745472H13913621H14232990H14565826H14800105H15053118
1719H15487519H15984967H16202545H15999864H15640771H15498203H15711791H16190733
1711H16773948H17305703H17663591H17796455H17764781H17736644H17844153H18027875
1703H18165252H18336786H18754561H19422038H20063108H20437850H20608405H20810635
1695H21116085H21356759H21432670H21509936H21771224H22106166H22226992H22049891
1687H21802446H21747224H21935234H22274315H22694347H23150341H23544267H23708352
1679H23507401H23061790H22786433H22978431H23457447H23836401H23956474H23853178
1671H23590611H23345347H23376946H23785768H24447677H25109362H25470937H25391265
1663H25079795H24880801H24893816H24987257H25066629H25141863H25240721H25395478
1655H25630058H25885327H26034968H26016912H25909176H25861026H25979746H26273083
1647H26662796H27038741H27309208H27438159H27469682H27498497H27586220H27725704
1639H27884448H28031380H28121661H28106539H27996698H27908899H28005575H28331188
1631H28759346H29162676H29546746H29937061H30262825H30453017H30553378H30707007
1623H31062940H31646681H32267137H32643985H32682204H32572512H32569879H32707934
1615H32803255H32762102H32746303H32926564H33221858H33434846H33517151H33553039
1607H33571622H33497441H33259851H32881047H32448150H32047679H31735457H31519535
1599H31389080H31441969H31864484H32627508H33345844H33666868H33704560H33897761
1591H34459836H35125280H35476324H35397704H35114673H34951866H35204202H35979114
1583H36946549H37512310H37416536H36937295H36532461H36550517H37097092H37876067
1575H38397665H38545500H38632245H38813935H38883226H38710112H38455294H38274657
1567H38189265H38259836H38587481H39109530H39569361H39707265H39469676H39042421
1559H38601097H38077317H37325203H36365892H35271461H34026111H32642706
1552H31151791H29485882H27709454H26262476H25647361H26012247H27178301
1545H28830517H30635835H32404289H34159576H35954963H37738012H39439582
1538H41024841H42332935H42975361H42588281H41212549H39303032H37407208
1531H36013872H35554567H36172992H37543908H39186796H40863539H42489047
1524H43874935H44824390H45396545H45912350H46708403H47880701H49209486
1517H50355302H51174978H51792273H52354122H52856460H53277846H53729853
1510H54357607H55145609H55915706H56546168H57131339H57788208H58349605
1503H58482920H58152115H57748710H57684761H58019628H58538442H59049959
1496H59475709H59739555H59793798H59719919H59561702H59158822H58476224
1489H57959516H58159112H59028593H59869108H59987226H59326219H58438757
1482H57875178H57748860H57967039H58573276H59562379H60544184H60973771
1475H60801259H60708872H61505752H63283308H65324862H66859186H67724303
1468H68302929H69014117H69880739H70467716H70284295H69356959H68309399
1461H67769067H67793143H68008989H68106418H67882822H67033579H65389788
1454H63203786H60695405H57487572H52994214H47119181H39990071H31153597
1447H19717408H05542546G90101042G76076724G66165832G61934966G63116593
1440G67535468G71919211G73307130G70322969G63903993G57254651G54485583
1433G58170626G67673223G79894631G91736106H01840726H10286359H17336773
1426H22963083H27290926H30862817H34176805H37229204H39765948H41774097
1419H43452420H44932501H46337348H47854068H49453621H50930542H52532125
1412H54919756H58042725H60777184H62255384H62935350H63878485H65476985
1405H67247169H68533371H69081677H69042706H68768854H68701896H69107106
1398H69735010H70076724H70036098H70035120H70575752H71826369H73458724
1391H74963105H76117423H76959217H77627973H78290936H78879944H79037485
1384H78520401H77415813H75881564H73986943H71892951H69976663H68734246
1377H68588367H69580856H71196283H72767849H74081361H75298875H76384429
1370H77018126H77185747H77473668H78530632H80501541H83113745H85993406
1363H88782561H91231056H93299167H95047683H96499024H97783421H99266437
1356I01229144I03517165I05759443I07803930I09689749I11397262I12938659
1349I14496457I16162742I17663588I18595588I18815648I18296683I16574423
1342I12641785I05643883H95693116H84181392H73514096H65950283H61811729
1335H59198998H56473190H54715646H56845148H64482239H76209660H88723427
1328H99346486I07422267I13567391I18335805I21975406I24744022I26938978
1321I28981358I31434441I34521148I37980789I41660791I45514659I48941800
1314I51243663I52871051I55029519I57936115I60579240I62332195I63775637
1307I65700577I68114615I70477568I72339161I73643495I74888168I76895190
1300I80013795I83717721I87235443I90292732I92983631I95252392I97007378
1293I98675168A001017884A004189002A007543842A010603764A013517507A016429293
1286A019305569A022503847A026527067A030902233A034126241A035290338A035329159
1279A036141311A038824537A043259964A048750100A054247006A058594034A061340004
1272A062989211A064304605A065919957A068269669A071058824A073171624A073741822
1265A072916429A071072892A067433291A060230677A049008679A035631525A021410846
1258A005125215I84805607I59336824I28411460H92775612H54339250H14911753
1251G75316860G36152381F98347684F62473420F28097932E94095417E59571869
1244E24569680D89883325D56357795D24761004C96126971C71551932C51474050
1237C35499776C22948354C13261095C05964965C00544892B96295104B92229997
1230B87541237B82360296B77694294B74452549B72862213B72796233B74144165
1223B76581318B79281358B81270266B82093120B81998946B81599848B81642299
1216B82916332B85896901B90519343B96481967C03568006C11724927C21127839
1209C32005452C44078912C56333912C67601426C77083371C84014465C87229746
1202C85799470C80227931C72557812C65175689C59810516C57432443C58332017
1195C62128707C68118435C75683188C84248631C93265479D02656052D12958500
1188D24545045D36853047D48841153D60103326D70937115D81424038D91282417
1181E00779559E10696809E20934668E30121545E37236549E42992562E49058313
1174E56383559E64645019E72861488E80096528E85986044E91141537E96659848
1167F02799930F08464383F12304483F14164797F15296657F17259177F20486270
1160F23914350F26404750F28231548F30740117F35047421F41166964F47777637
1153F52831866F54981756F54588733F53406051F53440133F55792026F60135895
1146F65211039F69747582F72895904F74274268F74226194F73828582F74166082
1139F75483958F76999173F77627002F76972917F75568747F74310456F74043676
1132F75466429F78717446F82923184F86612815F88936121F90589767F93279837
1125F97567205G01551605G02870083G01334404F98664043F96355033F94820332
1118F94109069F94113432F94375398F94710791F95620297F97445477F99712055
1111G01812893G03779287G05898933G07969903G09629117G11266663G13749238
1104G17302847G21133167G24208512G26197025G27520243G28613771G29320295
1097G29170353G28095408G26596594G25358165G24855450G25199420G26143007
1090G27391216G29044411G31320921G33953438G36276668G37826491G38752021
1083G39815906G41926600G45244952G48790812G51379467G52828477G53713606
1076G54147105G53451039G51063108G46978196G41023866G32856224G23155836
1069G13609604G05740566G00995925G00829583G05557671G13777000G23171184
1062G31658045G38025485G42057508G44454617G46468108G49283595G53213373
1055G57391577G60975505G63950714G66471884G68449714G69906322G71239546
1048G72872578G74765394G76381798G77213362G77382563G77537770G78156421
1041G79292607G80885464G82640676G83794917G84054024G84035517G84345030
1034G85040645G85849035G86601979G87360339G88243286G89183186G89854350
1027G90070422G90032579G90054247G90293567G90732332G91303811G91921107
1020G92419758G92646740G92647417G92601750G92497851G92025682G90975188
1013G89523545G87914212G86208880G84498733G83076733G82116445G81292782
1006G80166602G78797792G77728413G77623087G78673505G80111380G81119517
999G81768412G82606746G84022652G85829926G87367561G88002988G87508249
992G86152379G84482483G82995029G81764650G80066089G77044085G73190593
985G70153843G69372160G71081028G74652994G79211354G83539423G86759368
978G88937171G90315911G91011375G91415458G92188413G93931663G96644832
971G99501772H01780464H03427940H04663210H05614996H06341156H06954841
964H07653164H08787845H10833687H13567921H15523707H16304111H16933519
957H17957907H19213264H20387142H21238792H21648969H21785142H21999033
950H22583753H23628002H24931434H26219367H27378423H28439225H29493029
943H30604839H31735683H32707031H33423335H34142047H35216089H36431722
936H37070986H37180603H37319033H37614779H37971915H38480046H39248939
929H40224049H41418390H43113190H45253676H46825918H47420418H47536956
922H47356469H46808163H45992851H45235770H44637508H44006219H43380647
915H43091071H43153666H43293976H43413524H43483266H43356948H42868227
908H41973317H40799439H39678075H39147448H39586063H40118871H39963362
901H39353966H38495545H37558579H36829485H36525163H36765235H37567757
894H38984792H41554038H46118642H51838016H56616060H60432010H64382855
887H69040675H73970617H78344879H82112529H85595267H88348836H89835312
880H90383017H90532657H90199822H88533461H84389791H75913162H59754677
873H32210185G92995826G47200813G01565673F60016499F23422470E92141173
866E67900813E53365994E50316755E58215021E74381857E95891181F21046576
859F48624322F76612921G02683427G25445963G44552046G59839545G70807401
852G76012851G71345401G52372182G27961190G16560962G22870999G43166910
845G71210807G96320573H13263523H25058730H34114210H40667704H46069815
838H53972032H65038520H72834281H77031743H80589189H84227360H87711603
831H90986017H93990869H96722319H99609354I03092543I07188816I12574902
824I20205975I27844195I34104125I41267693I52111338I66306137I79859264
817I91294851A002828393A016251214A030585948A043853110A055338126A063280894
810A062961298A048749874A015641667I63084085H95311002H14335158G22402367
803F26003188E27012382D27098113C59117875C39329344C41425402C50010972
796C62968170C81327215D05506560D32154111D56075441D77140207D99389608
789E25600727E52999152E76143050E94028873F08824717F22446984F35604304
782F47884394F58853229F68685953F77686512F86264933F95108328G03875060
775G11052396G16379348G20904606G25720869G31005088G35706995G39108781
768G41638604G44102070G47075774G49832804G50766911G49235219G44224251
761G32948912G11477168F78782448F41217898F08715439E88019660E81888304
754E89099871F06048653F30466565F58836075F82877592F98930597G10712639
747G22012880G33779271G45133681G55691135G65913270G75613959G83908973
740G90841873G97248059H02924999H07148418H10489115H13856519H17488221
733H20949967H23476029H24665857H24463553H21701181H13001784G93375909
726G57599449G05141777F47589025F03229329E82228137E83473186E98883956
719F19871833F41981073F63068597F80167057F90659735F94947779F95056944
712F92416301F87615461F81075735F73415998F65383551F58107734F53064338
705F50999313F51757522F55037128F60430135F67554958F76500296F87057826
698F97708871G07089288G15566292G24217238G33606985G43559030G53486775
691G62912483G71722925G80162314G88742465G97810434H07029548H15638138
684H23142742H29360918H34112028H37516748H40367896H43766974H48612804
677H55365293H63964102H73890718H84432674H95051520I05581965I16120611
670I26721701I37102205I46461631I53551620I56997569I55541488I48291852
663I35332548I17761693H95977652H67840540H30097385G82501944G28581270
656F70856984F07525386E36347282D61114209C92677938C43341016C19808757
649C20040969C35387602C55559602C72837758C83940623C89891905C93950862
642C98085880D00275531C95359769C79601758C55163156C29890094C12394906
635C07261813C14007136C28944589C47507181C65917234C82139631C96013255
628D08587661D21186443D34756686D49699311D65996302D83264226E00716738
621E17350816E32338507E45240821E55926173E64475178E71309483E77365266
614E83885695E91736978F00836658F10364872F19550432F28124979F36101301
607F43456639F50129004F56137352F61646597F66930440F72143036F77058307
600F81125314F83803799F84854143F84459540F83213738F81941077F81340333
593F81599138F82270528F82540016F81682197F79462414F76297239F73001458
586F70283098F68352290F66615284F63246149F54912390F37453183F08234731
579E69173850E27314184D91685295D69442552D63468736D70440645D81265331
572D87357452D87908016D88796042D94321988E02524991E08274268E08055035
565E01467425D90387018D77881827D67336897D61645400D62558404D70395542
558D84191676E02213183E22647787E44041363E65266039E85440483F04080001
551F21096080F36566699F50660910F63652338F75818374F87422711F98769447
544G10091581G21046271G29345122G29265825G13115015F76942748F26072704
537E74552789E38133904E25788022E35369351E56458154E78332852E96101987
530F10128637F21655408F30133015F32639854F23601640E97335036E55087727
523E09115049D75717793D63168515D68009379D81679683D97509771E12229365
516E24731058E34977532E43164509E49307639E53328076E54997258E53933485
509E50195289E44728665E38836854E33387647E28826164E25782680E25296781
502E28287074E34836317E43998630E54262521E64298114E73459374E81685774
495E89030092E95395877F00654742F04847389F08223784F11094944F13665732
488F16062842F18438510F20876998F23275462F25462556F27351421F28905156
481F30092012F30944716F31606211F32252547F32906182F33359318F33422364
474F33184247F32886772F32687853F32654299F32770987F32893919F32892941
467F32823199F32769031F32549647F31860052F30900027F30554025F31497423
460F33396634F34868966F32530915F20205458E93569042E58414768E30316025
453E21912637E32399522E51429091E70184357E86328472F01155463F15665605
446F29549236F42176456F53390403F63315891F72040266F79787501F87023970
439F94176403G01359833G08336218G14689665G20178446G24905707G29138003
432G33101111G36871770G40310647G43255611G45827114G48301790G50749607
425G53065991G55251918G57439275G59754079G62267726G64964042G67708733
418G70313188G72638149G74603791G76101326G76866457G76501647G74971159
411G73318792G73316008G75600342G78603086G80359878G80971908G82034139
404G84068394G86013723G86824897G85851067G82159554G75869078G70119235
397G69104703G73649596G80814142G87831455G94166319G99949039H04838806
390H08649640H11601075H13928443H15876254H17753797H19750059H21887611
383H24040887H25974103H27548829H28784925H29758079H30721828H32065510
376H33816509H35266571H34966237H31247188H23943008H16176514H13037821
369H16679604H22718271H23666823H17657422H12114849H16388749H31432941
362H46838483H45263381H12469502G51760679F89102238F54957606F58610448
355F85306074G15728573G40551846G58908222G72415456G82939882G91957670
348H00034129H07173169H13472148H19339431H25231843H31112745H36242132
341H39119010H36783818H25047971H01997514G72165829G45657686G31816338
334G33565305G47235721G66427572G85634543H01598999H13046548H19776993
327H21647765H18014333H07501868G87793160G57350875G20118259F86856349
320F66128745F52994747F32535429E96742868E51534080E03844183D49760514
313C83047105C11209386B54858912B30116590B34576261B50040938B57318559
306B50409547B39116604B38018092B53011387B78981550C07803292C34982316
299C59255967C78731863C88579672C83077424C61101197C29863085C02532690
292B91204857C00565393C26612294C60898328C96263333D29228294D58725375
285D84449127E06648573E26273846E44275830E60698575E74756147E85781106
278E93931482E99929636F04099750F05947538F05164577F02717210F00056518
271E97363776E93408229E87120950E78749687E69575036E61003047E54045170
264E49305758E46950178E46622759E47854831E50635634E55306169E62102368
257E71076333E82261616E95782618F11513622F27897696F41285984F47994988
250F48232202F47321793F50571455F55789394F54269514F43081372F32968251
243F37670835F58485259F84733767G06123206G19799266G27114205G28787261
236G23719114G08725103F78864604F32743602E80669887E43540906E37201114
229E57717724E86116462F06196375F14176797F14939408F15499752F21164994
222F32960201F47551859F60625068F69971855F75518867F77741208F76830649
215F73057357F66787870F58036186F46891755F32774297F10943761E74317833
208E31546817E04045773D94719751D96079721E03016194E12767287E24430497
201E38553824E55507194E74978689E96633967F20118676F44486370F67418107
194F84079231F87687610F74733347F51518729F32205678F27551695F37973953
187F57915059F81975309G05627037G25363807G40504675G52448168G62281795
180G70545210G78066441G85689163G93641937H01551225H08936433H15576070
173H21172135H25150139H27454485H28684111H28704199H25418424H13850350
166G86291111G38145634F77348335F23066236E89407654E73313833E61582613
159E45834832E27216267E10631016D99675461D96186403E01169046E14797106
152E36196400E63602010E94353169F25200628F53384534F77596983F98182846
145G16266948G32101550G44416549G51846897G54270865G51713356G43067827
138G28545158G13973963G09233009G19919415G41964970G65599770G83529115
131G94545499H01243593H06608764H12367334H18828742H25310990H30322410
124H30944821H22201413G98805556G59960747G12901726F70627520F44486144
117F35811047F32910997F17600251E78310658E20924623D67726010D42326405
110D52731435D86838674E20178415E31995665E19936274D99762655D94128373
103E15637321E51467348E71080057E52677037D95540593D16625750C44796946
96C08338715C17155439C56850055D03295166D38589450D53129499D45351080
89D24327242D06752249D07772687D31832297D71800991E16684994E58852593
82E95734016F27470065F54369500F76301151F93413228G06348683G15119101
75G18128542G13033235F99347245F81478688F69985397F75415495F96876481
68G23974986G48336096G66836469G79540428G88234032G94888190H00395855
61H05171190H09979027H14928906H19468759H24350701H31052407H38952065
54H45452519H49381170H52282198H56007942H60173505H62985306H64009919
47H64709672H66475567H68775625H68563014H61573161H45291443H23076085
40H05673002H04074653H18957618H38525187H47991746H41332924H19727263
33G87228152G58506998G48526815G55120334G69973657G85900420G97575403
26H02638283H00947772G94958383G90310043G90860606G94169102G95160687
19G90847215G78629719G54628754G20817409F87944986F69109371F71937045
12F92602430G19030674G41951503G60601742G76994205G88385855G90788607
5G85783356G81151943G86366947H02428079H16804944
##END=


$$ === CHEMSPECTRA PEAK TABLE EDIT ===
##TITLE=X8625
##JCAMP-DX=5.00
##DATA TYPE=INFRAREDPEAKTABLE
##DATA CLASS=PEAKTABLE
##$CSTHRESHOLD=0.93
##MAXX=3997.453
##MAXY=0.8506777888975935
##MINX=373.96442
##MINY=0.18231111796058372
##$CSSOLVENTNAME=- - -
##$CSSOLVENTVALUE=0
##$CSSOLVENTX=0
##NPOINTS=41
##PEAKTABLE= (XY..XY)
392.3793345973413, 0.5301055324386346
416.46037676309606, 0.5930244336843554
473.1216524472243, 0.5307995687939557
497.2026946129786, 0.32225167793496207
508.5349497498041, 0.24428302123797246
519.8672048866297, 0.3914758866263154
529.7829281313525, 0.3504354961936292
565.1962254339323, 0.5618937025154889
592.1103313838935, 0.3931063720689183
640.2724157154025, 0.49718123796945385
664.3534578811568, 0.39194440905799793
698.3502232916339, 0.425600499568549
743.6792438389366, 0.4330648489793314
786.1752006020324, 0.23070862920062352
803.1735833072712, 0.18857112582523958
811.6727746598904, 0.18231111796058372
847.0860719624702, 0.5797854675432154
878.2497735887409, 0.5188937197733006
1014.2368352306485, 0.4134881206488689
1085.063429835809, 0.41616922710877086
1110.5610038936666, 0.36694777101378645
1130.3924503831117, 0.41655841545845945
1167.2222795777948, 0.365741074884522
1187.05372606724, 0.3671856227312365
1272.045639593432, 0.2434298397808946
1293.2936179749804, 0.25337022587931135
1371.2028720406565, 0.5157577406505196
1395.2839142064108, 0.4612734030370339
1442.0294666458167, 0.4610041684974907
1504.3568698983577, 0.2688355153423379
1573.766932611415, 0.567699313862779
1596.4314428850662, 0.43599143736872964
1767.8318018295727, 0.6101585640521175
1882.5708850899136, 0.5552360426363857
2068.136562955434, 0.2831777938249155
2107.7994559343233, 0.2161242968777952
2262.2014321735874, 0.6785455354269218
2403.8546213838936, 0.5977452999884657
2415.186876520719, 0.6036471141203654
2963.3847187646684, 0.6050970564343028
3035.6278452619235, 0.5809723145049366
##END=


$$ === CHEMSPECTRA PEAK TABLE AUTO ===
##TITLE=X8625
##JCAMP-DX=5.00
##DATA TYPE=INFRAREDPEAKTABLE
##DATA CLASS=PEAKTABLE
##$CSTHRESHOLD=0.93
##MAXX=3997.453
##MAXY=0.8506777888975935
##MINX=373.96442
##MINY=0.18231111796058372
##NPOINTS=164
##PEAKTABLE= (XY..XY)
3977.6215535105553, 0.6219664229599131
3971.9554259421425, 0.6218634257927359
3966.2892983737293, 0.6218126430119284
3949.290915668491, 0.6222571743646796
3936.542128639562, 0.6228634129732482
3928.042937286943, 0.6220856320499544
3919.543745934324, 0.6226228485732059
3912.4610864738074, 0.6231088640047828
3901.128831336982, 0.6211373221066301
3894.046171876466, 0.6208298810489752
3881.297384847537, 0.6215325601187822
3872.798193494918, 0.6228813535974606
3858.6328745738856, 0.6224716315715372
3840.217959976544, 0.6225366004780744
3833.135300516028, 0.623386026644414
3823.2195772713058, 0.6232729567416998
3807.6377264581706, 0.6239422572979856
3787.8062799687254, 0.6253096473883724
3782.1401524003127, 0.6258619437014785
3767.9748334792807, 0.6260473742538918
3760.8921740187648, 0.6262063395136658
3752.392982666145, 0.6244774472318472
3745.310323205629, 0.6252815730249549
3736.81113185301, 0.6207227118647036
3725.4788767161845, 0.6218389284625849
3712.7300896872557, 0.6219981916104007
3698.564770766224, 0.6240585453422564
3690.065579413604, 0.6223533161456211
3675.900260492572, 0.6231713903878293
3664.5680053557467, 0.626054586155071
3650.4026864347147, 0.6269394166320665
3647.5696226505083, 0.6269653447755241
3633.404303729476, 0.628588558105535
3623.4885804847536, 0.6296129831970412
3605.073665887412, 0.6275360000237097
3589.491815074277, 0.6290991318709311
3583.825687505864, 0.6290286789723075
3573.9099642611413, 0.627746821570399
3568.2438366927286, 0.6275437482818151
3546.9958583111807, 0.6262183192080228
3537.0801350664583, 0.6246078619826904
3517.248688577013, 0.6272749906800408
3503.083369655981, 0.6281330595608663
3496.000710195465, 0.6277384173247975
3480.41885938233, 0.6289243706223937
3470.5031361376073, 0.6296500575821434
3462.003944784988, 0.6294076456424383
3449.2551577560594, 0.6288737668913134
3440.75596640344, 0.6279731998447118
3428.007179374511, 0.6283506168632215
3413.841860453479, 0.6262494928746825
3396.8434777482407, 0.621964217320796
3389.7608182877248, 0.6217615615508237
3375.595499366693, 0.6204173576078513
3347.2648615246285, 0.6271414766259554
3338.7656701720093, 0.6260632288695569
3320.350755574668, 0.6291742931435752
3310.435032329945, 0.6301403052422274
3294.85318151681, 0.6306220900298082
3284.9374582720875, 0.6318275343954932
3277.8547988115715, 0.6307248487281009
3252.357224753714, 0.6239418984062758
3236.7753739405784, 0.6133354314776408
3221.1935231274433, 0.6112549314824556
3192.862885285379, 0.6232860099421645
3170.198375011728, 0.6339870705846307
3154.6165241985927, 0.6355926403862154
3139.034673385457, 0.6348480589267157
3116.370163111806, 0.6275238999065273
3090.872589053948, 0.6243824375839153
3059.708887427678, 0.6060758246376333
3035.6278452619235, 0.5809723145049366
2983.2161652541045, 0.6233242164602762
2961.9681868725565, 0.604293287948394
2927.97142146208, 0.6121228346299337
2872.7266776700544, 0.6307886847093731
2852.8952311806097, 0.6284013988517736
2800.483551172791, 0.6460828794819923
2789.1512960359655, 0.6478562965189769
2760.820658193901, 0.6510337003014264
2748.0718711649724, 0.6518570192745812
2738.15614792025, 0.6522998219259842
2726.8238927834245, 0.6535162936949994
2709.825510078186, 0.6542928822738712
2687.1609998045346, 0.6559153207780716
2663.07995763878, 0.659608007492193
2657.413830070367, 0.6597477803641754
2637.5823835809224, 0.6586725130727045
2619.167468983581, 0.6614951496271324
2609.2517457388585, 0.6627473845985132
2592.25336303362, 0.664059996563959
2565.339257083659, 0.6541236050174203
2539.841683025801, 0.6619726427670488
2497.3457262627053, 0.6795054091305023
2481.76387544957, 0.6797230852711719
2470.431620312744, 0.6795561919113098
2460.515897068022, 0.681901277491175
2442.10098247068, 0.6874947553167838
2415.186876520719, 0.6036471141203654
2403.8546213838936, 0.5977452999884657
2355.6925370523845, 0.6882337941572954
2348.6098775918686, 0.6892900481107016
2323.1123035340106, 0.6881438501905829
2260.78490028147, 0.6771531116494578
2107.7994559343233, 0.2161242968777952
2097.883732689601, 0.22309900866517465
2068.136562955434, 0.2831777938249155
2001.559564026583, 0.517664491899607
1988.8107769976543, 0.5338443529787003
1977.4785218608286, 0.5340147623681607
1956.2305434792804, 0.5499116789274947
1920.8172461767003, 0.5742706662275935
1882.5708850899136, 0.5552360426363857
1840.0749283268178, 0.6211563956561074
1825.9096094057854, 0.625907600589654
1793.329375887412, 0.6160761131691125
1766.4152699374508, 0.6095392714508289
1668.6745693823295, 0.6679434789842655
1654.5092504612976, 0.6648191222486427
1643.176995324472, 0.6627416027183851
1596.4314428850662, 0.43599143736872964
1573.766932611415, 0.5676993130705237
1504.3568698983577, 0.2688355153423379
1442.0294666458167, 0.4610041684974907
1395.2839142064108, 0.4612734030370339
1371.2028720406565, 0.5157577406505196
1293.2936179749804, 0.2533702242948005
1272.045639593432, 0.2434298397808946
1213.9678320172006, 0.5397955784972582
1187.05372606724, 0.3671856227312365
1167.2222795777948, 0.365741074884522
1130.3924503831117, 0.41655841545845945
1110.5610038936666, 0.36694777101378645
1085.063429835809, 0.41616922710877086
1039.7344092885064, 0.5012238036955936
1026.9856222595777, 0.49955985021460575
1014.2368352306485, 0.4134881206488689
953.3259638702107, 0.6126638064439235
934.9110492728691, 0.6093273771902873
896.6646881860825, 0.644133628482618
889.5820287255665, 0.6434023989038801
878.2497735887409, 0.5188937197733006
847.0860719624702, 0.5797854675432154
811.6727746598904, 0.18231111796058372
803.1735833072712, 0.18857112582523958
786.1752006020324, 0.23070862920062352
743.6792438389366, 0.4330648489793314
725.2643292415946, 0.512844205461586
718.1816697810787, 0.5014725338723529
698.3502232916339, 0.425600499568549
664.3534578811568, 0.39194440905799793
640.2724157154025, 0.49718123796945385
592.1103313838935, 0.3931063720689183
565.1962254339323, 0.5618937025154889
529.7829281313525, 0.3504354961936292
519.8672048866297, 0.3914758866263154
508.5349497498041, 0.24428302123797246
497.2026946129786, 0.32225167793496207
473.1216524472243, 0.5307995687939557
427.7926318999216, 0.6370325099646158
416.46037676309606, 0.5930244336843554
405.12812162627006, 0.6261274229502836
392.3793345973413, 0.5301055324386346
378.2140156763094, 0.6188718684968005
##END=

##END=

