##TITLE=T. Wiesner TBW050
##JCAMP-DX=4.24
##DATA TYPE=INFRARED SPECTRUM
##DATE=16/10/2017
##SAMPLING PROCEDURE=Diamant-ATR
##ORIGIN=Angelika Moesle
##XUNITS=1/CM
##YUNITS=TRANSMITTANCE
##RESOLUTION=4
##FIRSTX=3997.453
##LASTX=373.96442
##DELTAX=-1.4165319
##MAXY=0.80597627
##MINY=0.51938766
##XFACTOR=1
##YFACTOR=7.506239e-010
##NPOINTS=2559
##FIRSTY=0.72815031
##XYDATA=(X++(Y..Y))
3997+970060121+970064012+969978411+969822218+969786167+969865971+969845166
3988+969753452+969843896+970098395+970221872+970101809+969882091+969650223
3978+969377460+969135905+969117165+969363088+969638868+969725897+969687703
3968+969672536+969662769+969674283+969957289+970669647+971455775+971707335
3958+971276950+970685846+970519965+970727297+970755407+970325895+969772033
3948+969557793+969723753+969958083+969968406+969730027+969521504+969619889
3938+970013668+970510595+970950906+971237009+971279730+971079942+970835687
3928+970773750+970891430+970918349+970673459+970433968+970607789+971167449
3918+971675731+971799606+971649686+971484520+971310222+970975284+970529574
3908+970282221+970409114+970666789+970662818+970364249+969954192+969423754
3898+968881168+968773889+969445036+970747387+971933407+972123030+971498893
3888+970939075+970491935+969697232+969061262+969597179+970919143+971533831
3878+970984972+970244900+969917982+969865018+969860492+969798237+969614410
3869+969509911+969689132+969792123+969268832+968357480+968096787+968977965
3859+970601993+972419456+974069926+974789193+973314847+970904691+970080052
3849+970891510+972276206+973315323+973621198+973408070+973176123+973044149
3839+972440181+971060488+969919729+970028993+971009191+971837404+972103178
3829+972123030+972151061+972286211+972826733+973882447+974797928+974790622
3819+974374451+974229931+973825194+972712149+971629120+971366839+972031950
3809+973229723+974051821+973788588+973104101+972989120+973286578+973204789
3799+972704208+972244840+971883221+971565753+971453631+971747595+972531896
3789+973670510+974717091+975083554+974540808+973640732+973213682+973463179
3779+973963283+974369607+974740437+975124687+975389111+975366877+974931410
3769+974182366+973465958+972868501+972305745+972138991+972791635+973910001
3759+974519845+974183001+973570060+973351930+973506614+973556482+972959025
3750+972021469+971681687+971930945+971884016+971254240+971202943+972238964
3740+973626995+974613148+974807536+974161800+973090920+972486951+972955372
3730+974230645+975538475+976162375+975902238+975270319+974929505+975087604
3720+975592313+976184767+976704009+977261285+977985714+978445400+977805143
3710+976354936+975335035+975003750+974992315+975146444+975386967+975537602
3700+975577226+975592869+975487734+975189959+974901395+974857483+975018837
3690+975166137+975210525+975207587+975148112+975099435+975176619+975275083
3680+975162405+974939272+974923311+974899727+974471804+974284324+974859468
3670+975480350+975249593+974574874+974220799+974327839+974886704+975813779
3660+976741171+977227141+976913642+975777093+974795784+975287074+977366341
3650+979285285+978354002+975237444+973311512+973211062+973830514+974301953
3640+974334986+974204124+974443694+975208143+976037706+976471664+976658588
3631+976839238+976471108+975149859+974105818+974268522+975308355+976434740
3621+976804458+975968304+974588135+973798752+973827338+974224452+974668574
3611+975220054+975935112+976471029+976392099+975913593+975735404+976213830
3601+976988841+977441301+977396674+976982568+976224074+975359254+975013755
3591+975521165+976479287+977040535+976768010+976234953+976000861+975980930
3581+976023810+976223994+976618884+976946914+976930636+976603718+976235111
3571+976071375+976176350+976329367+976053746+975216640+974373260+974032049
3561+974192451+974472201+974486415+974193007+973835914+973684327+973860530
3551+974180937+974209047+973732685+973166674+973280940+974238665+975269286
3541+975647580+975409995+975048138+974862644+974734402+974501343+974338003
3531+974541364+975063305+975447555+975369895+975111187+975148588+975440329
3521+975542525+975319710+975052823+974939351+974894963+974807298+974694381
3512+974617674+974558675+974417093+974172043+973974003+973945654+973972494
3502+973897534+973812966+973863468+973892214+973535280+972728189+972019960
3492+972141929+973201454+974497532+975221483+975137153+974497293+973691156
3482+973140469+973151745+973708784+974590041+975520688+976160866+976286408
3472+975993715+975442393+974614974+973629695+972961566+972978559+973525037
3462+974212541+974831755+975319710+975624394+975772964+975862852+975912879
3452+975853403+975673467+975474156+975411663+975593028+975921772+976126403
3442+976051761+975817829+975602716+975432785+975305814+975315422+975506951
3432+975775743+975987918+976061369+975908273+975467565+974874317+974504837
3422+974660157+975145888+975402928+975195279+974787049+974407326+974086919
3412+974027126+974501899+975334162+975971957+976082094+975748268+975262696
3403+974939589+974946418+975185750+975419603+975439693+975153670+974721379
3393+974518813+974737499+975126116+975287471+975101420+974766165+974551608
3383+974593614+974869632+975281594+975708724+976067801+976381379+976689715
3373+976888947+976825104+976561156+976381776+976512559+976894505+977233255
3363+977294239+977154642+977082144+977188866+977321238+977244610+976816290
3353+976064307+975244829+974748457+974794990+975244829+975807109+976357557
3343+976907925+977377934+977626080+977632433+977458850+977147178+976836856
3333+976799614+977130344+977562873+977767107+977709934+977584154+977509432
3323+977491327+977549373+977659114+977690479+977636800+977723115+978042728
3313+978318984+978250694+977856519+977365229+977033864+977078015+977483942
3303+977930288+978111891+978072188+978060753+978132378+978052495+977628860
3293+977047681+976731483+976866872+977263985+977722083+978275866+978968929
3284+979628243+980027660+980126362+980015034+979782134+979535655+979371998
3274+979236609+979022370+978820676+978856171+979214137+979781419+980332423
3264+980632343+980651559+980633692+980777339+981038350+981368602+981816457
3254+982286466+982520557+982377228+981900707+981221144+980540469+980066966
3244+979901482+980073716+980536896+981002140+981085597+980838324+980815693
3234+981363282+982087710+982290992+981810422+981198910+981063839+981424108
3224+981827891+981937314+981811613+981725536+981887923+982289880+982743214
3214+983105944+983405625+983622565+983572697+983224816+982836914+982568360
3204+982327678+982146154+982274158+982772674+983367828+983777408+983990536
3194+984221292+984645165+985102549+985182591+984769834+984289979+984187385
3184+984412900+984695589+985025445+985467582+985716125+985345216+984484367
3174+983792098+983693237+984010864+984362398+984541698+984429020+983928598
3165+983234424+982835723+982978972+983365207+983636143+983854274+984205808
3155+984568776+984698606+984608162+984512477+984559644+984709644+984809379
3145+984774201+984665573+984549321+984427670+984365018+984467771+984664858
3135+984693762+984356045+983714835+983039560+982580191+982376751+982295756
3125+982205232+982042449+981808040+981574981+981402906+981244569+981092823
3115+981123156+981411164+981611111+981248142+980333535+979418133+978987192
3105+978985842+979005218+978806383+978561175+978590397+978938516+979338567
3095+979586952+979770064+980066569+980568420+981312144+982147504+982578842
3085+982136943+980936550+979497699+978138572+976904749+975934954+975462166
3075+975484717+975705627+975785351+975537681+974952771+974145283+973283878
3065+972532690+971995900+971630152+971197623+970404031+969172194+967749621
3055+966482368+965490577+964621072+963692568+962734922+962016291+961845566
3046+962287941+963049373+963703527+964016072+963999873+963766496+963458795
3036+963193497+962863641+962131113+960833606+959245787+957716333+956278196
3026+954879763+953725426+953068097+952830829+952764525+952862354+953306952
3016+954078548+954955835+955896964+957021047+958148941+958812623+958902432
3006+958928637+959438031+960411479+961386833+962029472+962456125+962995933
2996+963734336+964449236+964962442+965299365+965531709+965748887+966113682
2986+966699704+967378235+967991573+968480878+968834874+969113115+969473225
2976+970019067+970688149+971309666+971654371+971490396+970759377+969686829
2966+968601735+967632813+966653489+965547194+964437960+963538281+962839342
2956+962096492+961108750+959910025+958658495+957412840+956146699+954974416
2946+954142233+953727412+953549064+953355629+952840596+951624322+949603260
2936+947197711+944900631+942705271+940224999+937239780+933916684+930618126
2927+927665701+925241650+923399571+922161063+921582902+921680811+922369744
2917+923599914+925465736+928013265+931018018+934098605+937006006+939699564
2907+942208025+944499467+946477411+948057527+949207497+949947171+950345555
2897+950499048+950461886+950246614+949902465+949534097+949263320+949224410
2887+949533303+950219934+951252222+952606426+954220448+955898314+957359717
2877+958440444+959207354+959822201+960338822+960739826+961107162+961559066
2867+962015100+962179234+961781564+960770239+959284141+957478589+955398131
2857+953029267+950391690+947524390+944526466+941755009+939847579+939322938
2847+940172670+941957973+944223767+946667511+949024623+951088803+952874741
2837+954542761+956137884+957556328+958733772+959720322+960578551+961309014
2827+961898133+962422695+963056202+963915146+964908922+965808363+966438853
2817+966749175+966745442+966476650+966083190+965735944+965526151+965544573
2808+965999574+966995653+968208354+969076112+969349350+969247789+969112639
2798+969101998+969186963+969278916+969353400+969472193+969658322+969836114
2788+969977776+970205991+970618509+971102811+971442593+971529305+971403843
2778+971189047+971035792+971033330+971127904+971180154+971114961+971015226
2768+971079783+971432191+971924592+972250637+972311621+972321944+972488222
2758+972749550+972922815+972958310+972926547+972844520+972675781+972474008
2748+972363633+972347037+972277159+972085153+971922448+971982321+972219827
2738+972337508+972099049+971623005+971298470+971417421+971942538+972601456
2728+973138484+973462067+973612305+973656375+973673051+973789699+974102721
2718+974532232+974887181+975099197+975260949+975419286+975494325+975441599
2708+975367751+975458195+975836410+976420129+976908163+977075077+977081350
2698+977293286+977830235+978491932+979053576+979430362+979639202+979754103
2689+979835972+979850741+979723135+979455454+979116387+978746987+978380286
2679+978144527+978226713+978660910+979218981+979617127+979789836+979863049
2669+979938406+980036077+980201164+980481946+980760902+980770907+980414450
2659+979980651+979869402+980128109+980465668+980709447+980979191+981348671
2649+981621990+981620401+981465399+981375431+981345892+981241949+981095046
2639+981077576+981230593+981434748+981656055+982001554+982440753+982670874
2629+982441150+981923735+981570455+981636442+982001236+982443135+982900677
2619+983406260+983914226+984310307+984515415+984534949+984492307+984605065
2609+984959299+985317026+985341960+985043152+984821290+985059351+985772107
2599+986618345+987167443+987234939+987036263+986932161+986999498+986975993
2589+986643041+986074726+985504029+985131770+985062130+985230949+985408741
2580+985400721+985192278+984897997+984704006+984799135+985204586+985779571
2570+986416255+986989254+987196188+986851880+986272528+986006436+986311517
2560+987121864+988221965+989159601+989354306+988701821+987852565+987514133
2550+987680490+987926731+988174242+988602562+989037950+989101158+988819502
2540+988504574+988179006+987643646+986938672+986365911+986191136+986500982
2530+987175463+987929193+988492346+988756532+988764473+988704997+988834430
2520+989187235+989448959+989371697+989191046+989346842+989884506+990416611
2510+990596547+990381513+989924289+989396233+988904149+988541022+988539196
2500+989194143+990475451+991858241+992697571+992726237+992198102+991605807
2490+991194797+990790855+990218332+989687180+989515185+989706555+990085723
2480+990638950+991448740+992384232+993044499+993042673+992411468+991719121
2470+991619147+992195958+992889418+993111122+992787301+992296487+992074863
2461+992340399+993009481+993764402+994278322+994468581+994518925+994591900
2451+994573954+994260932+993744947+993387219+993394763+993623057+993762258
2441+993622660+993317579+993120730+993062287+992954214+992879651+993172186
2431+993859293+994626759+995239383+995575036+995576227+995481494+995626888
2421+995878370+995806824+995422574+995219293+995521118+996108252+996470030
2411+996346155+996006850+995917676+996187103+996497901+996504333+996176224
2401+995818417+995759100+996000497+996278818+996408092+996369501+996170507
2391+995866697+995617359+995530250+995555978+995627285+995772520+996054414
2381+996490834+997014284+997440540+997558459+997346681+997065978+997096946
2371+997699406+998785929+999827985+1000177374+999680367+998856601+998341172
2361+998178388+997737203+996563571+995177922+994407438+994171441+993883194
2351+993599156+993727795+994196533+994575304+994694255+994948595+995727338
2342+996640040+996913755+996267542+994983852+993518955+992388520+992087806
2332+992724887+993866678+994864186+995189039+994606431+993390554+992313163
2322+992107182+992891880+994176443+995254867+995622997+995278213+994649787
2312+994210985+994236872+994785335+995643484+996369183+996591601+996279374
2302+995699069+995225169+995149574+995480224+995945548+996329718+996689986
2292+997082177+997320556+997249884+996998244+996756371+996602401+996684031
2282+997234717+998258112+999369093+999976475+999695455+998806416+998186011
2272+998468699+999446594+1000511280+1001330758+1001830307+1001962042+1001890735
2262+1002024218+1002388219+1002271570+1001052596+999214646+997939214+997749114
2252+998120976+998421452+998650461+999190268+1000184759+1001292643+1001988088
2242+1002061619+1001619323+1000603551+998865177+996963622+996117146+996779478
2232+998042523+999114832+1000397093+1002233614+1003786493+1004213622+1003943639
2223+1003769103+1003559866+1002779138+1001635601+1000963264+1001188700
2214+1001903599+1002486842+1002763733+1002803278+1002585306+1002357806
2206+1002745311+1003942607+1005375026+1006532301+1007391880+1007762948
2197+1007127614+1005558615+1003987948+1003264632+1003544779+1004545781
2189+1005715920+1006479972+1007142542+1008872261+1011710498+1013565362
2180+1012546572+1009287717+1005728228+1002814236+1000480708+998975950+999148024
2170+1001418900+1004815685+1007387909+1007853789+1006568352+1004762879
2162+1003492529+1003446711+1004728575+1006552709+1008107732+1009382132
2153+1010588480+1011600361+1012251179+1012654963+1013062240+1013625790
2145+1014225947+1014438201+1013941750+1012959170+1011946892+1010954228
2136+1009810373+1008906644+1009028533+1010161033+1011152586+1010941284
2128+1009604153+1007989178+1006877324+1006679601+1007347174+1008340553
2119+1009113816+1009577631+1009783533+1009595418+1009130015+1008982398
2111+1009442719+1009912490+1009565641+1008349367+1007078143+1006646012
2102+1007243230+1008323957+1009251746+1009844359+1010293643+1010701238
2094+1010832735+1010496368+1010096872+1010424902+1011693584+1013071213
2085+1013389317+1012191703+1010078450+1008195874+1007346221+1007428486
2077+1007703234+1007554267+1006935608+1006144319+1005439187+1005138791
2068+1005804061+1007728326+1010184935+1011803722+1011885511+1010955419
2060+1010070351+1009974348+1010640412+1011295598+1011115106+1010066618
2051+1008947221+1008602198+1009140100+1009864846+1010142928+1010267200
2043+1011047134+1012544508+1013682010+1013399798+1011960947+1010648829
2034+1010241393+1010307856+1010250048+1010328899+1011122173+1012617324
2026+1014234443+1015321205+1015496456+1014862631+1013959458+1013352393
2017+1013261631+1013687807+1014898046+1017461615+1021399875+1025590410
2009+1028593735+1029654609+1028414037+1024908385+1020495749+1017222680
2000+1015817974+1015482401+1015668292+1016758468+1018897926+1021301967
1992+1022971495+1023685759+1023934461+1024036975+1023868712+1023222182
1983+1021890689+1019766477+1017463045+1016285362+1016799045+1018131491
1975+1019343239+1020340350+1021325630+1022529358+1023896425+1024392956
1966+1022971653+1020568565+1019354674+1020080452+1021489208+1022068639
1958+1021468483+1020057027+1018033980+1015620727+1013631269+1012987201
1949+1013661444+1014846749+1016140286+1017693563+1019154965+1019552635
1941+1018678763+1017487899+1016863285+1016964052+1017606215+1018707667
1932+1020168514+1021463162+1021835898+1021187859+1020330107+1019984290
1924+1020008668+1019944984+1019826271+1019964915+1020306761+1020262532
1915+1019249142+1017492346+1016102091+1016057703+1016987239+1017595575
1907+1017376094+1016897351+1016621809+1016411460+1016009027+1015377743
1898+1014612102+1013856229+1013286803+1012998556+1012907238+1012767006
1890+1012290088+1011514284+1010940887+1010869659+1010906504+1010551715
1881+1010059472+1010122521+1010848617+1011735749+1012567456+1013639528
1873+1015094101+1016554234+1017461377+1017649492+1017571276+1017713414
1864+1018111322+1018533369+1018800335+1018983526+1019242789+1019466399
1856+1019410735+1019197448+1019240010+1019669204+1020212505+1020585320
1847+1020654404+1020287545+1019477516+1018723786+1018621272+1019150598
1839+1019843105+1020221240+1020140801+1019803004+1019416770+1018993214
1830+1018459282+1017908199+1017588428+1017533478+1017414051+1016891871
1822+1016068502+1015297065+1014684362+1013987171+1012979101+1011753219
1813+1010512646+1009262307+1007867844+1006402074+1005266160+1004867140
1805+1005255678+1006105410+1007008662+1007760724+1008353496+1008807385
1796+1009204896+1009802829+1010882444+1012296997+1013453875+1014187990
1788+1014853737+1015662337+1016455452+1016947218+1017034327+1016823343
1779+1016562810+1016518024+1016779987+1017284538+1017919475+1018418864
1771+1018402348+1017829745+1017014237+1016314346+1015996719+1016176813
1762+1016685493+1017039965+1016969770+1016707727+1016553440+1016602037
1754+1016852645+1017285253+1017741445+1017997452+1018102190+1018237976
1745+1018390596+1018484534+1018603168+1018910869+1019368649+1019728521
1737+1019900278+1020030743+1020219175+1020332886+1020317005+1020249191
1728+1020094189+1019807769+1019505070+1019354594+1019373572+1019460840
1720+1019575266+1019705175+1019757504+1019748372+1019836355+1019973094
1711+1019982225+1019847631+1019748769+1019796255+1019836673+1019740035
1703+1019673968+1019779262+1019825873+1019543106+1019043240+1018450548
1694+1017880883+1017535861+1017463045+1017531970+1017622255+1017787024
1686+1018090994+1018263306+1018057643+1017926701+1018165398+1018595624
1677+1018967089+1019162906+1019181090+1019061345+1018921668+1018980032
1669+1019307982+1019665234+1019930055+1020181457+1020377354+1020348926
1660+1020172246+1020121743+1020334633+1020828305+1021540187+1021901012
1652+1021328806+1020536167+1020138736+1020397364+1021207711+1021900059
1643+1022212286+1022352598+1022429623+1022400163+1022306224+1022445742
1635+1022998890+1023605479+1024044598+1024405105+1024776094+1025168681
1626+1025628129+1026308804+1027273755+1028274122+1029098682+1029878854
1618+1030720011+1031325726+1031442533+1031394413+1031518525+1031830435
1609+1032039196+1031552750+1029571709+1025191709+1017588666+1006616790
1601+993425732+980127792+968791915+960863622+957004927+956905748+959408651
1591+963227086+967586996+972258339+977182435+982191257+986993145+991175343
1581+994253865+995919582+996121751+995233189+994601667+995395259+997547659
1571+1000894497+1004986409+1008422580+1010492954+1011836358+1013007291
1562+1014055063+1015061624+1016354843+1017575723+1017807988+1017514818
1554+1017227762+1017032263+1016881231+1016746716+1016644122+1016506510
1545+1016034040+1014821816+1012741437+1010043988+1007563001+1006358956
1537+1006228094+1006719225+1007840131+1009363868+1010412753+1010303965
1528+1008729805+1005613008+1001732001+998439954+996667435+996882866+998660943
1519+1000933963+1003161323+1005043662+1006253186+1006766789+1006761390
1510+1006342122+1005515973+1004381885+1003151715+1001509424+998994848+995705977
1500+992513347+990671824+990149010+988878898+985459800+980093409+972719296
1490+963296805+954093000+948520310+946991174+947893632+949806145+951821092
1480+953614654+955507871+958037057+961506896+966149812+972192590+978627003
1470+983545699+986694020+988971010+991011924+992813584+994007148+994532662
1460+994717839+994951374+995370642+995355952+994289836+992437276+990321720
1451+988564129+987624191+986904686+984116078+976429579+962948606+946775108
1441+934023248+929339041+933427618+942708129+951149152+956973403+962456125
1431+969152818+976481034+982974049+988193379+992529785+996118972+998840323
1421+1000816758+1002118553+1002260056+1000865117+998075953+994022950+989222491
1411+985184020+983630108+985079203+988796632+993515938+997846705+1001028933
1401+1003255897+1004909941+1006023065+1006442174+1006037279+1004754700
1392+1002830435+1000735207+998931085+997864969+997835350+998713351+1000140053
1383+1001868978+1003766483+1005738392+1007638914+1009262148+1010551159
1374+1011689376+1012843395+1014007022+1015123879+1016110032+1016953332
1366+1017958384+1019648558+1022220783+1025121513+1027608376+1029503101
1357+1030868342+1031288881+1029512551+1023660269+1011966109+994089731+972401827
1347+951303201+934469038+922885094+915402035+910767060+909104520+911498873
1337+918132597+927661890+938328606+948754719+958087322+965945895+972275491
1327+977231667+981081864+984058905+986302147+987964211+989330643+990723597
1317+992211760+993539124+994462864+995029749+995434803+995751954+995908068
1307+995820641+995416063+994574907+993244446+991660757+990336569+989747529
1298+990086278+991262373+992982562+994852195+996540860+997885615+998846358
1288+999437462+999711654+999770970+999768509+999812024+999811944+999592305
1278+999241089+999124043+999448499+1000022372+1000514933+1000774434+1000827796
1268+1000735684+1000619829+1000774593+1001522685+1002882050+1004526168
1259+1006094849+1007398153+1008366439+1009001535+1009354419+1009463127
1251+1009378956+1009206802+1009008046+1008783484+1008642775+1008759741
1242+1009073319+1009290655+1009221809+1008870514+1008235418+1007295321
1234+1006194187+1005226059+1004575320+1004160420+1003782443+1003390253
1225+1003161562+1003341021+1004038689+1005170077+1006543418+1008000374
1217+1009466859+1010750470+1011118203+1008951826+1001926627+988134062+967995226
1207+945624027+927716204+919794502+922762252+933032490+945781411+957869112
1197+968234241+976743791+983398320+988329959+991895086+994411805+995831996
1187+995845813+994266491+991081246+986211147+979640631+971937774+964466944
1177+959065772+957475174+960554570+967527679+976155387+984065019+989994722
1167+993881050+996155658+997166983+997008090+995599016+992971525+989621034
1157+986607228+985217609+986295159+989660181+994193119+998616793+1002261247
1147+1005198664+1007858315+1010548856+1013215336+1015601590+1017591445
1139+1019273361+1020721582+1021914352+1022902331+1023913418+1025177733
1130+1026647950+1028003742+1029009906+1029763000+1030471467+1031121333
1122+1031535439+1031730462+1032041975+1032776012+1033824023+1034800964
1113+1035477669+1035776001+1035407712+1033986012+1031652008+1029309110
1105+1028058215+1028446832+1030261198+1032875349+1035609485+1037764426
1096+1038623132+1037812626+1035781321+1033700863+1032631491+1032748457
1088+1033432150+1033896680+1033515924+1031796290+1028395059+1023099657
1079+1015584915+1005224153+991326295+973938111+954757080+937019585+923977494
1069+917443266+917726034+924236598+935602253+949621921+963884098+976742997
1060+987715668+997020636+1004914864+1011521431+1017034248+1021734416+1025800600
1050+1029344367+1032619104+1035955222+1039425855+1042702815+1045285283
1041+1046866431+1047562750+1047874104+1048395648+1049563166+1051677054
1033+1054962193+1059337508+1064145987+1068315638+1070974337+1072076265
1024+1072429229+1072910354+1073594206+1073741823+1072477508+1069172517
1016+1063202952+1053777682+1040397397+1022936873+999928434+967032895+920341932
1006+863698915+811131452+778313573+769818950+775148417+778048989+770445629
996+757955256+752702258+761918212+783414586+809766052+834550662+855090026
986+871662226+885612573+898024174+909376170+919767821+929070487+936975355
976+943307174+948367532+952663757+956314088+959121913+961235960+963306175
966+965910003+969068965+972315830+975080298+977048158+978258714+978977743
956+979588461+980496875+981912936+983728255+985703420+987700263+989643665
946+991370604+992695507+993618849+994266332+994580624+994361303+993763608
936+993490130+994303018+996481226+999771447+1003653804+1007541561+1010835991
926+1013054220+1014136773+1014546036+1014820942+1015030417+1014788544
918+1013739739+1011881461+1009399284+1006376028+1002911271+999465969+996675614
908+994717283+993156066+991396491+988993164+985753764+982094063+979288541
898+978866335+981465876+986354397+992146409+997812640+1002828291+1006716128
888+1009056167+1009954496+1010079800+1010191049+1010845361+1012364175
880+1014673642+1017204814+1019303297+1020852365+1022373085+1024517625
871+1027525157+1031025965+1034185324+1036045269+1035791961+1032848192
863+1027287413+1020682038+1016068979+1015977820+1020065682+1025029243
854+1026975583+1023754128+1015431263+1003607590+990752422+979481738+971688198
844+968315950+969876770+976512479+987115193+998830159+1008229304+1013388602
834+1014780365+1014233411+1013559565+1014310674+1017677681+1023320408
826+1028646064+1030270330+1026172065+1016314028+1002264344+986974643+974028793
816+966135598+964308606+968311345+977247389+989617222+1003122890+1014281849
806+1018152534+1009280650+984071610+942838833+890040693+833334150+782254135
796+745736693+728640011+730038444+745207447+768985576+796878407+824462187
786+848367526+868445774+887381518+907359714+927868427+946898426+963154111
776+976635560+987964132+997830348+1006698817+1014454559+1020229022+1022708102
766+1020703477+1013591645+1001533325+985506650+966856056+946388317+923998933
756+899589441+874435191+851385699+833580232+823069868+820431339+824951015
747+834826045+847396857+859397290+867521241+869984758+868300778+866794510
737+869245321+875775975+883148738+887895201+889089717+888741836+890094213
727+895187286+903222778+910516293+911431536+899801219+872203146+832872955
717+795006868+774599002+780409674+807683926+841290950+865290942+870152544
707+853888601+820050345+776296640+733370989+702557655+691941283+703225149
697+731060648+765910150+798897325+825483914+845623227+861221502+873859254
687+884271947+892795077+899590076+904594451+907926996+910513117+913655800
677+917714282+921774511+924716533+926159434+926373991+925645354+924236121
667+923240440+923519157+923746737+921348017+914479090+904456204+895397873
657+890717715+891270943+895705336+900863205+903040381+901219027+898692223
647+899773664+905325709+912568086+918212321+920868558+921204370+920399344
637+918495645+914780915+909896761+906318770+906191163+909846656+916631888
628+925639716+935030682+942098206+945496737+946897712+949260858+953710498
618+958893698+963285688+966980884+970738890+974549940+977910833+980664661
608+982901710+984390825+984545827+982935616+979647381+975109202+969835876
598+964665778+960980270+960067807+962138736+966193486+970893574+975481223
588+979878534+984041753+987311884+988413018+986068453+979755850+970407446
578+960628339+953665633+951139147+951537610+951917810+951064028+950440446
568+952182235+956284152+960375349+962615177+963871472+966269399+970382671
558+974931331+978659083+981282605+982843981+983298188+982958565+982636411
548+982975320+983870393+984666208+984800485+984474758+984909828+987358813
538+991459381+995225725+997011346+996774952+995318155+993190608+990515472
528+987156644+982803325+977253027+970848630+964087300+956347201+945678897
518+931365979+916929107+907979881+907161753+913613317+925017405+938145732
509+949674488+958013394+963569408+967285012+970034075+972838565+976161025
499+979250267+980821887+979842562+975581832+967483132+955976292+943816887
489+935277558+933254829+937580117+945732734+954871028+963321103+970430236
479+975845939+979624908+982686676+985988331+988872942+989454597+987456722
469+984509936+981662487+979312601+978748337+981460794+987058497+993274303
459+997585060+997860999+993278114+985355221+976278944+966983980+957273561
449+947758402+941273566+940833811+946052903+953242951+958956667+962366316
439+964166071+964203234+961736064+958044283+956493786+959050605+964933300
429+972197196+978795266+982898295+983904618+982802372+980684433+978787167
419+980144149+984916816+986643438+982859624+977268670+973410373+971373192
409+969804669+968882359+968920395+968979076+968955969+970244027+973665666
399+978598020+983540934+987190948+990069921+993135420+995174666+993891849
390+989856952+987551375+991035349+998872244+1004673547+1005501521+1005244084
380+1007398073+1010326676+1008542008+999115706+989934056
##END=
