##TITLE=S .Graessle SG-V2644 38-52
##JCAMP-DX=4.24
##DATA TYPE=INFRARED SPECTRUM
##DATE=6/7/2017
##SAMPLING PROCEDURE=Diamant-ATR
##ORIGIN=Angelika Moesle
##XUNITS=1/CM
##YUNITS=TRANSMITTANCE
##RESOLUTION=4
##FIRSTX=3997.453
##LASTX=373.96442
##DELTAX=-1.4165319
##MAXY=1.0021008
##MINY=0.64713347
##XFACTOR=1
##YFACTOR=9.3327912e-010
##NPOINTS=2559
##FIRSTY=0.9995954
##XYDATA=(X++(Y..Y))
3997+1071057287+1071111381+1071368186+1071490808+1071353433+1070985310
3989+1070396850+1069713677+1069208371+1069068122+1069273833+1069663415
3980+1070001074+1070104281+1070012059+1069936952+1070011101+1070146752
3972+1070125420+1069783355+1069192405+1068629555+1068218770+1067807474
3963+1067395795+1067306958+1067667544+1068174958+1068589575+1068904434
3955+1069024757+1068821855+1068439937+1068200568+1068246041+1068334303
3946+1068103045+1067648576+1067549648+1068054507+1068533565+1068259261
3938+1067279240+1066279356+1066103598+1067231213+1069193937+1070616804
3929+1070486390+1069066908+1067369482+1066364745+1066294620+1066536863
3921+1066626659+1066844761+1067506921+1068219536+1068349439+1067950214
3912+1067521036+1067159683+1066425992+1065135264+1063964923+1063970223
3904+1065393920+1067136691+1068261113+1069063906+1069691324+1069386493
3895+1067761555+1065750867+1065054218+1066069174+1066735933+1065900377
3887+1065151166+1066067960+1067482589+1067564975+1067108207+1067322413
3878+1067237408+1066057742+1064901515+1064726586+1064971256+1065237130
3870+1066147218+1066940687+1066153349+1064769121+1064993226+1066841440
3861+1067986234+1067311045+1065391621+1062946199+1061022113+1062035791
3853+1067235172+1071472287+1071490808+1069483377+1067292524+1065612533
3844+1064649117+1064267902+1064113091+1064187176+1064867155+1065876299
3836+1066304775+1066150347+1066204378+1066703106+1067016240+1066793732
3827+1066513169+1066368513+1065774242+1064802267+1064678687+1065425726
3819+1065273725+1064759286+1066020955+1068377285+1069062438+1067624051
3810+1065332609+1063385340+1062780339+1063365733+1063448567+1062665125
3802+1062753835+1064230732+1065010151+1064590552+1064367022+1064690949
3793+1064766183+1064377624+1063847282+1063197511+1062493326+1062353268
3785+1063105736+1063919195+1064072600+1064254746+1065285093+1066380648
3776+1066325915+1065268169+1063967222+1063028777+1063032992+1063997877
3768+1064924443+1065208518+1065163876+1064817531+1064051205+1063660027
3759+1064653779+1066230307+1066325276+1064535947+1062151963+1060954415
3751+1062390821+1065098094+1065910531+1064723329+1063846962+1064882291
3742+1066047523+1065347809+1063378698+1061535594+1060934234+1062080434
3734+1064384202+1066348715+1066874586+1066036091+1064786301+1064278568
3725+1064972406+1066169252+1066965020+1067117787+1066687204+1065798447
3717+1064598599+1063087214+1061518797+1061138285+1063238640+1066152902
3708+1066987565+1065817990+1064153646+1063042764+1063064606+1064085246
3700+1064952161+1064900557+1064403745+1064034217+1063636141+1062899321
3691+1062289594+1062934384+1064939451+1066569754+1066722138+1065678443
3683+1064031279+1062389736+1061047851+1059777943+1058807757+1059496167
3674+1061595373+1062463181+1062220555+1063229763+1065689875+1067040190
3666+1066597217+1065541067+1064534542+1063479798+1062277332+1061313788
3657+1061278470+1062132037+1062368341+1060816146+1058162904+1056650625
3649+1058703272+1062671192+1064530454+1064000815+1062763223+1062082030
3640+1062259577+1062738954+1062870582+1062665061+1062543908+1062397336
3632+1061642250+1060766841+1061909656+1065159597+1066807463+1065769771
3623+1063757614+1062241503+1061899182+1062711939+1063651022+1063596544
3615+1062755368+1062012225+1061792846+1062050097+1062942878+1064508421
3606+1065863526+1066074922+1065290713+1064227986+1063274022+1062265134
3598+1061100732+1060279737+1060420305+1061322985+1062017270+1061996450
3589+1061722785+1061959536+1062676557+1063006169+1062741317+1062382072
3581+1062304922+1062549145+1062817381+1062670043+1062069321+1061472048
3572+1061059027+1060510420+1059943483+1060368318+1062209826+1063730024
3564+1063597566+1062708809+1062155667+1062018867+1061815263+1061335439
3555+1060820361+1060599321+1060715940+1060792898+1060445852+1059876424
3547+1059770854+1060491643+1061499893+1062042370+1061938140+1061419231
3538+1060905302+1060883716+1061411120+1061903461+1061885068+1061513880
3530+1061093068+1060600215+1059951530+1059322068+1058932870+1058795175
3521+1058836305+1059111694+1059694981+1060362507+1060672767+1060553338
3513+1060433972+1060554870+1060554487+1060084690+1059469088+1059312552
3504+1059785734+1060499179+1060919800+1060926633+1060836327+1060939534
3496+1061181650+1061238043+1060915649+1060476507+1060407915+1060786001
3488+1061022688+1060520766+1059480328+1058738462+1058830429+1059390916
3479+1059691085+1059592987+1059542725+1059821499+1060218361+1060427841
3471+1060418517+1060362187+1060415004+1060602195+1060848015+1061107757
3462+1061381167+1061586304+1061577043+1061286901+1060726797+1059954915
3454+1059201170+1058811014+1058895189+1059258522+1059746138+1060329552
3445+1060772589+1060705211+1060191410+1059786118+1059854007+1060175060
3437+1060381666+1060416473+1060411172+1060422093+1060415196+1060317928
3428+1060061315+1059660621+1059191718+1058730990+1058482360+1058766500
3420+1059503703+1060027722+1059924195+1059625239+1059696769+1060004666
3411+1060111450+1060032512+1060008945+1059979695+1059803489+1059618342
3403+1059607038+1059728638+1059860585+1059895967+1059720272+1059412886
3394+1059320089+1059573827+1059742816+1059363453+1058635191+1058204480
3386+1058400484+1058995459+1059640567+1060157753+1060394184+1060224940
3377+1059823160+1059601226+1059740964+1059962196+1059811089+1059100199
3369+1058149620+1057660280+1058160094+1059422849+1060560044+1060797688
3360+1060117070+1059091768+1058191324+1057380547+1056399951+1055236060
3352+1054143955+1053355787+1052971442+1052968696+1053080653+1052851183
3343+1052091882+1051142325+1050489871+1050320946+1050549330+1050968546
3335+1051231417+1051001181+1050239326+1049191798+1048144846+1047301498
3326+1046676954+1045992184+1044918089+1043517128+1042220013+1041297854
3318+1040527888+1039436868+1037778655+1035720962+1033612751+1031601425
3309+1029489446+1026968406+1023969969+1020735037+1017533443+1014391564
3301+1011138685+1007647907+1003956015+1000211753+996614957+993404422+990734639
3291+988483560+986341436+984228116+982451624+981318772+980793667+980647606
3281+980732036+981015728+981499384+982131464+982766738+983291651+983786292
3271+984421054+985233939+986129721+987009920+987803644+988472383+989114107
3261+989983960+991250866+992756567+994185182+995440592+996673778+998005189
3251+999424798+1000844983+1002095412+1003032898+1003741873+1004490316
3242+1005514277+1006902337+1008543561+1010150425+1011510065+1012653774
3234+1013656659+1014480848+1015147416+1015833973+1016682622+1017665518
3225+1018679196+1019641143+1020475550+1021149271+1021792591+1022644817
3217+1023764896+1024917546+1025836320+1026470955+1026919996+1027283584
3208+1027625074+1027948363+1028220815+1028467592+1028761822+1029132244
3200+1029562316+1030005354+1030337648+1030421887+1030317594+1030304821
3191+1030632835+1031313965+1032188479+1033089307+1033843498+1034227077
3183+1034161614+1033952006+1034098706+1034819752+1035877689+1036850749
3174+1037437803+1037540372+1037255147+1036845192+1036607420+1036682654
3166+1036960279+1037165671+1037081560+1036747094+1036475856+1036629134
3157+1037280055+1038063433+1038447075+1038259629+1037877520+1037767862
3149+1037939661+1038033033+1037884545+1037733119+1037834538+1038155719
3140+1038520457+1038791887+1038812004+1038468598+1037987816+1037855358
3132+1038222906+1038691681+1038898862+1038954617+1039053290+1039008392
3123+1038521990+1037692245+1036926494+1036485181+1036345442+1036382357
3115+1036507470+1036704560+1037031170+1037517253+1038090321+1038690276
3106+1039361889+1040082232+1040660090+1040980569+1041165843+1041329659
3098+1041379602+1041190240+1040737431+1040019643+1039100103+1038214284
3089+1037604429+1037315756+1037321695+1037629593+1038041910+1038091151
3081+1037484617+1036335735+1034726060+1032446050+1029504965+1026522111
3072+1024253661+1022950670+1022402702+1022385522+1022850784+1023755763
3064+1024857385+1025789187+1026403576+1026894641+1027509030+1028300136
3055+1029218399+1030210235+1031163497+1031975295+1032672838+1033270175
3047+1033601575+1033569131+1033461964+1033720429+1034376012+1034973285
3038+1035068190+1034636840+1034025005+1033630378+1033553803+1033470139
3030+1033006090+1032266268+1031736182+1031699267+1032054872+1032640075
3021+1033380727+1034105476+1034529417+1034549855+1034378119+1034294519
3013+1034419249+1034749882+1035194772+1035530898+1035604343+1035578861
3004+1035696438+1035887780+1035977447+1036076631+1036386380+1036830312
2996+1037219191+1037554167+1037916350+1038254456+1038470450+1038573019
2987+1038639822+1038700431+1038713907+1038645698+1038502894+1038272338
2979+1037920118+1037506715+1037156347+1036804191+1036138836+1035001003
2970+1033763411+1033027038+1032861817+1032624555+1031763772+1030548980
2962+1029691006+1029485933+1029668270+1029850798+1029794596+1029460961
2953+1029071699+1028960126+1029197834+1029473160+1029403291+1028929215
2945+1028368281+1028062427+1028027301+1028001436+1027719596+1027029909
2936+1025928798+1024600900+1023244773+1021836403+1020289892+1018773526
2928+1017580193+1016773248+1016197561+1015751714+1015452758+1015291944
2919+1015217285+1015290284+1015691872+1016479529+1017503426+1018657098
2911+1019992469+1021442734+1022690289+1023528784+1024176894+1025014814
2902+1026097851+1027106420+1027722597+1027914323+1027909213+1028043970
2894+1028546978+1029309408+1030013209+1030534738+1030953442+1031221934
2885+1031249013+1031227554+1031435373+1031803943+1032016553+1031878475
2877+1031426432+1030868181+1030486519+1030417416+1030551917+1030742876
2868+1030955102+1031126327+1031080407+1030705579+1030092978+1029398564
2860+1028652803+1027795085+1026836778+1025930650+1025300550+1025070569
2851+1025117446+1025206795+1025348385+1025827060+1026816469+1028165060
2843+1029581540+1030816577+1031711913+1032294497+1032737470+1033107828
2834+1033312837+1033381238+1033561467+1034018682+1034605035+1035069275
2826+1035379727+1035710808+1036193186+1036789629+1037350882+1037705848
2817+1037775909+1037656352+1037495155+1037301322+1037018269+1036737131
2809+1036671222+1036924322+1037402677+1037941066+1038424594+1038777134
2800+1038934946+1038914381+1038849813+1038860095+1038889921+1038770492
2792+1038462211+1038200745+1038327199+1038892412+1039518169+1039791579
2783+1039689840+1039453473+1039209442+1038915276+1038548941+1038220607
2775+1038111205+1038260523+1038449119+1038470131+1038426766+1038539042
2766+1038800253+1039070917+1039314565+1039506482+1039514976+1039287486
2758+1039010372+1038922365+1039054311+1039225983+1039238628+1039018100
2749+1038645762+1038325858+1038260076+1038445351+1038639056+1038615553
2741+1038408883+1038217541+1038144415+1038135091+1038123467+1038129406
2732+1038195699+1038294308+1038320301+1038195061+1037984750+1037872985
2724+1037974723+1038245004+1038610508+1039050735+1039478253+1039703124
2715+1039635235+1039397846+1039189452+1039137976+1039275096+1039517850
2707+1039674321+1039561215+1039163139+1038683315+1038414951+1038489418
2698+1038743093+1038900586+1038883470+1038856647+1038977225+1039187536
2690+1039333086+1039407298+1039517530+1039602344+1039427735+1038956597
2681+1038492228+1038344379+1038551687+1038968667+1039415537+1039729884
2673+1039856786+1039881757+1039885908+1039837562+1039692587+1039517403
2664+1039460945+1039632872+1039997099+1040376334+1040575723+1040510772
2656+1040237298+1039949072+1039925825+1040327477+1040956811+1041381646
2647+1041390587+1041201800+1041081988+1040952979+1040612318+1040173624
2639+1039995949+1040253329+1040776964+1041242674+1041436188+1041416453
2630+1041385095+1041373344+1041290893+1041296449+1041703594+1042397879
2622+1042770983+1042408864+1041545654+1040746564+1040399837+1040554456
2614+1040997174+1041422073+1041664763+1041803672+1041982113+1042197149
2605+1042337781+1042352024+1042299909+1042273213+1042272638+1042149760
2597+1041762159+1041241716+1040975332+1041196499+1041686925+1042036079
2588+1042135007+1042233936+1042488122+1042698112+1042653151+1042489527
2580+1042465513+1042599057+1042742371+1042795125+1042662220+1042272063
2571+1041807440+1041634874+1041848825+1042125108+1042137562+1041900109
2563+1041635066+1041516084+1041630531+1042013024+1042574085+1043092420
2554+1043380391+1043428865+1043419477+1043640261+1044257269+1045043904
2546+1045525517+1045530498+1045353334+1045282315+1045269542+1045159693
2537+1044916684+1044512413+1043877203+1043116370+1042589413+1042604357
2529+1043084756+1043664658+1044037060+1044065352+1043726672+1043210508
2520+1042902547+1042970117+1043112091+1042948722+1042524781+1042260695
2512+1042492209+1043131059+1043753815+1043975493+1043732036+1043277312
2503+1043000517+1043100148+1043350055+1043373366+1043171933+1043119308
2495+1043414368+1043801267+1043855042+1043431164+1042862439+1042653534
2486+1042909253+1043256875+1043420627+1043516681+1043618227+1043446875
2478+1042796146+1042009383+1041717389+1042141905+1042887475+1043489538
2469+1043967382+1044604380+1045339539+1045795350+1045864133+1045779511
2461+1045611672+1045227263+1044784545+1044671119+1044862717+1044852754
2452+1044312577+1043426949+1042561695+1041967615+1041843971+1042346723
2444+1043353184+1044375485+1044940250+1045059615+1045147559+1045420777
2435+1045595386+1045283912+1044518672+1043749216+1043391312+1043462714
2427+1043632661+1043598748+1043403447+1043313971+1043425353+1043546506
2418+1043517511+1043416220+1043346989+1043252021+1043092228+1043001475
2410+1043116625+1043426183+1043816914+1044094092+1044041083+1043711088
2401+1043485259+1043553467+1043610180+1043354845+1042975609+1042812624
2393+1042839575+1042743649+1042338228+1041772952+1041436251+1041603197
2384+1042088960+1042392898+1042257566+1041891487+1041583845+1041371172
2376+1041247847+1041466779+1042313321+1043642624+1044938973+1045852701
2367+1046451699+1046914598+1047197268+1047059191+1046378125+1045464780
2359+1044879897+1044784865+1044802875+1044676740+1044543196+1044420638
2350+1044046384+1043279228+1042296013+1041500309+1041308392+1041788599
2342+1042518713+1042931670+1042696899+1041836499+1040695344+1039793047
2333+1039463372+1039602216+1039960823+1040475071+1041019335+1041220193
2325+1040941866+1040587666+1040556116+1040710161+1040770769+1040798104
2316+1040937204+1041163097+1041498265+1042098732+1042915320+1043510550
2308+1043438062+1042769642+1042070950+1041772186+1041775060+1041843077
2299+1042040614+1042427066+1042663816+1042425725+1041940472+1041657291
2291+1041577012+1041293639+1040602291+1039825300+1039595000+1040386489
2282+1042080594+1043840672+1044634141+1044164983+1043164844+1042566485
2274+1042680485+1043293214+1044028246+1044394900+1044107056+1043588530
2265+1043618866+1044350194+1045114348+1045197629+1044548497+1043782874
2257+1043561131+1043886911+1044158724+1044012663+1043823428+1044191806
2248+1045195011+1046328821+1047059702+1047264583+1047145601+1046856672
2240+1046353090+1045575715+1044654514+1043886081+1043594342+1044009150
2231+1045089760+1046370972+1047256281+1047577590+1047622296+1047632259
2223+1047606776+1047496608+1047274865+1047029876+1047105876+1047674346
2214+1048171159+1047827880+1046710866+1045529732+1044611980+1043828218
2206+1043403894+1044101309+1046359157+1049439789+1051737937+1052144571
2197+1050892418+1048838493+1046546540+1044554437+1043713388+1044357091
2189+1045643860+1046467346+1046699498+1047061681+1048007534+1049173341
2180+1049932003+1050011261+1049350824+1048045343+1046875193+1047007140
2172+1048513607+1050016945+1050340489+1049755414+1049261476+1049443238
2163+1050371464+1051849255+1053381397+1054494578+1055177942+1055371711
2155+1054712552+1053567055+1053201295+1054075874+1054999501+1054761729
2146+1053648037+1052696563+1052434203+1052703716+1052963906+1052640362
2138+1051593601+1050183699+1048839514+1047849722+1047518514+1048154042
2129+1049675774+1051301223+1051994486+1051409092+1050083046+1048675379
2121+1047478342+1046667949+1046457127+1046821929+1047344479+1047518961
2112+1047287192+1047095402+1047241080+1047531734+1047899601+1048693389
2104+1049873758+1050668249+1050565361+1049973324+1049518728+1049287725
2095+1049067579+1048887158+1049002628+1049476001+1049971600+1050013624
2087+1049407090+1048396158+1047467740+1047016911+1047154734+1047698488
2078+1048212671+1048192681+1047542846+1046815415+1046673249+1047181941
2070+1047807826+1048020946+1047851829+1047931151+1048864230+1050557186
2061+1052335274+1053474577+1053553196+1052766816+1051882274+1051400981
2053+1051087655+1050769987+1050848733+1051436363+1051768657+1051039565
2044+1049035008+1046029610+1043053015+1041702253+1042753165+1045481960
2036+1048590054+1051127572+1052707037+1053680608+1055036033+1057267441
2027+1059214774+1058918053+1056219977+1053619041+1053747412+1056760155
2019+1060654629+1063140862+1063180139+1061678717+1060435122+1060090055
2010+1059866972+1059286112+1058722177+1058120369+1056922374+1055465722
2002+1054914432+1055604694+1056445360+1056229621+1054972933+1053715351
1993+1053616678+1055238296+1057773003+1059186545+1058104594+1055278276
1985+1052442697+1050358563+1049058702+1049077798+1050840622+1053315551
1976+1054748764+1054467244+1052880178+1050509223+1047948203+1046135435
1968+1045872883+1046858269+1047760821+1047856683+1047965383+1049180239
1959+1051193290+1052678936+1053006377+1052709975+1052626311+1053087167
1951+1053827244+1054394117+1054566299+1054519486+1054774885+1055782433
1942+1057169343+1057950486+1057843255+1057286409+1056389797+1055016298
1934+1053567693+1052673955+1052337446+1052066910+1051485795+1050511905
1925+1049377648+1048542730+1048314282+1048703736+1049647800+1050789785
1917+1051375052+1051139642+1050626736+1050295272+1050106612+1049975177
1908+1050028760+1050244818+1050335635+1050168882+1049971983+1050061523
1900+1050573663+1051447539+1052472203+1053370987+1053997638+1054428285
1891+1054785040+1055030987+1055006974+1054728072+1054472097+1054486212
1883+1054841242+1055597988+1056729818+1057841148+1058509759+1058830110
1874+1059104478+1059320536+1059375077+1059399985+1059545663+1059720144
1866+1059834336+1059987359+1060298066+1060737271+1061123021+1061320047
1857+1061364625+1061345529+1061312639+1061264867+1061115549+1060785618
1849+1060378409+1060096250+1060040431+1060116751+1060008051+1059486395
1840+1058762731+1058312605+1058488811+1059176965+1059875083+1060243780
1832+1060370426+1060393482+1060167844+1059706221+1059402220+1059388361
1823+1059374375+1059320983+1059540234+1060074919+1060527664+1060582652
1815+1060439018+1060571284+1061162107+1061844960+1062147365+1062020016
1806+1061701901+1061428555+1061280514+1061025817+1060295192+1059144074
1798+1058070873+1057500807+1057677651+1058764009+1060458625+1061710523
1789+1061845854+1061233637+1060581503+1060292510+1060329680+1060621930
1781+1061183757+1061745713+1061923643+1061690405+1061328797+1061253307
1772+1061700751+1062245782+1062446576+1062458775+1062432270+1062375302
1764+1062515935+1063034908+1063626370+1064136338+1064987351+1066260771
1755+1067391388+1068104833+1068760033+1069756659+1070889511+1071490808
1747+1071580731+1071367994+1071082769+1070844486+1070885615+1071197792
1738+1071423366+1071483463+1071563998+1071427261+1070519664+1069051708
1730+1067755998+1067281539+1067763151+1068650886+1069264765+1069338657
1721+1069071251+1068958081+1069511989+1070265159+1069747143+1067730707
1713+1064877054+1061774261+1059033203+1056863170+1054865766+1052754873
1704+1050686003+1048588713+1046121576+1043174999+1039906282+1035956308
1696+1030167190+1021784480+1010198261+992673925+966104399+932831515+899470561
1686+869666677+847591262+840513140+845199551+853912957+863638957+874411653
1676+887405795+901406717+913004560+922153148+930976596+937978718+939422916
1666+934116432+919697635+891335459+850143979+806923993+770755816+744643186
1656+730374602+735962798+772362297+813226337+833672663+846617755+864708901
1646+887264907+904377308+915215212+924217803+932908410+941027353+949813056
1636+962051856+975391576+983748356+987587842+989780228+991548736+993118558
1626+994922193+997726286+1001643880+1005256451+1007250278+1008177610+1009137386
1616+1009558900+1007395573+1002248945+995070043+987296166+981245518+978618652
1606+978346264+977097624+971299948+959522450+944935303+934289508+932879925
1596+940407599+950457845+954497103+949049220+939266381+934871581+942016954
1587+958297312+975176156+983816692+979673716+965251407+948968239+941309768
1577+950741346+972087349+989376085+999521746+1008167839+1018196626+1027035976
1567+1032102388+1034210982+1034675542+1034113779+1032858368+1030944884
1558+1027711868+1022490517+1014947516+1004537769+990688400+972313498+948836739
1548+921990482+893320920+862040139+829128417+800836494+786184715+790792953
1538+804166905+815388195+827253955+845400728+868303334+887224416+899960475
1528+911051288+923552513+936177063+946691294+956042273+965579166+973427574
1519+978478147+982329832+985666821+987904616+989286736+990703855+992827075
1509+996730554+1003490178+1008951153+1009043695+1006131668+1002421255+999320569
1499+998528761+1000966711+1004662243+1006838535+1007204486+1006187295
1490+1002457212+994520669+985928543+982338070+985513671+994176113+1005574950
1480+1015977863+1022293491+1023297973+1018315863+1004936419+980254895+950043548
1470+927070243+914995705+911388691+915706787+927481219+941655601+953199925
1460+962361861+972421112+986290152+999699357+1004335953+998936352+984677348
1451+964770305+947688751+943971248+955901066+975575446+995372703+1011954188
1441+1023678358+1029654092+1028745153+1019573573+1005459991+992896944+984772700
1431+981529976+982679114+986597730+992056597+998742967+1005744322+1011870779
1421+1017633074+1024241846+1029977891+1031334465+1027573598+1019194913
1412+1006661691+991980342+978772888+969186116+961020742+948679884+928456706
1402+901767815+871277885+839687993+812590744+795857194+790629904+793704980
1392+800499474+808509398+818199824+830784650+845149224+857300529+864109648
1383+864721610+858880058+847157294+832679102+820798269+816311759+819708016
1373+825014053+824294477+813269127+792471986+767366520+745477593+732789624
1363+732895642+744550389+762030211+781366932+801963534+823957904+846595147
1353+868402326+888466734+906872291+923808934+939072356+952179221+962124344
1343+967188713+965117480+953805117+933313574+906211790+873937641+836237642
1333+795496927+758727326+733453190+722163436+722053587+729129282+740554815
1323+753882592+766835476+778619360+789972661+801240956+811454635+819761088
1313+826705603+833624572+841165210+848863980+855969756+862065303+866911378
1303+870443030+873364253+877271373+883592494+892311968+901669206+908890707
1293+911429884+908442241+901959029+896299367+895193338+899104099+905606662
1283+911706295+915077645+913902450+906797249+893400050+875079115+854847698
1273+836289118+822441665+815167219+814655207+819321372+826618810+834240749
1264+840913323+846493089+851432025+856067471+860396105+864346654+868007826
1254+871589039+875233542+878842856+882122622+884860933+887198678+889691297
1244+893003379+897151720+900552959+899482056+889136622+867406530+839062364
1234+814849167+804225789+808699655+822608035+839212001+854939473+869112769
1224+881949673+893517818+903734627+912615936+920412996+927521008+934210378
1214+940452369+945939338+950241404+953092055+954601716+955070874+954605548
1204+953068936+950307505+946100663+939892713+931150503+920559249+910620832
1194+904088379+901151573+898355591+890998822+877425162+861442930+850098315
1184+848280438+855377465+866913166+878476394+888004856+895668883+902674071
1174+909957010+917425608+924198963+929228780+931265717+928695883+920774094
1164+909603960+899742885+894782170+895030928+899092156+906182732+915772313
1154+926327100+935899821+943487018+949203265+953682048+957550273+960671780
1145+961339816+956841746+945992730+931510514+919080947+913319993+914721976
1135+920452465+927257816+933263567+937962496+941613514+944790839+948009421
1125+951481104+955175039+958924602+962298889+964683895+965957316+966959945
1115+968884478+972219871+976432525+980162289+980852360+974354522+957059720
1105+930747956+904668409+889906014+890678024+902255941+916925794+930021993
1095+940626212+949295806+956585963+962835171+968217016+972753789+976422753
1085+979250541+981167665+981835638+980794753+977693875+972444168+965759970
1075+959755241+957162097+959248082+964785505+971427041+977778114+983855075
1065+989990091+995874561+1000469004+1002052238+998031310+985519419+963871968
1055+937786290+916641974+908404560+913746681+926980192+941900463+955469333
1045+967161697+977189271+985783696+993148895+999480234+1004920772+1009497653
1035+1012904959+1013894943+1009877335+997884099+977012874+951107169+929077993
1026+920230212+926998777+942729569+957207889+963447580+960245539+951597467
1016+944259347+943374614+949390328+959398997+970313859+979714590+984770209
1006+982704213+973929112+963996635+959919696+963755924+971566587+978858021
996+984724800+990410839+996366775+1001832923+1006081150+1009188542+1011646802
986+1013396087+1013707624+1012287887+1009849617+1007087293+1003849806
977+1000172475+997591530+998307146+1002896992+1009600605+1016071235+1021222333
967+1025199578+1028363810+1030892195+1032974987+1034857049+1036711457
959+1038646975+1040738645+1042920238+1044944210+1046607021+1047998529
950+1049326236+1050360862+1050175013+1047805974+1043481682+1039008647
942+1036438367+1036316511+1037628826+1039242907+1040728937+1041871561
933+1041820851+1038643399+1030412307+1018435803+1008995987+1008999819
925+1018985049+1032341885+1041648414+1043741744+1038882257+1027840302
916+1010886096+988227522+960880493+932093482+907949644+894931425+895636695
907+907127179+923824837+941517779+958518351+974380133+988783091+1001298302
897+1011286471+1017691128+1018841862+1012563851+997387478+974423306+947332379
887+919324531+890644431+860346482+830607550+808109917+800238071+809561141
877+831813656+859089666+885021875+907266535+926188447+942592385+956806683
867+968701183+977887963+984329024+988855898+992236699+993323887+989215654
857+978381774+963279230+949303343+941563123+942496203+951136547+964015858
847+977472005+989437332+999241567+1006871618+1012930888+1018233987+1022962996
837+1026890745+1030218091+1033319415+1036034033+1038073013+1039773057
829+1041683923+1043716389+1045366618+1046542452+1047596749+1048766707
820+1050062417+1051400470+1052306790+1051458780+1046577451+1035250590
812+1017552858+998902184+988428316+992020322+1007412114+1026969428+1042893286
802+1048336443+1038537509+1016375428+993476782+979313257+971455972+962662988
792+954411779+955660930+969751329+989913260+1007758267+1020700741+1030697212
782+1039872816+1048649450+1056375618+1062537904+1067133881+1070256409
773+1071490808+1068744897+1057390957+1035739739+1011735703+999835328+1007303159
764+1026584508+1043253681+1048633228+1043880141+1034298798+1019837722+990852216
754+937290308+865008240+799067857+766331255+775315197+813592033+861201453
744+903942063+936781106+960312726+976989179+989489702+1000137860+1010458897
734+1020692949+1029800791+1036523053+1040212646+1039844076+1032582021
725+1014252719+981565549+935333523+884185743+844240286+829597640+840615708
715+863436949+881159844+885403218+878002637+862811511+838846306+803250686
705+759397981+719165702+695515100+693397564+708378125+732000434+756803112
696+777533130+790757444+795476682+793968043+791228965+792711930+801141070
686+814624487+828228292+837644734+841234888+839144687+831997845+821512928
676+811498127+806486001+808511889+816272354+827917138+841461803+851620238
666+854688161+852879991+848557233+842849352+837013995+832026585+827728861
656+823478974+819083727+814475999+809266719+803889089+800808265+803082272
646+811554457+824170385+837696848+849818072+860038648+869028849+877498416
636+885835270+894207633+902221645+908364197+909958288+904060981+889854283
626+871663315+858620188+858765355+873056867+894923697+913527941+918950788
616+909650582+895306700+888041643+891256138+898847102+902350910+896140980
606+878598058+853188080+828450098+813482566+812028852+821159558+835164824
596+849771067+863040278+874525015+884723621+894273479+903070486+910690829
586+917262303+923258155+928915326+934445149+940355740+946856132+953300577
577+958902568+963673218+967635135+968943682+964285053+953026593+940955440
567+936110514+938375899+936693418+920736796+894432760+873533306+869510525
557+880141120+895862014+910159465+921829540+931502531+939686873+946746985
547+952640907+957192880+960940463+964648896+968372338+971957893+975421720
537+978081349+979093814+979490932+981457872+985326097+989453618+992682738
527+994768724+995426031+995210356+995938107+998520586+1001834711+1004452061
517+1006444483+1008429880+1010181528+1011480623+1012778440+1014231835
509+1015310146+1015924535+1016866620+1018682709+1020978749+1022639069
500+1021839086+1016509802+1006215971+993986623+985308279+984205124+990258455
490+999216915+1006333165+1009395851+1009524732+1009531949+1010928503+1013286940
480+1016383539+1020423244+1024503313+1027622647+1030766315+1035368551
472+1040127130+1042404649+1042044254+1040849516+1040538489+1042036015
463+1044744501+1046595716+1046535108+1046354112+1048148805+1050833406
455+1052629185+1054112916+1055771256+1056278798+1054442527+1050389730
446+1044792337+1039138550+1036048977+1036766893+1039222789+1041613990
438+1045325872+1051293048+1056345154+1057151013+1054247545+1047443088
429+1033126349+1011638882+992244235+985062459+989334764+995821105+999783533
419+1003894001+1010875558+1018751684+1025714720+1031134118+1034900989
411+1038732044+1044286839+1050206115+1053480644+1052042194+1045066832
402+1034023536+1024444620+1024343329+1036680610+1052913324+1064840906
394+1071490808+1073741823+1069125218+1061040251+1051495630+1037991776
385+1020171038+1007208638+1006975272+1015049509+1024965637+1035146170
377+1046102353+1058161179+1071490808
##END=
