##TITLE=X8098
##JCAMP-DX=4.24
##DATA TYPE=INFRARED SPECTRUM
##DATE=30/10/2018
##SAMPLING PROCEDURE=Diamant-ATR
##ORIGIN=ComPlat
##XUNITS=1/CM
##YUNITS=TRANSMITTANCE
##RESOLUTION=4
##FIRSTX=3997.453
##LASTX=373.96442
##DELTAX=-1.4165319
##MAXY=0.76801938
##MINY=0.25394276
##XFACTOR=1
##YFACTOR=7.1527379e-010
##NPOINTS=2559
##FIRSTY=0.68521208
##XYDATA=(X++(Y..Y))
3997+957971744+959038134+959890696+960041025+959491873+958656144+957940662
3988+957618003+957868413+958647144+959627369+960470764+961003834+961076333
3978+960578095+959724450+959013051+958770641+958939803+959321710+959778865
3968+960194938+960420766+960327935+959965277+959654535+959777699+960419849
3958+961299077+961932978+961889312+961137331+960109357+959297377+958949470
3948+959019968+959169881+959214963+959707034+961304327+963387024+964563828
3938+964379916+963197779+961216662+958830556+957366593+957896246+959440790
3928+960146689+959628452+958985135+959063883+959290711+958735558+957566671
3918+956782108+957001352+957938328+959037301+960121690+961248328+962081807
3908+961703733+959480456+956135957+953642937+953372444+954881822+957296511
3898+960042525+962204304+962855454+961865563+960176355+959233046+959174881
3888+958752475+957558671+956381034+955459641+954177007+953187282+954160340
3878+956543030+957937412+957479590+955881714+954113258+953309279+954666161
3869+957410925+958958553+958533647+957632086+957549088+957857830+957722334
3859+957005935+955698468+953827349+952610046+954667078+959275128+962641626
3849+963832930+963520688+962184721+960021109+957167681+953980012+951421909
3839+951046502+953535106+957199347+959883279+961068333+961267411+961010918
3829+960674509+960635094+960809173+960271770+958517314+956929937+957330260
3819+958608895+959204046+960343351+963072116+965610968+966142705+964731240
3809+962497630+961082249+961313577+961688317+960747591+959450040+959456207
3799+960517930+962043475+964424415+967107097+968556560+968511645+967987325
3789+967638750+967354174+967089597+967114264+967259177+966931851+966250535
3779+966215370+967200511+968231985+968473813+968033574+967519170+967588918
3769+968195486+968321400+967654000+967258427+967580085+967566502+966506946
3759+965194229+964701408+964755323+964302751+962720874+960322352+958738225
3750+959042384+959417541+958396650+956925604+956682443+957359926+957161265
3740+955263063+951881731+948397569+947159184+949023470+952293138+955321728
3730+957370926+958080991+957690501+957012685+956689027+956880605+957717834
3720+959302377+961379325+963227695+963810514+962489214+960068608+958883888
3710+960118773+961912395+962378800+961373742+959812448+958949720+959385459
3700+960369600+961063916+961499489+961713733+961367159+960501597+960097524
3690+961447407+964135422+965726715+965330392+964041508+962704375+961338493
3680+959685951+957711001+956081375+956510948+959256378+961118165+960629510
3670+960175022+962609794+966823104+969792529+970515011+969522286+967706165
3660+965670967+963709516+962491880+962762540+963432856+962173305+958375817
3650+954310170+954021427+957974994+962221054+964957568+966474613+967054348
3640+967008100+966853770+966683441+965937710+964147672+961383408+957952911
3631+954717493+954086676+957394759+961039250+962071141+961199246+960096607
3621+959909945+960938253+962300885+962631377+961730566+960660093+960480764
3611+961272161+962796372+965141147+967716915+969096130+968626725+966910769
3601+964936735+963287693+962033975+961161497+960887254+961375075+962062891
3591+961923894+960702925+959685451+960658343+963324359+965797130+967053015
3581+967242427+967098181+967108680+966989433+966424948+965818713+965457472
3571+964679658+962875037+960957419+960927836+962919786+964759656+965358308
3561+965354225+965597468+966257285+966901936+966996683+966365199+965457639
3551+964957985+964911402+964790822+964347083+963869262+963803430+964482330
3541+965962293+967703499+968759139+968653058+967802746+966840104+965977376
3531+965258144+964765239+964299501+963419773+962281802+961985560+963424857
3521+965895961+967612168+967679499+966894686+966477863+966523445+966196120
3512+965191812+964334917+964461914+965168646+965367141+964803405+964343833
3502+964716324+965506804+965907627+965805213+965678883+965815130+965979959
3492+965820046+965358558+965008567+965105731+965453139+965508804+965094231
3482+964706824+964912152+965591135+966204536+966581527+966921518+967197678
3472+967155346+966808605+966281868+965345975+963870345+962474714+961903978
3462+962004976+962110640+962152805+962601377+963532604+964414498+964729157
3452+964442998+963933510+963651268+963784931+964136839+964373499+964392832
3442+964341167+964366750+964432415+964357583+964046508+963659684+963484855
3432+963662434+964125922+964714241+965180146+965189895+964536745+963381441
3422+962242470+961700233+961942061+962581211+963093782+963318443+963361275
3412+963255361+963016784+962841871+962931869+963220778+963514104+963769515
3403+964019675+964137005+963926011+963354358+962495047+961401074+960272020
3393+959566537+959666201+960470681+961449323+961996809+961761232+960843172
3383+959772949+959178297+959233712+959377292+958847805+957581004+956162790
3373+954874572+953308862+951046502+948331737+945934381+944378587+943401029
3363+942501051+941926732+942339222+943471193+944143260+943837018+943313697
3353+943430944+944284340+945736720+947822000+950210190+952065643+952964537
3343+953426859+954157257+955267146+956473949+957521172+958254570+958774724
3333+959549204+960877754+962263803+962836955+962475964+962039308+962353134
3323+963364525+964392082+964852321+964673242+964262669+964122506+964428081
3313+964985567+965442972+965444639+964860404+964011842+963473439+963622018
3303+964395082+965233311+965396224+964742323+963947343+963590269+963527771
3293+963513938+963762431+964445748+965174979+965414890+965101814+964539662
3284+963977176+963630851+963843096+964718907+965721882+966151954+965966959
3274+965696549+965669550+965775214+965858879+965890544+965818796+965664967
3264+965753465+966433447+967493754+968207986+968083656+967325592+966460030
3254+965716549+964970401+964232503+963922177+964447831+965653800+966879186
3244+967551169+967699832+967812496+968051573+967890494+966961267+965909711
3234+965662383+966133205+966375865+965826129+964871820+964322251+964609743
3224+965456222+966181454+966341533+966092373+965932960+966120705+966462697
3214+966720190+966948768+967256843+967510170+967504087+967241260+966939185
3204+966837854+966914519+966844270+966490696+966245035+966508529+967044265
3194+967210594+966713274+965905794+965338475+965076065+964689991+964032675
3184+963575019+963676434+964028258+964176921+964125089+964035841+963716849
3174+962849121+961522071+960151189+959033467+958361401+958413400+959244879
3165+960410516+961409407+962122556+962595044+962804956+962754707+962420965
3155+961756982+961020917+960729675+961054583+961643318+962064141+962084890
3145+961718316+961251995+960937419+960665676+960373767+960461181+961196830
3135+962073641+962335634+961867479+961213829+960981752+961375492+962038142
3125+962339051+961959477+961123248+960285186+959772365+959614703+959576787
3115+959453207+959298127+959179297+958881221+958179656+957294261+956692277
3105+956441866+956122458+955469724+954729243+954163840+953694269+953326195
3095+953383277+953892014+954207839+953671353+952354719+950939672+950049444
3085+949805700+949929197+950143275+950365353+950509849+950236273+948892890
3075+945670055+939952699+931708240+921680160+911422335+903100795+898703740
3065+898885985+902352148+906374380+908234083+906826951+903254125+899644549
3055+897288275+896076139+895369491+894760673+894045191+892995467+891285844
3046+888519080+884511348+879918714+876500050+876132726+879174316+884084442
3036+888900237+892796555+896093722+899316724+902613308+905771145+908512826
3026+910795435+912772635+914461175+915691728+916401710+916729452+916880281
3016+917134608+917818257+918978145+920196281+920957928+921149590+921111924
3006+921326169+922083983+923312202+924644835+925693392+926246711+926293627
2996+925982468+925533313+925145323+925002659+925217737+925583478+925592645
2986+924951161+923859355+922663218+921518164+920439525+919426467+918607654
2976+918368660+919050226+920435691+921874822+922931795+923639361+924187597
2966+924660085+925092491+925612144+926345376+927189021+927880670+928331242
2956+928714316+929266302+930107531+931112172+931915985+932288059+932403973
2946+932459055+932194811+931169254+929425215+927605677+926370292+925874804
2936+925914970+926267211+926533454+925980635+924160431+921606078+919453633
2927+918420576+918325328+918520073+918671069+919028060+919908788+921169506
2917+922385809+923366367+924357509+925811889+927875920+930075698+931744573
2907+932749547+933529611+934495003+935641974+936675698+937357431+937756004
2897+938158577+938746229+939448212+940092445+940600266+941043005+941534326
2887+942099395+942698213+943315447+943952848+944599165+945245982+945870050
2877+946423202+946886107+947286764+947727919+948434068+949550040+950819841
2867+951692569+951815066+951275830+950460767+949808534+949539207+949467375
2857+949168133+948427318+947502258+946806776+946344788+945757052+945045904
2847+944801243+945446644+946677696+947858333+948647646+949181133+949849199
2837+950845841+951911230+952716210+953342694+954038010+954705493+955038068
2827+955014319+954962320+955171398+955602554+955990961+956150040+956101291
2817+955975628+955939962+956158457+956659944+957302844+957963244+958633311
2808+959265545+959679368+959742116+959533705+959226463+958908054+958655977
2798+958667560+959082216+959720033+960203771+960326435+960219937+960242687
2788+960687592+961478489+962223304+962654459+962828622+962848205+962675209
2778+962316885+961931311+961635318+961380242+961132748+961056333+961352659
2768+961989560+962782623+963658184+964585077+965343225+965668550+965578386
2758+965323892+965092981+964885403+964577994+964044008+963305110+962567628
2748+962029475+961699817+961477656+961318410+961227245+961203663+961324493
2738+961769065+962592461+963560353+964324167+964676992+964604827+964259669
2728+963964093+964047591+964553661+965225895+965860212+966541028+967425589
2718+968429647+969302792+969931276+970411847+970909084+971578068+972526710
2708+973696931+974821236+975597966+975921875+975924541+975783878+975510135
2698+974987482+974243834+973537601+973080280+972841619+972777121+973028614
2689+973618599+974151003+974213918+973965424+973927092+974275166+974734655
2679+975073729+975279641+975275474+974899817+974250833+973735346+973669431
2669+973984590+974316748+974299999+973897009+973512769+973611850+974194668
2659+974828569+975115645+974952899+974505994+974074505+973764679+973283191
2649+972367381+971306158+970628675+970430097+970414930+970423930+970536594
2639+970775338+971023748+971198994+971364406+971718981+972466878+973562267
2629+974643490+975388555+975822127+976029289+975787878+974909067+973817761
2619+973316107+973752346+974768987+975815377+976570692+976982181+977301840
2609+977999322+979252207+980628256+981609481+982228132+982822867+983380020
2599+983549515+983281106+983081194+983419519+984042336+984250248+983843508
2589+983367687+983348687+983701428+984008171+984073586+984088252+984361328
2580+984993812+985888456+986946513+988001070+988741134+989075876+989316787
2570+989642528+989812357+989836274+990321345+991567980+992815448+993037026
2560+992156215+990906247+989861023+989204706+989067793+989440534+990003936
2550+990449341+990691252+990676086+990460674+990460674+991052160+991975136
2540+992556288+992388792+991600312+990763333+990602504+991420400+992831781
2530+994263662+995448549+996257861+996510605+996206363+995584962+994842397
2520+994136832+993838173+994299994+995280886+995981285+995868038+995265553
2510+994956311+995338551+996109365+996685184+996787848+996587020+996349526
2500+996136781+995939453+995913870+996264861+996969344+997726074+998112398
2490+997845988+997067341+996316860+996089366+996495855+997364667+998395058
2480+999151038+999249453+998757048+998181063+997907737+997830238+997673659
2470+997498247+997598744+997951485+998088149+997674659+997003676+996664268
2461+996817847+997092924+997179255+997148756+997081424+996853430+996548937
2451+996614352+997251086+998064899+998611302+998878962+999022625+999066124
2441+999019542+998917711+998715216+998472889+998535387+999167538+1000158846
2431+1001049657+1001561978+1001656975+1001455480+1001222403+1001143738
2422+1001130155+1001169404+1001667558+1002894611+1004291992+1004951392
2414+1004634233+1003812171+1002976692+1002369791+1002100464+1002135630
2405+1002391873+1002883611+1003506512+1003844253+1003596260+1002993192
2397+1002475705+1002220878+1002184212+1002291626+1002442955+1002526787
2388+1002296042+1001059657+997951402+992844281+986528607+979697113+972270633
2378+963966676+955010569+945968880+937202602+928636984+919916454+910834850
2368+901613000+892694391+884620678+878226923+874250523+872517734+872283240
2359+873580040+877308780+883815782+892509563+902613558+912687304+920092117
2349+922383559+918955312+911780493+904781170+900882685+899916376+900340615
2339+901332007+903002715+905482569+908059420+909774210+910865683+912519558
2329+914936413+916918780+917648762+917722010+918347077+920359360+924088516
2319+929326800+934976074+939468794+942138060+943834018+945897632+948852058
2309+952375719+956162707+960233437+964428248+968193486+971227410+974023923
2299+977324506+981111660+984475575+986561439+987511249+988333311+989854940
2289+992007135+994207747+996109532+997669493+998790798+999460864+1000174429
2279+1001636476+1003847420+1005857203+1006684182+1006307191+1005602209
2271+1005438213+1005952867+1006680348+1007311249+1008188477+1009756771
2262+1011513477+1012104462+1010836910+1008490219+1006274275+1004852145
2254+1004703398+1006089863+1008157228+1009569692+1010390755+1011696305
2245+1013254766+1013551008+1012426287+1011813719+1013173935+1015510876
2237+1016734928+1016236107+1015174134+1014677563+1014813893+1015152135
2228+1015446711+1015770286+1016367187+1017286664+1018301805+1019299113
2220+1020202757+1020541249+1020051011+1019525941+1020027928+1021545890
2211+1023210181+1024503732+1025783283+1027740317+1030441249+1032939436
2203+1034044741+1033334926+1031404558+1029551438+1028919704+1029446857
2194+1030040342+1029863680+1028856539+1027460574+1026485849+1026529348
2186+1027229497+1028083725+1029601603+1032200455+1034805472+1036157188
2177+1036506679+1036510429+1035536454+1032719358+1029037034+1026649678
2169+1026476016+1027653819+1029052951+1030172589+1031281728+1033635668
2160+1037998558+1042096455+1042510778+1039568185+1036582094+1035928860
2152+1037815563+1040738322+1042495611+1041818962+1039101864+1035666534
2143+1032969102+1031685718+1030903654+1029461107+1028336635+1029831181
2135+1034100823+1038430214+1040339666+1039820429+1038301551+1036763089
2126+1035285460+1033851996+1032992685+1033247345+1034064241+1033951077
2118+1032292202+1030442499+1030123424+1031129065+1031609553+1030466582
2109+1028538547+1027425492+1027807899+1029004619+1029963678+1030428999
2101+1030750241+1030822489+1030089758+1028538797+1026824840+1025450625
2092+1024507899+1024008161+1023942830+1024270738+1025101134+1026489265
2084+1027902730+1028401884+1027684735+1026629762+1026466766+1027613820
2075+1029558605+1031601303+1033303677+1034454314+1035106298+1035557953
2067+1036058691+1036693008+1037501654+1038279968+1038346049+1037139497
2058+1035172213+1033979576+1034743890+1036723174+1037390740+1034961468
2050+1030745575+1028223388+1029565438+1033792331+1038468380+1042147287
2041+1044802470+1046512677+1046709172+1045349373+1043825328+1043298675
2033+1043140012+1042522277+1042030290+1042149870+1042167786+1041969708
2024+1042790437+1044828719+1046070355+1045018048+1043042431+1042481028
2016+1043830661+1046216934+1048724871+1050034171+1049204775+1047669398
2007+1047648648+1048323381+1046791170+1042820103+1039518520+1039431689
1999+1041877710+1044118070+1044412896+1043495336+1043131012+1043836578
1990+1044517977+1044108571+1042550610+1040154337+1037043082+1033608252
1982+1031028734+1030899987+1034146072+1039734848+1044512394+1045660782
1973+1043342423+1039721848+1036088523+1032361617+1028769958+1026208022
1965+1024703560+1023189765+1021182649+1019367612+1018106477+1016326772
1956+1012557200+1006758513+1000898244+997720158+998730382+1003128021+1008549218
1946+1012880692+1015625873+1017758736+1020285672+1023117850+1025644787
1938+1027549572+1028435633+1027680069+1025168882+1021584639+1017884399
1929+1014788727+1012347122+1009905267+1007250417+1005541961+1005961783
1921+1007935067+1010204760+1012577200+1015207717+1017235165+1017643572
1912+1016838009+1016416686+1017273915+1018542882+1019165950+1019475526
1904+1020191674+1020974571+1021030403+1020452834+1019990763+1019932431
1895+1019938097+1019706103+1019366862+1019352279+1020153675+1022151625
1887+1025593788+1030350001+1035294626+1038765456+1040421247+1041564718
1878+1043239009+1045244292+1046932833+1047868893+1047992806+1047800644
1870+1047981056+1048643540+1049516184+1050771986+1052548441+1054277314
1861+1055218457+1055373953+1055469367+1056067852+1057076244+1058084135
1853+1058744868+1058775451+1058007470+1056584506+1054908465+1053479834
1844+1052841767+1053041762+1053367504+1053348421+1053147509+1052955597
1836+1052542358+1051451469+1049528767+1047324240+1046087437+1046675339
1827+1048458211+1050242083+1051207558+1050908482+1049336272+1046872918
1819+1044169319+1041920376+1040323583+1039045948+1037906561+1037100498
1810+1036801422+1037043749+1037845395+1038963617+1039872011+1040368248
1802+1040945317+1042234951+1044084988+1045621616+1046214268+1046042105
1793+1046126520+1047758145+1050795319+1053602331+1055282539+1056090435
1785+1056445593+1056495258+1056489758+1056816750+1057409652+1057720311
1776+1057256656+1055728778+1053200175+1050530492+1048741620+1047734396
1768+1046751087+1045136545+1042606775+1039535686+1036830171+1035155047
1759+1034458064+1034721974+1036051191+1037826563+1039069115+1039465438
1751+1039599018+1040465163+1042252368+1044176069+1045573534+1046270683
1742+1046460511+1046527760+1046587092+1046316848+1045681198+1045541535
1734+1047332489+1051097978+1055425119+1059923588+1064490140+1068372125
1725+1071055557+1072787847+1073741823+1073405248+1071403799+1068691367
1717+1067199571+1067015909+1066407675+1064370309+1060510657+1054685887
1708+1046338348+1033671917+1015927448+994784649+966543195+917610263+842585656
1698+762049188+685352248+604957193+533119506+482992604+448499558+422862288
1689+406808485+400699306+403699272+418266071+442856242+470783287+500431206
1679+531592753+564241929+599246588+633022652+659326197+679655225+700570656
1669+722932092+741103550+753502820+763328989+773532148+783957052+792186094
1659+797280966+799819485+800553050+801588857+806930389+814332119+818501430
1649+821733849+828887001+841354020+853707708+862303992+868218509+872796810
1639+876560465+880581114+887295028+896633459+904279432+908889233+912157817
1629+915510066+919230805+922823631+926183880+929921535+933763605+936157711
1619+936528702+936152211+936868193+938436320+938932725+937344515+933425280
1609+926933111+917388268+904568508+889450640+874313522+861815921+853630377
1599+849542230+848130516+848451008+850824365+855830738+862823478+869826552
1589+874675429+876037895+873495792+867542693+860625534+857074707+859649642
1579+867249033+877978179+891705666+906237800+916728452+922677135+927174271
1570+932969042+939814619+945590973+949598456+951864898+951916397+949627121
1560+947549924+950903339+957188431+961402741+963908511+965551803+966682691
1550+967738414+968530978+968136988+966102539+962832705+958952886+955835465
1540+956618528+960562679+962978368+962668876+961435740+961678817+963327776
1530+964370583+964185587+963596019+963168780+962524713+961785648+962141389
1520+963622018+964879987+965957209+967728331+969735364+970653008+969667116
1510+966575360+962293552+960470431+962318051+959738866+947492592+926053633
1500+900067039+880151875+878658246+895626317+916697536+931018258+934648916
1490+922306144+890791773+852069000+824764522+817419791+828307599+849901221
1480+872929723+891409007+904402429+913424785+920488940+927488013+933701107
1470+935351232+930590018+920932512+910670021+906116303+909411553+915732727
1460+920649436+923956436+929043724+938087163+946665196+951669737+953543273
1451+952237806+945657888+929843704+901998907+865081505+828678340+804969855
1441+800342555+811565522+832219917+856012650+875210416+886593295+893055049
1431+897982591+902650723+906392546+908299498+908175084+905756645+899195811
1421+883921113+855097923+817560121+786488988+770214482+768640105+779043009
1411+795099937+808133525+812633328+809199915+803470643+802181842+807858282
1401+819046666+833528801+848457008+861225102+871553675+880168541+886813123
1391+891200012+894109189+897039782+901089513+905848809+910264865+914089518
1381+917658261+921139340+924333176+927049191+929630376+932774880+936450287
1371+939767287+942147894+943495776+943503443+941412412+936067880+926087799
1361+910689187+889989460+864281192+834639440+804384953+778650269+761759945
1351+755477854+759419504+771697111+789366915+809178499+828127104+844108034
1341+856722632+867136120+876813375+886353885+895621734+904358847+912251315
1332+918924479+924211013+928237911+931114255+932741714+933061956+932269809
1322+930730932+928948393+927533846+926763032+926087465+924170347+919122558
1312+909000313+893022716+872554900+850598787+830405880+815032684+807825700
1302+811432359+825214011+844719685+864635349+881878331+896013474+907882841
1292+918516823+928746648+938866310+948398569+956558780+963050533+968169404
1282+972309716+975767129+978850134+981777477+984516324+986965929+989260121
1272+991756225+994711317+997997651+1001210737+1004082997+1006698098+1009261033
1262+1011747804+1013859584+1015338797+1016234191+1016659847+1016310605
1254+1014411570+1010071180+1002449955+990777500+974747571+955214897+934579001
1244+916433376+904445928+900937767+905978140+917415768+931725406+945346563
1234+955900046+962489130+964950401+962801622+954796908+939612707+917469516
1224+891484672+867326281+851076025+846627720+854083032+870086628+889919961
1214+909675130+927038025+940955840+951128334+957536755+959939445+957705918
1204+950478100+939474878+928200995+921268670+921807907+929742957+942468052
1194+956871105+970594759+982048053+990370843+995843289+999778189+1003519845
1184+1007645407+1012090129+1016581682+1020864657+1024882389+1028856539
1176+1033023434+1037378074+1041827128+1046312932+1050316664+1052419944
1167+1051255974+1047289574+1042890851+1039660683+1035384291+1023989162
1159+999673942+962495880+920021368+882662145+857471530+846341561+847811274
1149+858285593+872278573+883509290+886520797+877711603+855788073+821580769
1139+777326136+726365338+673367634+623886841+582970623+553873524+537572477
1129+533050591+538142379+550467985+567922670+588724853+611372282+634648861
1119+657569449+679178779+698388836+714039149+724927958+729605673+726473502
1109+714660384+695057128+670464416+644644234+621001330+601828606+588285281
1099+580586225+578299741+580952299+588410528+600490890+616387697+634698651
1089+653900125+672834564+690983148+708301794+724781962+740264571+754553960
1079+767402886+778083450+784639201+784068632+775047110+761356539+751024216
1069+750509146+760178735+775655678+792169428+807003137+819244328+828914501
1060+836555808+842891981+848446591+853513380+858371591+863261051+868234259
1050+873225216+878111593+882648728+886683376+890518613+894710090+899456804
1040+904475844+909385304+913891856+917752592+920877264+923384617+925444065
1030+927211770+928780231+929848037+929335967+924766082+911582415+885484157
1020+849156657+815461174+798155027+797831785+801248532+796379988+784945527
1010+778238363+783651809+798322523+814010793+824222702+826968050+824907602
1000+824358532+831138445+845483499+862276909+876449468+886656044+894169604
990+900380114+905879559+910735519+914767084+917667678+919381968+920454524
980+921506998+922340977+922092233+920178781+916598622+911512250+904893334
970+896351716+885150832+870584699+852351993+830699622+806511483+781077458
960+755465354+730334155+706322177+683949867+663133601+643779589+627276505
950+616706397+614998982+622912949+638721050+659400945+682034415+704607387
941+726110928+746211421+764904116+782264011+798117944+811834765+822557161
931+829287491+830187469+822540495+805450676+783307902+764826618+757181477
921+761550784+774477624+791974599+811441025+831092362+849324569+864856677
911+877077702+886210472+893102881+898688073+903574117+908052670+912284647
901+916336545+920063367+923148290+925433065+927080024+928226828+928731399
891+928580569+928265910+928363325+929036808+930333692+932557469+935885552
881+939988531+944370254+948630980+952093726+953506357+951114834+942764878
871+926715116+903707280+878414252+857820521+847287787+847784775+856487222
861+869374313+882916055+894113106+900409780+900097621+892279652+876345554
851+852139081+820906203+785703591+750351400+717463730+687345948+659531233
841+636003702+622088303+622850659+638384433+662722528+686746713+702354528
832+705994936+700378994+693041804+692065454+701608296+720341824+743704234
822+767526883+789794988+810046893+828276267+844534357+858938743+871698421
812+883194548+894004775+904633590+915083910+924800915+933198036+940145111
802+945772719+949987029+952620879+954332419+957075100+962881620+971589567
792+979517617+979875858+965189979+933181120+893560036+866223309+867067371
782+894614843+932433472+962615877+974030839+960535763+917836924+846445392
772+757415971+670173506+599712951+547715180+510386330+491342977+499444356
762+535427156+587843042+642632493+691913374+733715320+768233865+796157494
752+818528679+836623890+851646177+864291025+874608264+882548981+888576412
742+893517204+898061339+902792137+908477660+915761226+924478506+933647941
732+942276640+950061444+957415758+965054982+973465770+982411211+990859498
722+997669409+1002469538+1005796037+1008596800+1011912216+1016684179+1023290346
713+1031266895+1039513937+1046632257+1051606132+1054638222+1056570506
704+1057057994+1054015737+1044950716+1028203889+1002959109+968409064+923073041
694+865293083+794272292+710149331+614699031+515361454+428241986+371788577
684+355028750+373214541+413247406+461896595+510515743+554956372+593931263
674+627143050+653354389+671565013+685052881+702689102+728067795+750418481
664+763350905+770658387+777883205+788059282+800781794+813976878+826281484
654+837728445+848653253+858710916+867199785+873597373+876838125+873552541
645+858290093+828619341+790859211+757555885+736787575+725516276+715560861
635+703509082+690693238+674852763+647777571+603596686+546750912+490476041
625+448614763+428581061+429955984+447378295+473971832+503082764+529667052
615+553001046+576752697+603731683+632031469+657921024+680112589+699423685
605+716558169+731737036+745061783+756440413+765766927+773333403+779797657
595+785721091+791300950+796763562+802824742+810150808+818480597+826772971
585+834190534+841042111+848580754+857405865+866565384+874892341+882404068
575+889813631+897640350+906106803+914890915+923016293+929978701+936442787
565+942033396+941555908+924084849+878465584+802426336+706664085+610370765
555+533180505+488814207+481529391+505420122+547880467+596496907+643800588
545+686142728+721211302+748467781+769548332+785976834+796414154+795772420
535+777526047+739725751+689852426+641580353+606223870+589426794+594229631
526+619955732+657295331+692647481+716622834+724625966+714920794+690044421
516+658588299+633740342+628211357+646960675+683505003+725287449+762355597
506+791038873+812229255+827563451+837646030+843770626+848419092+852498906
496+854423190+852468906+846264813+836023405+822370583+806607897+789948901
486+773803391+761736279+759159428+768969013+788550436+811678436+832307915
476+847237455+856331142+861371682+865423829+871225183+879003403+887189364
466+894788422+902123403+909254057+914831916+917597763+918296495+919049810
456+921022593+924232679+929022225+934783246+938443654+937566009+934127596
446+932706965+935161736+938845893+940558767+940419187+940536601+941841985
436+943729104+945393395+946342621+945805801+942725546+936516702+927224770
426+915444234+903125961+893061882+884588763+871072020+847358119+825213844
416+821482772+833358472+849981386+864491770+874657680+879449892+876566465
407+865259084+848814082+831300940+813934129+795956749+778174531+766138251
397+766873150+780296561+801618273+827632200+855647993+879685470+892164988
387+892699891+892588144+903460453+921789907+936957941+946029796+950594097
377+949400211+940170693+927727424
##END=
