##TITLE=X7697
##JCAMP-DX=5.0
##DATA TYPE=LINK
##BLOCKS=1


$$ === CHEMSPECTRA SPECTRUM ORIG ===
##TITLE=X7697
##JCAMP-DX=5.00
##DATA TYPE=INFRARED SPECTRUM
##DATA CLASS=XYDATA
##ORIGIN=ComPlat
##OWNER=
##XUNITS=1/CM
##YUNITS=TRANSMITTANCE
##XFACTOR=1
##YFACTOR=8.8395286e-010
##FIRSTX=3997.453
##LASTX=373.96442
##MAXX=3997.453
##MAXY=0.9491371553424637
##MINX=373.96442
##MINY=0.6544754534370038
##NPOINTS=2559
##XYDATA= (X++(Y..Y))
2559A069826789A070262317A070730819A070903169A070650915A070037237A069418705
2552A069345476A070120917A071454878A072692145A073435962A073741823A073650793
2545A072982295A071783868A070553950A069812629A069714047A070082415A070532441
2538A070667165A070385781A069889971A069437855A069272720A069594224A070365350
2531A071229191A071665529A071330673A070454694A069769002A069827464A070493736
2524A071089612A070984759A070240066A069751403A070349774A071590075A072323507
2517A072163699A071347126A070019638A068530589A067775038A068317983A069508251
2510A070265621A070197113A069679725A069283980A069034693A068495121A067632561
2503A067066151A067348412A068297350A069343656A070234941A071064730A071682926
2496A071392169A069649786A067035538A065160656A065129841A066549775A068540568
2489A070404796A071519004A071594728A070840055A069923214A069697189A070214847
2482A070610592A070302101A069336508A067944288A066391113A065428757A066067451
2475A067882185A069124779A068886011A067547060A066011484A065082505A065461730
2468A067127243A068746566A069203537A068723033A068254936A068166671A068088452
2461A067751304A067107688A066122001A065021482A064842388A066252747A068256958
2454A070071559A071363107A071734509A070886379A068972455A066700548A065028831
2447A064782443A066145804A068231538A069913301A070678628A070563323A070009861
2440A069591325A069564083A069656799A069311829A068324726A067219284A066801153
2433A067040595A067543216A068561944A070059287A071077138A070958192A069878643
2426A068523037A067946783A068606447A069160921A068110907A065878580A064517445
2419A065126942A067036617A069560779A071909287A073139811A073190181A072730580
2412A072242120A071803625A071473219A071316378A071056909A070239391A068932334
2405A067985353A068142666A069024376A069849041A070408842A070864397A071268570
2398A071483469A071403295A071189880A071193926A071494662A071632151A071071676
2391A069876687A068862343A068691678A068967331A068651153A067021850A064709687
2384A063397506A063177483A062919497A062454771A062469404A063086857A063518542
2377A063049568A061396395A059118756A057801653A058592063A060991480A064017589
2370A066824618A068518249A068539287A067251650A065873186A065411832A065930838
2363A066938979A068029789A068900913A069012981A067857034A065872377A064932205
2356A066453755A069178992A071116651A071504709A070689012A069622073A069160517
2349A069341093A069759764A070259485A070731628A070960349A070886851A070676470
2342A070500951A070361439A070153149A069874395A069483370A068689993A067193526
2335A065144676A063083081A061552765A061359511A062836558A064241995A063938898
2328A062501500A062301908A064327226A066780991A067906662A067340320A065774738
2321A064012734A062393478A061352229A061573938A062621660A062896233A061485470
2314A058777967A056235059A055368655A056302556A058274334A060376319A061772653
2307A062186536A062034617A061642581A060726617A058991854A056692232A054226464
2300A051902096A050793957A052206339A054892669A056777059A057317036A056786634
2293A055683889A054779590A054713981A055117345A055177290A054775409A054483236
2286A054731647A055540668A056826822A058057548A058314051A057393568A056011260
2279A054917618A054247435A053757491A053246576A052679830A052342884A052468236
2272A052621436A052188807A051494956A051899601A053848049A056047200A057184132
2265A057063433A056582592A056593650A056815224A056613272A056193860A055938773
2258A055362654A053824449A051857053A051013036A051705067A052652116A053225066
2251A053900442A055060772A056380437A057179277A057006792A056000539A054986397
2244A054776421A055130898A055146205A054455590A053465521A052825276A053116572
2237A054546013A056385967A057288176A056697155A055492389A054723219A054362133
2230A053823033A052975374A052223803A051908098A052035202A052635394A053876369
2223A055459955A056409837A056061023A054993544A054394836A054549924A054639741
2216A054097741A053461744A053570643A054375821A055044926A054980058A054400433
2209A054007790A054086345A054233747A054051349A053733081A053802332A054363481
2202A054893951A054907167A054600362A054576896A054956660A055166366A054723825
2195A053869829A053220414A052981443A052917182A053029723A053638343A054589978
2188A055069605A054636571A053789318A053167347A052837615A052590283A052354212
2181A052210992A052384556A053059054A053999091A054674197A054818294A054599418
2174A054349658A054364897A054721262A055090778A055006557A054428349A053793633
2167A053555135A053811570A054159574A053990056A053194521A052383949A052168713
2160A052514155A053017113A053452911A053823774A054136109A054271238A054014128
2153A053318254A052536003A052128525A052223803A052711252A053476444A054241838
2146A054528347A054130714A053445898A053149613A053626947A054705080A055816388
2139A056386506A056189746A055469800A054702990A054138401A053610697A052920352
2132A052233109A051914234A052110791A052662433A053254061A053564912A053502944
2125A053433154A053932404A055070819A056140320A056450699A056225754A056219011
2118A056611721A056810031A056298510A055319634A054623288A054583774A054741086
2111A054584853A054574334A055546063A057200585A058185058A057813453A056771867
2104A055945786A055529947A055515180A056068710A057036798A057781356A057866250
2097A057458503A056927629A056436876A055940122A055314644A054583842A054107586
2090A054357008A055419430A056834441A057983375A058621665A058954160A059204594
2083A059310256A059080119A058444594A057572459A056882923A056778406A057286355
2076A058110278A058840474A058935818A058008324A056480166A055468991A055705736
2069A056862897A057934826A058100501A057310967A056143018A055143845A054531584
2062A054432462A054950726A055932098A056970380A057702329A057978116A057801720
2055A057300111A056862020A057042597A057902999A058631037A058434817A057636585
2048A057151631A057185750A057301931A057399907A057669423A057868408A057621008
2041A057292559A057636585A058542570A058988415A058390111A057271790A056350566
2034A055630687A054788221A053958634A053674418A054191738A055151733A055867028
2027A055943696A055751386A056042413A056864650A057265654A056536335A055278232
2020A054587887A054661251A054829353A054548306A053859579A053199645A053037341
2013A053422905A053826134A053733014A053320007A053156760A053358307A053568418
2006A053703345A054083109A054737918A055186460A055095296A054718161A054466514
1999A054330845A053933820A053113740A052331354A052292784A053170919A054381080
1992A055094688A054828544A053728429A052435937A051488078A050913645A050627878
1985A050825784A051534402A052224612A052374778A052085033A051769934A051552472
1978A051321594A051117957A051097593A051267516A051537369A051877012A052205597
1971A052361629A052360281A052394670A052498714A052493724A052219555A051604057
1964A050802790A050371241A050783640A051710057A052318137A052228119A051699335
1957A051104943A050616752A050152971A049533832A048943957A048952588A049716499
1950A050607312A050965296A050753634A050292618A049899503A049906448A050471306
1943A051261514A051692188A051571354A051293813A051338182A051697043A051957591
1936A051824754A051289296A050389379A049235725A048254151A047993064A048552865
1929A049374900A049732412A049464446A049061419A048902825A048811795A048631892
1922A048675250A049150561A049644416A049631874A049170453A048797162A048897161
1915A049317585A049588517A049434440A048919143A048187126A047306023A046314133
1908A045273963A044337971A043681881A043209266A042521484A041382866A040057604
1901A039136447A039072524A039726322A040412149A040666831A040713492A040844171
1894A040856038A040580386A040407024A040769931A041503431A042075774A042273140
1887A042370037A042578394A042605434A042080494A041208830A040541546A040251531
1880A040093207A039921193A039862327A040062324A040433118A040668719A040614708
1873A040564810A040884022A041458590A041943342A042303146A042586486A042524451
1866A041941791A041213146A040813895A040766627A040840058A040877953A040782135
1859A040590231A040566360A040849835A041164596A041170261A040871412A040516935
1852A040352204A040484838A040760491A040843227A040571687A040102984A039671097
1845A039314057A038820404A037927298A036580728A034896133A032930422A030811041
1838A028913436A027396875A025727384A023218124A019865319A016172466A012361071
1831A008180971A003419426I98347838I93579819I89525476I86119873I83165914
1824I80763261I79232607I78701127I78938546I79677238I80979710I83053374I85713205
1816I88323407I90316156I91520113I92024959I92062382I92052200I92444708I93311382
1808I94160389I94353103I93776984I92995339I92725688I93302346I94532128I95936621
1800I97249342I98683436A000485021A002354172A003694201A004353596A004796339
1793A005577040A006817544A008184545A009346561A010364142A011490419A012737194
1786A013911009A014899461A015653594A016099574A016334701A016698956A017438660
1779A018469996A019554198A020510418A021220048A021659285A021954020A022218142
1772A022377343A022278289A021820644A020862131A019221837A016948716A014459752
1765A012361476A011178220A011072490A011690011A012442526A013044538A013678175
1758A014701083A016294716A018264808A020099906A021377901A022173908A022962902
1751A024109611A025510260A026722241A027456685A027920937A028614250A029815105
1744A031333216A032740743A033815505A034736055A035800027A037032102A038227023
1737A039283107A040239259A041037424A041558925A041925271A042479475A043349857
1730A044244918A044785974A044848212A044527112A044070748A043883158A044224487
1723A044883747A045484141A046008541A046676028A047471293A048133384A048480378
1716A048509440A048271818A047817072A047275611A046919584A047007713A047532721
1709A048201759A048667900A048756637A048584287A048491908A048728924A049183130
1702A049526886A049571660A049388790A049159058A049018467A049017253A049108890
1695A049127433A048894666A048460823A048127316A048163121A048609303A049322912
1688A050030923A050426398A050405495A050145756A049890130A049766262A049755271
1681A049701125A049450489A049074568A048811390A048768168A048840452A048924739
1674A048993653A048920626A048477478A047707971A047115332A047182357A047801564
1667A048436481A048721304A048629735A048221853A047597993A047011288A046690458
1660A046570905A046460118A046401319A046603001A047060444A047517213A047763398
1653A047782953A047698329A047717479A048010123A048534389A049068769A049405783
1646A049446240A049210506A048847195A048523668A048273301A048064876A047981668
1639A048137768A048455766A048750501A048991967A049231342A049329587A049113812
1632A048772551A048704716A048950632A049144762A049050563A048788532A048521780
1625A048260153A048024823A047921723A047991041A048153208A048285371A048258736
1618A048024687A047747552A047645801A047674998A047620919A047485521A047506828
1611A047838987A048407621A048959129A049178073A048984752A048735464A048879830
1604A049441048A050025933A050246900A050007255A049457501A048791566A048084026
1597A047354100A046769620A046651011A047167117A048084701A048932764A049425068
1590A049573345A049403085A048879090A048226842A047904057A048036354A048273976
1583A048373300A048462037A048612608A048676059A048656976A048749085A048946587
1576A049079288A049192638A049429923A049603486A049349816A048764527A048491706
1569A048946856A049688785A049957492A049728906A049701057A050209612A050741834
1562A050698949A050159579A049668757A049573143A049784535A050069021A050342920
1555A050615336A050847766A051059967A051348768A051610598A051574388A051351735
1548A051522063A052326094A053121629A053054200A052068580A050864286A050004626
1541A049484473A049098775A048806805A048681453A048739038A048837890A048731485
1534A048419826A048389955A049125275A050406102A051461375A051720711A051155313
1527A050127820A049215429A048964658A049570513A050756331A051896162A052348818
1520A051996296A051403859A051111079A050959564A050537185A050017707A050013189
1513A050681957A051426717A051593134A051268122A051168596A051728735A052562098
1506A053009831A052937007A052626965A052133987A051291521A050327883A049905909
1499A050362542A051253895A051787061A051492259A050507111A049445162A048946587
1492A049226487A050126943A051436292A052797630A053546436A053290810A052559064
1485A052221645A052315980A052068108A051127599A050185000A050125190A050951743
1478A051857188A052198113A052132503A052216049A052558254A052715298A052428857
1471A052001420A051726240A051509116A051339193A051504395A052008231A052367226
1464A052263654A051905131A051627792A051538988A051545056A051477155A051242162
1457A050949787A050839944A051062732A051539257A052018075A052310653A052444501
1450A052548275A052685966A052801203A052716040A052385230A052209980A052621436
1443A053327357A053618923A053405980A053243609A053477253A053965174A054455388
1436A054831646A055159151A055534060A055779100A055551794A054892332A054239613
1429A053819526A053477523A053176180A053235383A053953981A055177155A056262233
1422A056433167A055342830A053407194A051478166A050099027A049182590A048400676
1415A047642497A046983102A046412782A045768896A044873700A043705886A042382510
1408A040951047A039441297A038195803A037633507A037605052A037627843A037795608
1401A038752907A040648894A042612581A043519173A043162133A042315284A041759259
1394A041698842A041861415A041873013A041691964A041619679A041817046A042164241
1387A042709882A043740477A045105523A046053989A046143468A045703287A045072685
1380A044212889A043360309A043108459A043589232A044317001A045040454A045975636
1373A047060309A047816061A048015181A047922600A047856315A047877287A047996637
1366A048434324A049396612A050632193A051580727A052082808A052608557A053607865
1359A054903188A055824682A055751319A054603531A053092904A052335130A052870251
1352A054159035A055320848A056111191A056776924A057342524A057644204A057757891
1345A057816689A057699429A057328027A056930461A056718934A056638289A056523928
1338A056271673A055962306A055993796A056745367A057871173A058344461A057549061
1331A055974174A054524031A053629037A053328638A053540502A053940764A054374338
1324A055463192A057715545A060105657A060910160A060037890A059110125A059061373
1317A059068184A058340347A057681021A058245205A059692650A060724256A060809353
1310A060448199A060341391A060879480A061885260A062703317A062765150A061742714
1303A059462108A056566746A054669747A054869608A056709966A058936359A060593645
1296A061500708A062155384A062824286A062870678A061713585A059882667A058404406
1289A057842110A058093960A058425916A057935028A056426964A054496520A052839031
1282A051764877A051090715A050591870A050849115A052790145A056051650A059117003
1275A061207929A062612961A063268175A062395838A059812877A056824934A055199609
1268A055402842A056370053A056971256A057092697A057562547A059269529A061433279
1261A061388911A058471836A056158257A057579539A062075480A066623273A068563225
1254A067403367A064923034A063145925A062389365A061832193A060766872A058577094
1247A055177223A052242481A052334927A056041199A061203344A065380140A067748202
1240A068425601A067496218A065295853A062837098A061396193A061688029A063208433
1233A064392161A064062429A062767443A061944531A061992271A062110138A061793152
1226A061392214A061187431A060820276A059933644A058952812A058767582A059560690
1219A060341526A059999994A058648434A057525191A057610422A058668798A059675118
1212A059867091A059355434A058971894A059442351A060454403A060877861A060332625
1205A059862640A060362766A061240093A061553102A061492955A061620397A061662473
1198A061284125A061195994A062330296A064349478A065784853A065521540A063653401
1191A061091276A058970141A058339067A059544305A061308197A061179407A058079867
1184A054108058A052741124A055146542A059377214A063174179A066031780A068297215
1177A069479526A068463429A065440287A062583967A061806840A062594486A063374107
1170A063921232A064739963A065506368A065968059A067016051A068993831A069943577
1163A067500061A062282084A058024575A058207107A063049366A069271843A072338207
1156A070297718A065955517A063645242A064098302A064463164A062815453A060401943
1149A059738300A061671710A064233094A064629176A062467920A060120626A059839579
1142A061431661A063044916A063111806A061172461A057966113A054981002A053537940
1135A054274676A057100384A060906991A063782596A064716093A064549811A064333362
1128A063713818A061932529A059695078A058611618A058895429A059376877A059663453
1121A060527901A062087752A063024822A062025851A059252537A056386304A055525969
1114A057637326A061622554A065060389A066258614A065530036A064338689A063674709
1107A063631217A064090750A064952636A065810341A066121462A065639879A064458916
1100A063026980A062144865A062251741A062754294A062779041A062360774A062136638
1093A062194358A062299346A062816869A064101336A065331793A065355596A064276451
1086A063352463A063464598A064162091A064565859A064592696A064680220A064860257
1079A064758573A064257031A063602964A063004256A062543037A062309528A062335758
1072A062462728A062414920A062255989A062715117A064338487A066398395A067488868
1065A067342343A067004318A067216788A067787177A068308273A068570305A068472262
1058A067973013A067025761A065756263A064823576A064887431A065847562A066994271
1051A067562434A067332633A066839453A066741477A067123467A067680638A068215962
1044A068589725A068562146A068064852A067426630A067138571A067426900A067986836
1037A068373006A068546098A068684260A068774482A068490468A067496892A065844191
1030A064055282A063037633A063504651A065112309A066811672A067841795A068154668
1023A068039364A067669782A067352121A067525212A068097757A068461001A068277997
1016A067717252A067151450A066919896A067116521A067483541A067609432A067298109
1009A066823674A066695760A066967569A067200943A067146932A066820505A066276348
1002A065887211A066138049A066749704A067070804A066755435A065737585A064291218
995A062982139A062044394A061081162A059669522A057714466A055021932A051163674
988A046180352A040995820A036020994A030454675A023544483A015180980A005133892
981I93232961I80677625I68792607I57132602I45328297I34330249I24407704
974I14410987I03659327H93417570H85403082H79527801H74683519H70244489
967H66245371H62725003H59431266H56170165H52992879H50323204H49104278
960H49502516H50554960H52178396H54639039H57674453H61313969H65944836
953H71082706H75865426H80980236H88803223I00330661I12211768I21613824
946I29168306I35896437I41888238I47067443I51944698I56869087I60999019
939I63619943I65422877I67323787I68785459I69341888I69806142I70345310
932I70164868I69020114I67365795I65635280I63768018I61705817I60336320
925I60322295I60087640I58292122I54827047I49737591I43036431I35435961
918I27919644I20458551I12970082I06510725I01440284H96495330H90936630
911H85411578H80991024H77538019H74045432H69964926H65414435H61464203
904H60363616H61099341H60093762H57641750H56073606H57168663H59337606
897H60376764H60262539H59627081H58966473H59282988H62453666H68266912
890H73246053H76275061H78719252H81841313H85847511H90178856H94854226
883I00492897I06448016I11097021I14528045I18813942I25404517I32235951
876I37028919I40265543I43157669I46196589I49037266I51185305I52780017
869I54540943I57052428I60240907I63545837I66516519I69194420I71900710
862I74640849I76951664I78444624I79216896I79696793I80311819I81358732
855I82985810I85000001I86726066I87519578I87676689I88768915I91667581
848I94428084I95490033I95515859I96097306I97751827I99398190A000310581
841A000363243I99200554I96539037I93973474I95650719A000180779A003393600
834A005293701A006637641A007712672A008661677A009289110A009104286A007989943
827A006356325A004697285A004167018A007127585A012319062A015842734A017073124
820A017531106A018888600A020960309A022319691A022590151A022424139A022305463
813A021988814A021530562A021797246A022901137A024016626A025320446A027388446
806A029542487A030502213A029568043A026581178A022115581A019103094A020676565
799A023181980A022931008A019710230A014264273A008115632A003872890A003365954
792A005353443A007749556A010174529A013644662A018869315A024677032A029331027
785A032159837A033395418A033719283A033625286A032862791A030795128A027171323
778A022369387A017309397A013114800A009793215A006112701A000938014I93671861
771I84552201I74662696I64475355I53074617I39027737I23192622I11906110
764I08393294I08781621I10175595I11601597I12863274I14190559I15489052
757I16066992I15286022I12898202I09051070I04197078H99151654H95384291
750H93722419H93137872H92749814H92715762H93057091H92957497H91706744
743H89469158H86915867H84498783H82378457H81278949H82304487H84970791
736H87855296H90588289H93610082H97275491I01381957I05489368I09686460
729I14456300I19493296I23749186I26927551I29598238I32075536I34064981
722I35329085I35753420I34983508I32836885I29850357I27410213I27099564
715I29060485I31878709I34296467I35883896I36629533I36446867I35053837
708I32365416I28984156I25942134I23824640I22765657I22876849I24015399
701I25837820I28527927I32751519I38431524I44382124I49580749I53809466
694I57341971I60459986I63088192I64922684I65808507I65825904I65159025
687I63960934I62203448I59666811I56295193I52606183I49415816I46915389
680I44613003I42172319I39585448I36792444I33705581I30519731I27578989
673I24984228I22614210I20351674I18067495I15642590I13185048I10967219
666I09088494I07533970I06478696I06146740I06443633I07052590I07803487
659I08706033I09662320I10322254I10299800I09480125I08102200I06573704
652I05155321I03789534I02296169I00699502H99204114H97927536H96876375
645H96115701H95716584H95545448H95271549H94595701H93419863H91803911
638H89822895H87548964H85153593H82855455H80624612H78049809H74701320
631H70652371H66519472H62938755H60092009H57769124H55680019H53554164
624H51123392H48270038H45203202H42389497H40347861H39552933H40339702
617H42661441H45965359H49477366H52665778H55433833H57995351H60669746
610H63701519H67110830H70677320H74125403H77349081H80431223H83451465
603H86366180H89060466H91346198H92880156H93287296H92438896H90485863
596H87600008H83805134H79006097H73029199H65686041H56971566H47189478
589H36812187H26266794H15922207H06217258G97688282G90859342G86087278
582G83406948G82455988G82609930G83269324G84062972G84833221G85428760
575G85489986G84519942G82174604G78337721G73002753G66409211G59251013
568G52413240G46569179G42303511G40396330G41540003G45808572G52629824
561G61188401G70659775G80167762G88877718G96330248H02577135H07925656
554H12651127H16958466H21036275H25053532H29126756H33296000H37552093
547H41887550H46208780H50162317H53214520H55022040H55666600H55512119
540H54922445H54163323H53543038H53504805H54437155H56437321H59364713
533H63023918H67223438H71831109H76858664H82344540H88118610H93781420
526H98903985I03250771I06921641I10227785I13278169I15806242I17567842
519I18713067I19492352I19730918I18893441I16682962I13415253I09839728
512I06716520I04480620I03121912I02346943I01843716I01340556I00559990
505H99332298H97715267H95921031H94233941H93007598H92598569H93291881
498H95294003H98611407I02846125I07267825I11228374I14556298I17553951
491I20556999I23546628I26320212I28878156I31332461I33614483I35644454
484I37583596I39572973I41461813I43067178I44442406I45686686I46691388
477I47194076I46985853I46051885I44529863I42471033I39737030I36305467
470I32580045I29168643I26418187I24312224I22691686I21469592I20791924
463I20974658I22038226I23429637I24493947I24974518I24744583I23491672
456I21137905I18250567I15653041I13840868I12914318I12810881I13421861
449I14564120I15906914I17024763I17709376I18310512I19648384I22429858
442I26685141I31759763I36779564I41102750I44508825I47137771I49188174
435I50631910I51296767I51120506I50186133I48741250I47391173I46979785
428I48001142I50245471I53050612I55746720I57957536I59713540I61295507
421I62899457I64457554I65679582I66152061I65501500I63610435I60687494
414I57121206I53285335I49440158I45788640I42649249I40543151I40008973
407I41304768I44295342I48517788I53238404I57592203I60935298I63076257
400I64051425I63868623I62695482I61027677I59358995I57895366I56764099
393I56151096I56006257I55942738I55668974I55294267I55036551I54729340
386I53735765I51460486I48025484I44372347I41622093I40432162I40955416
379I43085722I46461318I50371767I54021802I57000844I59374099I61366173
372I63110916I64670362I66111199I67483055I68685259I69413702I69492392
365I69272706I69353150I69882001I70486103I70819071I70862495I70837884
358I71055614I71688172I72677230I74033645I75993353I78577123I81273231
351I83437791I84846599I85733164I86461809I87216684I87882417I88189357
344I87979583I87281889I86167276I84658470I82770911I80462457I77525625
337I73791842I69597245I65788548I63023864I61218300I59867212I58718952
330I57815260I57016353I55879422I53961520I50949032I46708313I41644075
323I36780778I32984421I30220816I27963067I26225945I25818670I27501445
316I31110753I35696577I40443625I45162420I49835498I54112697I57576289
309I60293030I62644572I64500439I64867122I62558262I57150134I49448992
302I41398362I35391120I33173291I35175143I40627775I47877408I54820371
295I59823787I62469727I63343009I63326826I63087382I62880711I62765069
288I62854346I63071133I62872957I61653356I59248005I55830063I51581185
281I46582826I40842809I34458096I27800226I21385102I15519531I10142352
274I05058897I00458643H97125797H95759672H96102147H97119728H98026455
267H98821518H99873353I01258561I02558875I03238431I03102897I02261982
260I00826539H99013221H97475083H97063559H98061788H99928713I01966573
253I03933428I05769471I07039239I06928789I04561199H99368238H91916114
246H84764861H81695058H84967217H93293297I02688812I08908457I09287748
239I02969184H90020733H71058433H47679826H22371652G97617211G75515318
232G58374427G48872306G48859360G58187175G74826524G95731270H17827972
225H38826985H57355309H72581466H84125897H92328109H98080129I02111411
218I04714871I06292860I07682316I09488689I11382451I12478520I12277377
211I11093717I10143498I11581436I16002799I20344797I22882783I24678907
204I27105902I30471182I33942798I36516656I37973676I38892001I39784770
197I40598376I41230462I42018243I43281807I44662429I45357360I45033765
190I44180914I43382412I42659971I41931326I41595256I41971784I42549319
183I42525921I41777586I40667424I39346410I37866666I36444304I34883914
176I32442016I29185501I26784330I26819259I28691106I30221355I29804303
169I26970976I21872147I15561809I10136148I07433500I07513000I08578591
162I08394710I06000485I02198868H98407365H95446731H93677983H93692818
155H96279622I01683975I08991260I16363683I22065602I25598310I27935152
148I30282447I32721917I34428292I34896254I34426134I33749882I33627160
141I34467064I35868050I36695817I36181126I34886881I33961342I33671259
134I33439773I33134856I33260680I33733227I33790475I33560000I34235511
127I35896843I36490359I34171048I29951839I26675836I25755893I26309693
120I27117568I27757543I27863879I27104689I26093513I25657918I25198385
113I23355261I20178853I17344649I16341229I17136022I18306668I18430806
106I17297314I15271794I12478722I09581067I08318919I09779580I12933940
99I15921142I17824816I18772540I19161946I19561265I20952811I23752153
92I26401532I26556688I24498600I22997952I23333752I23903533I22844145
85I20553560I18853793I18710572I19713993I20928536I21405331I20791182
78I20143048I21087063I23713718I26100121I26050224I23215615I19519256
71I17594072I18313411I19805562I19904145I18379223I16439878I15277660
64I15077057I14860338I13469332I11173958I09939052I11130399I13941407
57I17106555I19663825I20266714I18031016I14002296I10568507I09105756
50I08841566I08500777I08245488I09141965I11401264I13806547I14931072
43I14849347I14679424I14740179I14236884I12475418I09784503I07413271
36I06152269I04434903H99424811H92330536H90644458H95876865I00657021
29I00550347H96915686H92884471H88742402H83040954H77311253H75742367
22H79877558H86080750H88293320H83027805H75399420H76195157H85009495
15H92778741H96770308H99701678I01109609H96550824H85447249H75325112
8H74097218H79586397H84513820H86017434H84469856H79737102H72215593
1H65751988
##END=


$$ === CHEMSPECTRA PEAK TABLE EDIT ===
##TITLE=X7697
##JCAMP-DX=5.00
##DATA TYPE=INFRAREDPEAKTABLE
##DATA CLASS=PEAKTABLE
##$CSTHRESHOLD=0.93
##MAXX=3997.453
##MAXY=0.9491371553424637
##MINX=373.96442
##MINY=0.6544754534370038
##$CSSOLVENTNAME=- - -
##$CSSOLVENTVALUE=0
##$CSSOLVENTX=0
##NPOINTS=27
##PEAKTABLE= (XY..XY)
405.12812162627006, 0.7741149699328196
560.9466297576228, 0.8248472247268881
594.9433951680999, 0.7899692089918814
698.3502232916339, 0.6619563730097696
719.5982016731818, 0.7793768681669658
797.5074557388584, 0.8248811994550622
823.0050297967159, 0.8183800611878962
1011.4037714464421, 0.8068817888990696
1029.818686043784, 0.8139366546847026
1080.8138341594995, 0.7890150578994573
1133.2255141673181, 0.7544580134034923
1172.8884071462076, 0.6544754534370038
1195.552917419859, 0.6916542084167256
1249.381129319781, 0.7421252162467383
1311.708532572322, 0.8009910024026764
1369.7863401485533, 0.815681341614929
1386.7847228537917, 0.819512311102553
1419.3649563721656, 0.7790090474263441
1430.6972115089911, 0.7891186509869793
1454.7782536747459, 0.8029768502361208
1638.9273996481625, 0.7592858704524628
1647.4265910007816, 0.7567287123942131
1653.0927185691944, 0.7605208790031417
1733.8350364190774, 0.750568154976335
2927.97142146208, 0.8775227111030677
2937.8871447068022, 0.876927379459292
2953.4689955199374, 0.8651256602968732
##END=


$$ === CHEMSPECTRA PEAK TABLE AUTO ===
##TITLE=X7697
##JCAMP-DX=5.00
##DATA TYPE=INFRAREDPEAKTABLE
##DATA CLASS=PEAKTABLE
##$CSTHRESHOLD=0.93
##MAXX=3997.453
##MAXY=0.9491371553424637
##MINX=373.96442
##MINY=0.6544754534370038
##NPOINTS=55
##PEAKTABLE= (XY..XY)
2953.4689955199374, 0.8651256602968732
2937.8871447068022, 0.876927379459292
2927.97142146208, 0.8775227111030677
1733.8350364190774, 0.750568154976335
1653.0927185691944, 0.7605208790031417
1647.4265910007816, 0.7567287123942131
1638.9273996481625, 0.7592858704524628
1559.6016136903827, 0.8786256951064356
1454.7782536747459, 0.8029768502361208
1430.6972115089911, 0.7891186509869793
1419.3649563721656, 0.7790090474263441
1386.7847228537917, 0.819512311102553
1369.7863401485533, 0.815681341614929
1311.708532572322, 0.8009910024026764
1249.381129319781, 0.7421252162467383
1195.552917419859, 0.6916542084167256
1172.8884071462076, 0.6544754534370038
1133.2255141673181, 0.7544580134034923
1080.8138341594995, 0.7890150578994573
1029.818686043784, 0.8139366546847026
1011.4037714464421, 0.8068817888990696
980.2400698201718, 0.837085489312935
950.4929000860043, 0.8309236201090128
912.246538999218, 0.8312976992358833
889.5820287255665, 0.8567913805886391
881.0828373729473, 0.8581749241581482
823.0050297967159, 0.8183800611878962
797.5074557388584, 0.8248811994550622
781.9256049257228, 0.8510389362506473
756.4280308678653, 0.7918093239370618
736.5965843784202, 0.7929618985798287
719.5982016731818, 0.7793768681669658
698.3502232916339, 0.6619563730097696
670.0195854495696, 0.8045239480675043
636.022820039093, 0.8323258195036322
619.0244373338542, 0.8192336591066838
606.2756503049254, 0.80212843758481
594.9433951680999, 0.7899692089918814
573.6954167865515, 0.8252823982556775
560.9466297576228, 0.8248472247268881
555.28050218921, 0.8252230319816
545.3647789444876, 0.8183245692792039
528.3663962392493, 0.8100024501104649
517.0341411024233, 0.8029111062421583
498.61922650508177, 0.8158866794445426
490.1200351524626, 0.8120968376316359
483.03737569194664, 0.8133630788887173
473.1216524472243, 0.8111099042634459
457.5398016340887, 0.8043432274410887
440.54141892885036, 0.8028461966996956
432.0422275762312, 0.8085334928279526
417.87690865519926, 0.7872877158922499
405.12812162627006, 0.7741149699328196
398.0454621657541, 0.7738118209513412
383.88014324472215, 0.7726607357691434
##END=

##END=

