##TITLE=STM187
##JCAMP-DX=4.24
##DATA TYPE=INFRARED SPECTRUM
##DATE=15/6/2018
##SAMPLING PROCEDURE=Diamant-ATR
##ORIGIN=Angelika Moesle
##XUNITS=1/CM
##YUNITS=TRANSMITTANCE
##RESOLUTION=4
##FIRSTX=3997.453
##LASTX=373.96442
##DELTAX=-1.4165319
##MAXY=0.71966964
##MINY=0.35608095
##XFACTOR=1
##YFACTOR=6.7024458e-010
##NPOINTS=2559
##FIRSTY=0.65280706
##XYDATA=(X++(Y..Y))
3997+973983339+973911573+973833671+973796943+973752211+973616416+973335842
3988+972911915+972389453+971810431+971198328+970690095+970640294+971292861
3978+972293586+972889415+972737257+972177711+971665120+971371919+971371652
3968+971737153+972393721+973073322+973419436+973218188+972652951+972130400
3958+971844314+971793090+972062191+972740992+973645762+974315670+974374185
3948+974017044+973803079+973686225+972992929+971695267+970841098+971132076
3938+972215417+973474662+974399353+974356311+972986260+971107175+970225615
3928+970741141+971611407+971730128+971299352+971397531+972148542+972545168
3918+971976463+971178319+971308868+972411151+973520016+973937985+973997924
3908+974440349+975302078+975948864+975999020+975559085+974443284+972490121
3898+970740696+970646520+972250189+974030116+974071647+972288517+971355378
3888+972756821+974652269+974827460+974070402+974374630+974765565+973431975
3878+971825549+972113326+973686403+974872192+975061256+974255642+972504617
3869+971252220+971981532+973652165+974054394+972687011+971447598+971973173
3859+974337813+977777080+980894066+980959696+975705997+969446413+967099203
3849+968209757+971136255+974345639+976347180+976635045+976239041+976068296
3839+975448901+973784137+972410262+972424936+972996576+972972387+972450636
3829+972085847+971978775+972435340+974292993+976976980+977676856+975147429
3819+972876165+972653663+972365975+971261291+971112778+972572025+974716209
3809+976208716+975832721+974358890+974407623+975952065+975956778+973580221
3799+972055077+972428137+972904267+972887192+973198357+973929003+974500643
3789+974842934+975202832+975269441+974607092+973811527+973794809+974097436
3779+973433398+971981621+971455068+972730854+975210747+977399218+977575921
3769+975485006+973095554+971902029+971712253+972435963+974265869+976435309
3759+977442260+976822953+975874340+975824629+976581332+976642782+974146081
3750+970754747+970323438+972312173+973042552+970689384+968677349+969925744
3740+973441313+977343993+979870663+979598538+976907170+974129362+973162252
3730+974325719+976685379+978580738+978798704+977837552+976954303+976328327
3720+975482338+974515495+974194547+975184513+977091610+978031775+976125033
3710+972708977+970814241+971162312+972969363+975042581+975883945+974958809
3700+973768307+973688093+974389392+975264016+976476572+978237825+979509964
3690+977981618+973302405+969363976+968780063+970403030+972295187+973381374
3680+973874845+974735329+975847484+975421333+973667817+973599074+974794111
3670+974005483+970862441+969072731+970073901+972188827+973780224+974424698
3660+974696467+975012879+974852094+974008240+974049681+976195732+979205558
3650+979997477+976119875+970487602+967889077+968509094+970441270+972148097
3640+972973899+973132460+973068164+972801375+972263795+972008211+972576383
3631+972951844+970980984+967555768+966598440+968604961+971846893+974912833
3621+976335974+974955430+972128444+970563815+970628734+971217359+971951741
3611+972880611+973255539+972285761+970819399+970408810+971150395+971933243
3601+972016481+971824749+971919637+971785709+970565682+968675926+967679202
3591+968299131+969535699+969545748+967797034+966111817+965718747+965994696
3581+966053123+965704785+965369076+965502559+966185006+967277062+968824083
3571+970805259+972262194+971221539+967127305+963274604+962466233+963493193
3561+964325219+964505657+964634428+965047684+965518211+965593623+964935188
3551+963827302+963078781+963025334+963203460+963139520+962985315+963065530
3541+963330185+963547440+963557578+963279228+962777220+962355515+962326080
3531+962677974+963139075+963487857+963627032+963425606+962824708+962094862
3521+961639365+961525090+961507926+961437316+961356835+961213658+960756737
3512+959876333+958955733+958673204+959260673+960064775+960087541+959056224
3502+957838243+957319783+957364514+957407467+957338636+957449976+957905562
3492+958484317+958712599+958347899+957770389+957545575+957638684+957565495
3482+957191635+956882337+956865530+956872377+956563524+956042663+955689168
3472+955517889+955146519+954405734+953514303+952725141+952266975+952429183
3462+953205717+954095281+954641042+954844691+954826817+954536372+954039878
3452+953753435+954030095+954592042+954697602+954024226+953065653+952350302
3442+951832554+951348954+951034054+951013600+951219828+951637709+952250434
3432+952772007+952915451+952818784+952825365+953058716+953440847+953805370
3422+953892521+953584113+953142488+952848842+952580275+952085114+951450956
3412+951018847+950942812+951037433+951081542+951120583+951247041+951200175
3403+950612261+949570271+948523213+947820669+947668243+948102487+948735933
3393+949078045+949251903+949782902+950725201+951601337+952022597+951913480
3383+951381058+950697366+950189311+949940752+949736036+949362976+948908368
3373+948716724+949011437+949585478+949985484+949946088+949567248+949173823
3363+949101434+949489256+950168146+950747078+950833784+950271215+949311308
3353+948544467+948497246+949223268+950239112+950874870+950831294+950447830
3343+950310700+950615373+951084566+951431392+951631839+951743090+951740156
3333+951576881+951198485+950447474+949168042+947467529+945696227+944016434
3323+942121165+939579643+936458211+933464926+931427814+930657060+930839455
3313+931508651+932477984+933700323+934920172+935838282+936536469+937325720
3303+938250500+939116942+939823310+940286456+940344883+940158664+940367827
3293+941424845+943002191+944310702+944840812+944748148+944715510+945370478
3284+946684147+948070383+949067907+949615003+949752133+949542347+949294145
3274+949387610+949811271+950210565+950415548+950598743+950877894+951063312
3264+950991812+950893634+951115069+951604983+952014593+952219754+952399836
3254+952667692+952945598+953157339+953330308+953527287+953820310+954285857
3244+954927841+955596147+956071654+956230483+956047377+955547058+954958432
3234+954773192+955312817+956308563+957199194+957758562+958174041+958581784
3224+958800907+958627672+958267506+958215571+958648125+959208027+959467079
3214+959302826+958841370+958374222+958304590+958871072+959865306+960747044
3204+961158966+961345808+961849594+962691047+963247213+963112841+962635644
3194+962389842+962518257+962717459+962653963+962359428+962218297+962521725
3184+963202037+963977326+964509126+964519619+964035664+963381497+962864282
3174+962707944+963121911+963999648+964780450+965064670+965199576+965885135
3165+967253852+968578993+969028088+968584240+967945636+967564839+967211254
3155+966562779+965810612+965441820+965666635+966283985+966995689+967671555
3145+968307669+968842936+969072553+968806742+968171517+967565728+967136909
3135+966468869+964958843+962378637+959095175+956000688+954106486+953800835
3125+954535216+955431805+955911314+955564755+953981184+951249175+948407604
3115+946845732+947143202+948780042+950927161+953125058+955212327+957052371
3105+958523001+959597094+960331120+960791064+960963410+960773011+960217201
3095+959417456+958526203+957652024+956869976+956280817+956082237+956485533
3085+957471674+958686187+959664948+960169801+960322049+960436946+960768209
3075+961454035+962550094+963899246+965092771+965802786+966030179+965887091
3065+965389796+964615486+963771276+962916751+961862044+960496440+959027233
3055+957733039+956683135+955902243+955554706+955667291+955904378+955947153
3046+955893973+956027901+956497005+957410135+958874274+960721254+962528128
3036+964067946+965479793+966873411+967998994+968444442+968105265+967406811
3026+967053049+967465949+968463918+969537477+970320325+970727001+970870000
3016+971000727+971333324+971774059+971934488+971431057+970109651+968125807
3006+965979134+964324774+963538992+963416891+963279495+962404160+960471540
2996+957625968+954091813+949835460+944647479+938484296+931809856+925698696
2986+921313573+919053158+918429939+918846041+920091323+921988016+924044515
2976+925725997+926822412+927405701+927584094+927370041+926721743+925660545
2966+924307747+922853746+921573514+920741666+920338103+919955172+919205139
2956+918183870+917430458+917460872+918346523+919684025+920920504+921616734
2946+921439231+920167981+917919215+915228114+912686059+910433647+908069185
2936+905092263+901360773+897041458+892303996+887262749+882074413+876911066
2927+871933405+867342943+863350444+860111180+857764592+856478936+856423177
2917+857702342+860244753+863766902+867911470+872300684+876434937+879817733
2907+882275572+883980799+885240933+886408668+887758443+889259577+890707619
2897+892172735+894034034+896474976+899204228+901805422+904147563+906240168
2887+907901552+908922021+909477387+909995847+910575757+910839434+910441295
2877+909524875+908618148+908223300+908537400+909401707+910438272+911316453
2867+911913527+912161018+911859190+910808397+909026513+906696644+904000474
2857+901044451+897863969+894524926+891284417+888625508+887216862+887804598
2847+890741145+895428807+900585662+905247712+909286543+912977037+916430088
2837+919496917+922025722+924141537+926197947+928350846+930311657+931718792
2827+932647662+933511792+934511451+935458285+936173191+936776401+937481525
2817+938325645+939185595+939894187+940328342+940538216+940767121+941257835
2808+942072431+943096634+944097271+944769402+944885188+944540497+944231110
2798+944491319+945376258+946423138+947159743+947483625+947551123+947545164
2788+947604569+947803060+948166516+948742247+949542970+950394561+950996170
2778+951191282+951114713+951077896+951328500+951816724+952155991+951990671
2768+951466341+951141036+951390395+952129223+953121234+954199151+955124642
2758+955610643+955615089+955383605+955150165+954979153+954867457+954838377
2748+954919748+955067994+955163860+955160481+955167150+955276178+955425580
2738+955557107+955698861+955755242+955485874+954879996+954326320+954219427
2728+954512272+954788932+954708629+954239080+953531111+952753599+952051943
2718+951478969+950977139+950561660+950409234+950634582+951132677+951720769
2708+952246433+952554040+952591658+952554574+952736257+953230795+953864419
2698+954399509+954747313+954971505+955128377+955244608+955471735+956064629
2689+957064643+958132155+958810422+958899263+958528159+957999739+957643753
2679+957684661+958069816+958476313+958635142+958564354+958399033+958217795
2669+958164970+958472222+959171121+959967131+960466560+960434545+959979314
2659+959602430+959795496+960483279+961189114+961717356+962197754+962533642
2649+962431017+961985123+961686408+961803973+962158714+962503139+962804699
2639+963098879+963256729+963055303+962490066+961871560+961508638+961435004
2629+961515841+961626825+961646301+961475378+961106409+960548998+959806346
2619+959035770+958537675+958470977+958750750+959233372+959813816+960366425
2609+960774256+961071904+961507838+962330437+963416358+964289736+964681027
2599+964832385+965125231+965711811+966546772+967385112+967799435+967558347
2589+966845931+965946763+965102020+964711530+965122118+966141430+967176750
2580+967829227+968128475+968393841+969002210+970047934+971126028+971563740
2570+970910641+969351792+967761018+967050647+967280620+967739141+967950972
2560+968093704+968395087+968810388+969371535+970162831+970809350+970632469
2550+969558198+968400067+967959509+968161201+968317540+967986544+967281865
2540+966515824+965891360+965549158+965627772+966153258+966995422+967976583
2530+968896828+969518091+969764782+969894441+970194757+970526731+970490715
2520+970040286+969614668+969641614+970176348+971051594+972102388+973140997
2510+973947679+974453511+974795890+975070416+975129554+974715409+973770353
2500+972672694+972137070+972655619+973942076+975083400+975334715+974760229
2490+974135854+974217313+975012879+975787901+975787990+974903139+973728378
2480+973116275+973492981+974437681+975115059+975185313+975032799+975134268
2470+975589588+976289464+977124514+977891088+978279533+978120704+977519006
2461+976714993+975947085+975407015+975174108+975221419+975533829+976099777
2451+976797342+977488059+978204743+979046196+979886226+980334253+980039007
2441+979040949+977852048+977142834+977245547+977870990+978358947+978291538
2431+977826970+977417093+977344704+977634971+978218794+978995417+979775064
2421+980265066+980226649+979727931+979152022+978836411+978799238+978874917
2411+978939925+978899729+978627604+978095448+977514649+977155639+977029893
2401+976944343+976853012+976940696+977370760+978082554+978765445+978978787
2391+978460594+977409623+976417790+976059492+976428728+977019933+977211398
2381+976855591+976226413+975562553+975016614+974896025+975508484+976739715
2371+977974949+978456058+977855160+976724864+976170121+976693205+977583569
2361+977905228+977781705+977926037+978158144+977459868+975497279+973222101
2351+971919370+972151477+973647630+975754019+977816031+979411074+980336477
2342+980422916+979652518+978393630+977283076+976861460+977262800+978214881
2332+979354604+980353551+980805403+980496283+979880712+979903656+981146448
2322+983084049+984405366+984323995+983287875+982248999+981674602+981499321
2312+981680827+982375190+983522116+984560993+984837564+984233198+983199479
2302+982349045+982244196+983191298+984830005+986253681+986856802+986766449
2292+986381650+985949185+985626104+985515831+985590799+985790001+986124910
2282+986603530+987175081+987715151+987981229+987799457+987426663+987396605
2272+987840097+988339882+988620811+988973595+989785701+990979049+992049051
2262+992466042+992069683+991218803+990473039+990136885+990213008+990627776
2252+991357534+992384138+993452006+993984695+993672107+993010914+992690145
2242+992723583+992794548+993032169+993794652+995003740+996128967+996707988
2232+996797807+996835069+996940451+996752542+996163383+995568354+995174752
2223+994926371+995203565+996413187+997694130+997332186+994842066+991376387
2213+987600165+982426591+974618564+964525489+953529066+942815794+933184175
2203+925059647+918439810+913541296+911187149+911942340+915549951+921509040
2193+929163486+937081786+943531945+947913066+951144683+954495109+958231757
2183+961548567+963908317+965912614+968146528+969963717+970587115+970721932
2173+971606516+972927922+973150691+971722391+969968164+969947354+972686300
2163+976968709+980025490+980476719+980085072+980935329+982564788+983878280
2153+984935476+985717968+985549091+984255875+982633264+981699057+981993504
2143+983115530+983806335+983244300+982151087+981882608+982748961+983853913
2133+984327997+984169524+983916786+983951380+984286734+984773802+985192305
2123+985252866+984953973+984839876+985403068+986393389+987202649+987591361
2113+987590916+987215188+986729810+986663202+987225949+988152774+989097652
2104+989722917+989664846+988892758+987881805+987223281+987278862+988122182
2094+989536876+991171315+992701439+993690159+993624885+992539676+991362247
2084+991229208+992453058+994234854+995285024+994851670+993393134+992106322
2074+991632237+991578702+991538239+991936910+993318967+995333669+997112530
2064+998315926+999083923+999172230+998064789+996053199+994434145+994326096
2054+995753773+998031262+1000482076+1002506471+1003553885+1003370690+1001912510
2044+999190994+995885300+993700920+994200705+997403241+1001976628+1006399991
2034+1009549970+1010695295+1009651350+1006987016+1003689236+1000616537
2026+998534960+998263013+999863303+1002043236+1003625740+1004970891+1006333116
2016+1006027554+1002787044+998644433+996863704+998290048+1001549143+1005315760
2006+1008428211+1009346499+1007635758+1004881605+1002937158+1002177076
1997+1002169872+1002960635+1004685604+1006738546+1008248484+1008909943
1989+1008781261+1007980361+1007007292+1006600528+1007097556+1008350575
1980+1010012849+1011566006+1012451034+1012379979+1011385834+1009685321
1972+1007695519+1006109191+1005695579+1006633343+1007963998+1008264847
1963+1006836992+1004104805+1001591207+1001147714+1003169709+1006113637
1955+1008313136+1009380292+1009566688+1008897226+1007501385+1006152855
1946+1005898872+1007004357+1008351020+1008247950+1006253435+1003581364
1938+1001603657+1000837439+1001157586+1002469121+1004717708+1007199202
1929+1008752537+1008967569+1008468762+1008013798+1008102372+1009125330
1921+1010992231+1012893904+1014021888+1014480232+1014891176+1015025727
1912+1013835847+1011041143+1008060397+1006660021+1007129481+1008555558
1904+1010134327+1011581035+1012786299+1013591113+1013896053+1013804010
1895+1013639579+1013904234+1014998959+1016745093+1018286867+1018884564
1887+1018767354+1018651924+1018818044+1018944502+1018670421+1018283666
1878+1018468995+1019275943+1019996096+1020194054+1020170398+1020389254
1870+1020961161+1021536714+1021706036+1021598698+1021552099+1021550676
1861+1021411501+1021219324+1021281219+1021743387+1022389994+1022821215
1853+1022839000+1022532816+1021997815+1021315457+1020709401+1020395479
1844+1020559732+1021449118+1022869859+1024118610+1024692473+1024674509
1836+1024589937+1024945745+1025815033+1026792548+1027437911+1027886472
1827+1028590173+1029499123+1030056534+1029788145+1028812764+1027730667
1819+1027149512+1027334308+1028142234+1029196140+1030095841+1030577929
1810+1030623283+1030488377+1030553829+1031002213+1031636726+1032056030
1802+1031872390+1030804433+1028933263+1026826697+1025178029+1024536490
1793+1025254331+1027151201+1029409037+1031458689+1033216473+1034624942
1785+1035745100+1036905544+1038415036+1040346055+1042505446+1044551452
1776+1046304345+1047694227+1048520384+1048848623+1049354900+1050320321
1768+1051437545+1052635072+1053992050+1055386645+1056679861+1057883169
1759+1058963842+1059767767+1060227000+1060535675+1060931323+1061252982
1751+1061036794+1060374356+1060004320+1060107300+1060430382+1060891482
1742+1061334797+1061695229+1062568607+1064533331+1067341108+1070336705
1734+1072588672+1073554804+1073741823+1072979429+1070389885+1065369804
1725+1056926374+1043917027+1027316788+1008770145+985631173+950550543+901333739
1715+850090405+805542587+765093450+726192578+690133144+660594747+642652425
1706+640406328+651820721+672357566+702248036+739301704+771859487+795852807
1696+816144696+833023374+845660728+856290316+866825461+877060735+886105774
1686+893829496+900363961+905809926+910752549+915744707+920942291+926171091
1676+931017937+935024308+937906520+939383998+939213075+938489365+939429796
1666+942635712+947292604+952369511+957040099+961089157+964658439+967874136
1656+970779647+973035616+974273072+975868293+978620045+981582915+983894821
1646+985415785+987001224+989121752+991505957+993854501+996010780+997581990
1636+997813474+997242100+997746865+999592156+1002122028+1004950526+1007849901
1626+1010605832+1013189240+1015731562+1018355699+1021176727+1024345825
1618+1028050547+1032264836+1036126075+1038045444+1035757105+1025659317
1609+1003886660+970309832+931429059+897967216+879797102+881014994+897220652
1599+919221324+939946745+956564058+968393575+975412529+978168460+977502198
1589+973442825+964032463+946396193+920547799+891485220+866214603+848721421
1579+838654135+835221360+841008993+856746169+874998011+890896061+905356385
1570+918743238+929191499+936478131+941985280+946081737+947846992+943036518
1560+920181587+879985366+853668669+843720282+838547775+836164548+838431900
1550+845866956+856690766+868722865+881209661+893768668+905132371+914609430
1540+922518837+928539288+933110452+937262135+941583496+946315178+951340506
1530+956405407+961457681+966421559+970874713+974123315+975024795+972428582
1520+967593296+963244723+960831705+961395164+965337506+971584283+978557616
1510+985084522+990468592+994065621+996033368+998000848+1000772876+1004565194
1500+1009584474+1015764110+1022693600+1029649859+1035886943+1041290222
1492+1046178509+1050359628+1052048314+1048543595+1038083595+1019331258
1483+991376564+956904748+924363772+902769420+894990828+897659164+903876239
1473+906333099+902984363+897943294+892022177+878662003+847436831+797549764
1463+750414003+725995466+724216072+739450039+768589454+800778001+823145241
1453+837812504+850058390+862013564+874314764+886844780+898588746+908790938
1443+917981288+926990400+935981370+945059846+954938334+965719815+975344408
1434+980024333+972462108+942827711+893744746+849064334+830708623+840566924
1424+865338023+889844111+908739270+924249409+937582371+947783852+955283826
1414+960922324+964632204+965821550+963670341+956635202+941604216+916040931
1404+883957855+854922044+835893935+829745158+836024573+850273955+867133691
1394+882897813+895558911+905192932+912823188+918845418+923201283+926499686
1384+929822188+933784539+938366197+943061863+947174239+950027192+950764775
1374+948573281+943598198+936527665+927492408+916853393+905572217+893040422
1364+876577313+856115124+838472274+831216144+834956172+845824981+859762931
1354+873684608+885583312+894853521+902256118+908992986+915745240+922576375
1344+929314933+935887816+942530063+949556843+956784515+963589682+969652197
1334+975141827+980433766+985914147+991815521+998180042+1004919667+1011766720
1324+1018330443+1024419014+1030150711+1035678225+1041006092+1046149785
1316+1051269201+1056489996+1061597051+1065765986+1066948839+1061090418
1307+1043809245+1016309871+989634521+978746325+990043419+1016103288+1043341296
1298+1062599110+1071815606+1072253674+1065159752+1050990406+1029787700
1289+1002529593+973450917+950259654+939511701+940778059+945765592+942867018
1279+922539291+880202710+817295535+741434327+664804056+600352706+556859950
1269+535544347+531270164+537345574+549254994+564998395+583467091+602999298
1259+621302807+636678173+649009653+659266804+668268134+676108487+682564116
1249+687805410+692680180+698342333+705561068+714363907+724356047+735134548
1239+745999355+755504161+762152545+765942017+768843970+773409087+780877936
1230+790437434+799740991+805916892+806991340+803786937+800493870+802003630
1220+810013972+822096049+834429352+844796598+853086535+860049552+866307534
1210+872229363+878031847+883714455+889048635+893670400+897112068+898878034
1200+898565980+895913563+891150044+885746142+882435379+883711698+889996804
1190+899420594+909480232+918772852+926975015+933200894+934605983+927439495
1180+911092883+891535198+878517225+877392887+884346567+890188269+887446478
1170+873776472+851578910+826476281+805005985+791793612+787961987+791776181
1160+800480709+811755126+824091008+835432479+840510009+831813040+808045424
1150+781210622+769138239+779199300+803411831+829291350+850458307+866783130
1140+879860953+890846616+900451645+909000812+916197448+920995116+921798773
1130+916728091+903828395+881849065+851725910+817615682+786196466+763997035
1120+754199118+755342665+762775853+771175974+776169999+774337069+762473225
1111+738661188+705964586+674157058+654731968+652387603+661151313+668712160
1101+665512203+651957762+637850000+633988139+643795172+662751781+684184593
1091+704068561+721473169+736844710+750691464+763175147+774234266+783843564
1081+792158134+799519912+806285683+812427701+817081481+818536015+815294528
1071+807980772+800123300+796124577+797978583+804055060+810827145+815616187
1061+818334145+821147080+826259737+833852287+842153429+849088345+853640478
1051+856199874+858082872+860532974+863920750+867837303+871824377+875903048
1041+880446022+885638448+891162939+896468306+901191629+905119209+907760955
1031+907929743+903442262+891172632+868217122+834316411+793740905+754316949
1021+724102064+708664447+710017512+725928724+750116978+775188037+796583632
1011+813612601+827439834+839127063+848969890+856503747+861229293+863836267
1001+866352800+870517822+876081085+881223712+884673739+886683906+887940216
992+888917108+890594233+893759864+896726914+895935795+890329223+883067224
982+876143336+863820349+835351019+787714584+734562508+698415078+692633714
972+712760371+744412938+775524369+800709347+818939489+831215433+839889902
962+847362219+853979478+858038674+858892488+859232555+862885253+870815025
952+880655985+889796445+897599225+904774962+911826998+918536832+924473956
942+929495371+933662261+936952571+939209251+940108508+938910358+934080942
932+922858726+901833435+870209858+833934192+804905139+793479274+801211711
922+821209064+844531409+865461724+882139421+894797495+904441921+912202103
912+918765826+924222552+928523192+931909457+934803318+937332389+939051578
902+939491602+939270968+940177695+943579523+949050922+954986534+960177716
892+964380089+967645231+969489455+968621768+963520316+953918578+942193109
882+932736592+929112262+931553471+937102951+941928721+943528744+940523543
873+930507213+910721780+883876040+861465224+856350343+871236907+897311271
863+923632415+944756507+960315290+971364627+978057831+978510305+969427293
853+950157029+926844555+910056586+906639017+915125756+929439079+944812888
843+959321234+972283093+983412110+993010203+1001855239+1010611346+1019340773
833+1027623863+1035176839+1042100994+1048423184+1053664077+1056718546
824+1055931073+1050288484+1041609480+1034032314+1028401019+1016904455+986108369
815+927753328+847450793+763517171+697319064+662202907+657379494+669926940
805+684228524+692741319+699321627+712574863+737036576+770568317+807404597
795+841665650+869025226+887210903+895933128+895572784+884818428+861738505
785+831184130+808944059+810832658+835067956+858920856+854482108+808646500
775+732752477+656432659+608820191+601171303+625298240+664962173+704831355
765+730370495+727719501+692906595+642273718+605889691+604851303+636863814
755+684304514+731127020+770547063+802551525+829446621+853335004+875049412
745+894101887+909110640+916448941+907284025+870357926+804576099+728371889
735+670183235+647350536+656215804+680926431+707296797+728967585+745131135
725+755064848+754688142+738046818+702718608+654611557+606689658+571544910
715+555251167+557082897+572294409+594322872+615207077+626205234+621903083
705+605664787+589016793+583178692+591390104+609435095+631239411+653049863
696+673802762+693414783+711751241+728771673+744553181+759024087+772122097
686+784015732+794827092+804387924+812463095+819088269+824657046+829570767
676+833658598+836364996+837883915+839480381+842568820+847857291+854289309
666+860005354+864747885+868814107+872094723+874639980+877138459+880373811
656+884500771+889032183+893262925+896667509+899297427+901734278+904215506
646+905854124+904740991+898676075+886809297+871344156+855696977+839667933
636+819793837+797209875+781405645+782188315+800281595+827815295+855384923
626+877093906+891370856+899677690+904384027+907112746+908711613+910042179
616+911969730+914488664+916541428+917149974+916365169+914795560+912681079
606+909623765+903684151+889988444+863839202+829487262+803116852+800060160
596+819725895+848422617+873964292+892942066+906895313+917222629+924571245
586+929734859+933700323+937384147+941224753+945029788+948553894+951831220
577+954576390+955996420+955776675+954651447+953758237+953997725+955654396
567+957445351+955606374+945046151+923612583+897013445+878096766+877549759
557+894153200+916120612+931950276+937059109+931501625+918076176+903945693
547+897984380+903298729+915186228+927637008+938609598+948393109+956785226
537+963470427+968807187+972968296+975459572+975885990+973908194+967626912
527+953394871+930255898+904502215+885227504+875971791+872851515+868582712
517+859266793+848675889+844204148+849371853+861412310+874273945+882288823
507+881901178+873708886+863951075+861100968+869021046+884106546+900889001
497+917190614+932729478+946724966+957667853+964189423+966334674+965719192
487+963845443+961254299+958894283+958877653+962411363+968335059+974828527
477+980980061+986277247+990202159+993029145+995986680+999897096+1004452609
467+1008687885+1011473875+1012338360+1012073528+1012099851+1013204180
459+1014813807+1015217726+1013266075+1009784833+1006198654+1002826440+998298674
449+990294023+977141766+958255857+933867600+907582117+889392704+888948678
439+905129525+928611499+950988967+969365398+985403691+1001443317+1017707846
429+1032154830+1042587084+1048752490+1051839951+1052724002+1051665827
421+1049123861+1046430358+1045716698+1047882313+1051945689+1055704925
412+1056073983+1051272135+1041527398+1025158909+996943030+954633750+906605758
402+868711749+853817003+865744787+894513187+918397301+928711812+933696410
392+940130918+947633383+951022849+946302105+935181269+922952814+913432090
382+908616814+911656431+925050843+948668435+980289077+1010987251+1025482613
##END=
