##TITLE=F. Mohr LL-31
##JCAMP-DX=4.24
##DATA TYPE=INFRARED SPECTRUM
##DATE=14/6/2017
##SAMPLING PROCEDURE=Diamant ATR
##ORIGIN=Angelika Moesle
##XUNITS=1/CM
##YUNITS=TRANSMITTANCE
##RESOLUTION=4
##FIRSTX=3997.4121
##LASTX=373.82813
##DELTAX=-1.4160156
##MAXY=0.98262441
##MINY=0.29542392
##XFACTOR=1
##YFACTOR=9.151403e-010
##NPOINTS=2560
##FIRSTY=0.95095229
##XYDATA=(X++(Y..Y))
3997+1039132791+1039619585+1040150083+1040696342+1041057693+1040911603
3989+1040190855+1039263771+1038602814+1038393351+1038587378+1039075019
3980+1039612877+1039867151+1039739948+1039447768+1039205803+1039049096
3972+1038930361+1038785378+1038563735+1038333494+1038252601+1038366842
3963+1038593696+1038914404+1039387521+1039937298+1040286990+1040176201
3955+1039607275+1038879754+1038373941+1038258202+1038409438+1038582037
3946+1038589918+1038407484+1038219579+1038333234+1038856697+1039464376
3938+1039696636+1039372280+1038651142+1037906165+1037517915+1037616004
3929+1037998718+1038404293+1038779451+1039190497+1039621148+1039884671
3921+1039780916+1039372801+1038982011+1038898773+1039117810+1039426600
3912+1039727248+1040073227+1040441221+1040635640+1040486879+1040109701
3904+1039895613+1040177438+1040766554+1041052092+1040714449+1040055577
3895+1039579985+1039463334+1039589624+1039913915+1040454573+1040847904
3887+1040577086+1039755580+1039120546+1039027538+1039031641+1039013991
3878+1039327274+1039750891+1039761181+1039455323+1039242798+1039304934
3870+1039788667+1040816641+1041833933+1042141875+1041955599+1041938469
3861+1042316624+1042774174+1042990802+1042847187+1042363909+1041774858
3853+1041587474+1042035711+1042300471+1041888904+1041175777+1040520226
3844+1040166626+1040316299+1040853896+1041237978+1041099052+1040694584
3836+1040517556+1040704744+1041057107+1041289432+1041135070+1040520812
3827+1039687583+1039075214+1039030208+1039507754+1040271293+1041167831
3819+1041765870+1041635802+1041375405+1041930197+1043080488+1043713894
3810+1043543510+1043009039+1042487204+1042188510+1042022815+1041568326
3802+1040829016+1040517230+1041041150+1041664981+1041837189+1041897957
3794+1042154120+1042309199+1041949997+1041111296+1040247715+1039859074
3785+1040197108+1041147575+1042242178+1043090974+1043749977+1044300796
3777+1044417056+1043882520+1043001874+1042200885+1041784628+1041937818
3768+1042426436+1042644627+1042463886+1042302555+1042319685+1042321183
3760+1042284514+1042383514+1042615839+1042793453+1042836700+1042852202
3751+1043156692+1043956770+1044486291+1043905446+1042863014+1042779124
3743+1044110676+1045163856+1044636680+1042954980+1040927625+1039313466
3734+1038906132+1040040010+1041979176+1043531395+1044082735+1043805144
3726+1043284285+1043004805+1042994905+1043021609+1042925931+1042620724
3717+1042170533+1041870732+1041974747+1042493261+1043309296+1044176915
3709+1044659020+1044591023+1044278651+1044046978+1043933127+1043775639
3700+1043608316+1043769842+1044250905+1044432688+1043789577+1042519314
3692+1041301090+1040712951+1041024802+1042025615+1043026429+1043614764
3683+1043842464+1043845395+1043750954+1043624403+1043354302+1042843735
3675+1042324374+1042054469+1041912612+1042103773+1043204108+1044837155
3666+1045675140+1045430375+1044747209+1044072379+1043420215+1042744409
3658+1042263281+1042349841+1043036524+1043678007+1043646548+1043018613
3649+1042492935+1042820743+1043632740+1044044372+1044070881+1043966410
3641+1043697351+1043264420+1042968462+1043088499+1043564287+1044176590
3632+1044728711+1045028643+1045026168+1045033723+1045325969+1045436302
3624+1044844906+1043634368+1042403835+1042032389+1042930946+1044173724
3615+1044547840+1044039292+1043179228+1042218991+1041411619+1041310144
3607+1042030630+1042687679+1042470986+1041602845+1040845103+1040791956
3598+1041431484+1042187663+1042611801+1042813839+1042987220+1042845428
3590+1042076027+1041011384+1040480301+1040841326+1041416438+1041596918
3581+1041493620+1041392535+1041368306+1041390386+1041513941+1041802474
3573+1042179326+1042444998+1042379801+1041890988+1041283700+1041259471
3564+1041966020+1042568683+1042410674+1041507362+1040198476+1038940457
3556+1038157834+1037975791+1038181607+1038516254+1038863211+1039157671
3547+1039333136+1039348637+1039181835+1038910626+1038711845+1038584382
3539+1038311480+1037846570+1037439627+1037226711+1037029818+1036717707
3530+1036436664+1036443373+1036860085+1037477143+1037867412+1037882913
3522+1037740926+1037481442+1036911604+1036235993+1036013894+1036325093
3513+1036645216+1036690547+1036715428+1036869138+1036874740+1036533189
3505+1036071666+1035800067+1035734023+1035685370+1035608905+1035639061
3496+1035827617+1036053950+1036199389+1036275137+1036366843+1036538335
3488+1036752422+1036827780+1036596758+1036159008+1035842598+1035866762
3479+1036103776+1036276049+1036330369+1036425526+1036578781+1036559893
3471+1036221729+1035744249+1035445034+1035495055+1035843510+1036254491
3462+1036448453+1036340008+1036095569+1035871060+1035669347+1035576925
3454+1035866762+1036632124+1037534459+1038137578+1038333364+1038297086
3445+1038194764+1038061830+1037885779+1037678986+1037422497+1036974326
3437+1036208052+1035321674+1034782123+1034817750+1035196361+1035605583
3428+1035975271+1036298780+1036405596+1036116737+1035518893+1034962408
3420+1034762714+1034893889+1035006893+1034762519+1034074402+1033058217
3411+1031866763+1030646130+1029601939+1028909133+1028418756+1027581293
3403+1025939322+1023723151+1021771805+1020804209+1020880999+1021529515
3394+1022235283+1022797174+1023355092+1024210727+1025593864+1027475193
3386+1029517854+1031211538+1032192422+1032572270+1032868554+1033477470
3377+1034280739+1034907567+1035217594+1035272044+1035004418+1034292333
3369+1033349291+1032772289+1033073133+1034156012+1035291128+1035778638
3360+1035660945+1035563248+1035846766+1036256314+1036376222+1036060007
3352+1035423931+1034766687+1034470142+1034681755+1035087070+1035158715
3343+1034640983+1033808925+1033285071+1033505998+1034270123+1034955699
3335+1035237720+1035411491+1035896462+1036630952+1037141780+1037085571
3326+1036587835+1036091205+1035963873+1036216323+1036539312+1036633557
3318+1036507983+1036437511+1036644108+1037057695+1037388303+1037435003
3309+1037275300+1037087395+1036894084+1036644629+1036472291+1036638963
3301+1037181966+1037762615+1037954623+1037658014+1037187372+1036967357
3292+1037176755+1037655213+1038084366+1038257095+1038207855+1038105989
3284+1038078178+1038159528+1038341441+1038570704+1038724285+1038662735
3275+1038332778+1037796744+1037183138+1036679345+1036539312+1036912451
3267+1037603954+1038188381+1038405074+1038296565+1038033954+1037810682
3258+1037789124+1037945765+1038088469+1038110549+1038089446+1038158746
3250+1038391592+1038704745+1038853115+1038694650+1038418622+1038314541
3241+1038443241+1038718227+1039094558+1039484697+1039706666+1039679767
3233+1039530811+1039435914+1039482613+1039685173+1040000019+1040317471
3224+1040545953+1040720506+1040955567+1041249115+1041424319+1041369153
3216+1041226384+1041177079+1041186914+1041174474+1041258429+1041595290
3207+1042121880+1042623915+1042905610+1042875323+1042714709+1042875258
3199+1043589558+1044504658+1045073062+1045163074+1045058082+1045003827
3190+1044961557+1044752354+1044358763+1044030369+1043997412+1044144675
3182+1044168383+1044046066+1044069448+1044357005+1044605677+1044490915
3173+1044054728+1043532633+1043055934+1042689893+1042491437+1042399862
3165+1042326328+1042377522+1042684162+1043037567+1043043624+1042615513
3156+1042032649+1041587735+1041401458+1041509577+1041921014+1042570377
3148+1043296726+1043919775+1044349970+1044572786+1044566273+1044357070
3139+1044111979+1043992202+1043973509+1043948759+1043914695+1043920622
3131+1043928112+1043806316+1043417349+1042741999+1041978330+1041393121
3122+1041035809+1040756654+1040498472+1040375829+1040461803+1040661302
3114+1040794952+1040712821+1040351275+1039784043+1039206520+1038796581
3105+1038560348+1038372378+1038183236+1038087492+1038109376+1038036494
3097+1037624536+1036929385+1036287382+1035946613+1035826901+1035664332
3088+1035274649+1034619489+1033727771+1032684948+1031651242+1030739724
3080+1029833677+1028632453+1026936684+1024837620+1022615587+1020513070
3071+1018620864+1016971794+1015707132+1015051256+1015118342+1015837265
3063+1017031129+1018444422+1019775128+1020822250+1021529255+1021875495
3054+1021894253+1021767116+1021694038+1021726539+1021862729+1022153086
3046+1022594549+1023100557+1023666682+1024383066+1025207372+1025894316
3037+1026256579+1026397524+1026570123+1026857810+1027081211+1026988985
3029+1026509551+1025848594+1025282795+1024846543+1024349783+1023737024
3020+1023180865+1022725594+1022077338+1020876375+1019047933+1016880740
3012+1014858401+1013317906+1012096035+1010559448+1008152376+1004923472
3003+1001424532+998171789+995395485+993222171+991756642+990879253+990193742
2993+989301242+988029937+986315996+983891859+980172318+974548977+966883041
2984+957832014+948880443+942008853+938862732+939770212+943489427+947981365
2974+951436341+952700613+951105342+946180474+937448787+924291467+906171698
2964+883515049+858646202+835426230+817146431+804250550+794167837+783734585
2954+772154559+761810798+756264248+757474655+764622403+774848927+784680427
2944+791126707+792224632+787091733+775645358+758338497+736170857+710873965
2934+685004890+661638697+643490921+631904968+626491807+625631548+627299896
2924+629661832+631389841+631968537+632007811+633121563+637095248+644914635
2914+656457079+670823570+686753937+702947502+718433932+732820808+746108978
2904+758262293+769041655+778203275+785722144+791861914+797158098+802277776
2894+807727671+813678038+820077553+826792501+833572712+840077871+846080473
2884+851536100+856343471+860083594+862076363+861632686+858116160+850748853
2875+838740456+822280047+803739657+787445203+777412381+774710067+776789070
2865+779175235+777963786+771707560+762121411+753157465+748676404+750264055
2855+756796113+765767158+775020875+783753864+792622978+803063915+816010860
2845+830845322+845537991+857792586+866005433+869424848+867941473+862100462
2835+853377764+844221745+837357840+834657220+836495041+841998409+849715343
2825+858175495+866220498+873132860+878586338+882591677+885564548+888324634
2815+891778634+896439133+902265619+908965327+916265027+923817764+931113557
2805+937755623+943706706+949108078+954038288+958569826+962818562+966768800
2795+970243772+973154377+975621826+977849331+980019975+982267279+984578543
2785+986751076+988534903+989818974+990724240+991566849+992643866+993965193
2775+995254996+996247213+996918330+997467781+998147886+999076013+1000153421
2765+1001192923+1002092522+1002870390+1003606639+1004375910+1005142900
2757+1005747062+1006105352+1006352136+1006640539+1006900740+1006954278
2748+1006824340+1006790667+1007108445+1007729736+1008339369+1008668414
2740+1008723646+1008706777+1008805061+1009068779+1009384472+1009541049
2731+1009365258+1008735956+1007515518+1005682842+1003570686+1001757550
2723+1000722347+1000718960+1001785036+1003621033+1005626503+1007317062
2715+1008633634+1009728368+1010629855+1011304294+1011919919+1012797504
2706+1014028623+1015310154+1016288302+1016946523+1017513039+1018112381
2698+1018685214+1019187901+1019703548+1020319368+1020967494+1021472786
2689+1021757802+1021923171+1022105475+1022342685+1022595331+1022829284
2681+1023062064+1023322982+1023557130+1023653004+1023604937+1023561820
2672+1023666682+1023900700+1024089387+1024040798+1023692800+1023116319
2664+1022414786+1021720351+1021220531+1021035296+1021119446+1021362062
2655+1021693713+1022080855+1022507077+1022936751+1023285596+1023522220
2647+1023729339+1023941863+1024060859+1024034090+1023971368+1024016114
2638+1024207080+1024447025+1024582303+1024602820+1024692637+1024971596
2630+1025290806+1025419767+1025323828+1025162887+1025106679+1025240134
2621+1025578623+1026018457+1026303213+1026267782+1026125664+1026260291
2613+1026732236+1027251857+1027594058+1027818893+1028134391+1028661241
2604+1029302072+1029850742+1030231958+1030511959+1030705270+1030785447
2596+1030827326+1030916817+1031018748+1031130775+1031415856+1031992598
2587+1032758546+1033585849+1034476069+1035345317+1035917304+1036035388
2579+1035888125+1035787757+1035911377+1036292462+1036841457+1037355477
2570+1037674687+1037795637+1037775120+1037673710+1037648895+1037922969
2562+1038571355+1039441189+1040305552+1041037502+1041633392+1042093678
2553+1042289724+1042037534+1041414419+1040894929+1040927690+1041397290
2545+1041763981+1041731546+1041486585+1041271064+1041050073+1040696473
2536+1040279434+1040033237+1040074269+1040202839+1040074856+1039665177
2528+1039423083+1039805080+1040734249+1041650652+1042040921+1041819343
2519+1041241625+1040593890+1040070557+1039861224+1040092571+1040614407
2511+1041070785+1041281616+1041352609+1041374429+1041279011+1041057758
2502+1040882554+1040871091+1040922740+1040949314+1041108496+1041533415
2494+1041935017+1041810876+1041070654+1040176396+1039613853+1039449526
2485+1039470108+1039566503+1039788797+1040064630+1040100843+1039700609
2477+1039024737+1038391266+1037954949+1037713180+1037675208+1037849892
2468+1038133605+1038380454+1038594217+1038901508+1039278686+1039446204
2460+1039180337+1038672375+1038411392+1038663647+1039224040+1039749653
2451+1040109050+1040281714+1040260546+1040288032+1040744931+1041533936
2443+1042063261+1042081173+1041990249+1042146825+1042379411+1042379280
2434+1042125527+1041806773+1041626618+1041713765+1042009853+1042295326
2426+1042440830+1042512149+1042539179+1042401100+1042079284+1041821102
2417+1041892812+1042292655+1042803092+1043232962+1043546245+1043775574
2409+1043865325+1043705036+1043304737+1042753853+1042041051+1041142690
2400+1040271553+1039787560+1039854711+1040291484+1040731644+1040920265
2392+1040922936+1041025323+1041421584+1042049128+1042681687+1043085959
2383+1043127839+1042838198+1042424417+1042254553+1042731252+1043944525
2375+1045363745+1046120185+1045829567+1045078273+1044907172+1045729395
2366+1046846859+1047181245+1046417576+1045195184+1044320010+1044111263
2358+1044372115+1044632902+1044466751+1043832434+1043099311+1042625934
2349+1042431060+1042381690+1042479388+1042857868+1043517717+1044107224
2341+1044138813+1043468282+1042548167+1042096283+1042292069+1042474633
2332+1041971556+1041089803+1040807001+1041362575+1041793812+1041218568
2324+1039995786+1039284678+1039723210+1040798208+1041506190+1041381528
2315+1040832793+1040602357+1040991194+1041702236+1042320011+1042654332
2307+1042736723+1042779971+1043023433+1043500848+1044114845+1044850507
2298+1045656968+1046282167+1046490589+1046334989+1046070229+1045911828
2290+1045901407+1045909353+1045772382+1045512701+1045426402+1045880044
2281+1046901244+1048029390+1048749747+1048951069+1048727863+1048032777
2273+1046971782+1046161088+1046285359+1047392663+1048867375+1049960220
2264+1050245236+1049747174+1048767788+1047684974+1046859104+1046458023
2256+1046335640+1046401489+1046902417+1047813023+1048444605+1048461279
2247+1048666639+1049823443+1051262398+1051647066+1050858972+1050319616
2239+1051327790+1053473684+1055085759+1055179679+1054352050+1053650126
2230+1053290534+1052753914+1051682172+1050431187+1049702559+1049707118
2222+1050095498+1050702656+1051649150+1052718026+1053494005+1054016362
2213+1054473651+1054622542+1054447989+1054911857+1056901175+1059699689
2205+1061620944+1061931101+1061089664+1059597497+1057948623+1057119301
2196+1057714344+1059126595+1060420501+1061323227+1061935465+1062345664
2188+1062673993+1062786671+1062195014+1060841708+1059649277+1059633319
2179+1060514291+1060877335+1060010367+1058962072+1059246177+1061092465
2171+1063473810+1065107313+1065079242+1063483841+1061642828+1060858903
2162+1061181565+1062176126+1064161601+1067357353+1070387215+1071301859
2154+1069761299+1067233277+1065440592+1064712029+1063915989+1062190976
2145+1059988678+1057978844+1056138548+1054542951+1053852230+1054482639
2137+1056125912+1058141803+1059866426+1060833436+1061004928+1060463423
2128+1059106795+1057074751+1055073840+1053893328+1053832690+1054597922
2120+1055494916+1055915537+1055840570+1055595610+1055126857+1054004247
2111+1052197624+1050355439+1049103868+1048456133+1048126176+1048015713
2103+1048114648+1048337984+1048753655+1049592942+1050823931+1051971487
2094+1052475345+1052158480+1051393052+1050740693+1050407674+1050216773
2086+1050050492+1050073679+1050604177+1051836013+1053451149+1054699463
2077+1055292682+1055860435+1057030005+1058539693+1059649798+1059901467
2069+1059278547+1058196514+1057404838+1057376897+1057814712+1058155286
2060+1058362665+1058847050+1059813278+1060939340+1061515821+1060906644
2052+1059202864+1057449193+1056941101+1058016164+1059588574+1060311015
2043+1060074652+1059912800+1060612119+1061777846+1062318960+1061625763
2035+1060235397+1059508267+1060471304+1062786801+1065185732+1066934453
2026+1068189280+1068922859+1068753125+1068170588+1068374645+1069358134
2018+1069785007+1069172964+1068455148+1067974736+1066838840+1064609903
2009+1062136461+1060466680+1059783904+1059580693+1059514910+1059794781
2001+1060687216+1061944062+1063065695+1063975845+1065108290+1066942334
1992+1069554962+1072210707+1073371484+1072032116+1069309350+1067761560
1984+1068478921+1069695972+1069196216+1067272617+1066245034+1067335990
1975+1069046153+1069411737+1068970730+1069775628+1072065203+1073741823
1967+1073146259+1071052014+1069440851+1069198822+1069604527+1069659824
1958+1069437399+1069560498+1069800834+1069420335+1068485434+1067675196
1950+1067269751+1067120990+1067056119+1066860594+1066429747+1066140693
1941+1066502369+1067349798+1067992778+1068110601+1068037523+1068318371
1933+1069081454+1069734400+1069435250+1068125777+1066869973+1066734955
1924+1067567468+1068251286+1068028470+1067184298+1066297791+1065399168
1916+1064181075+1062703107+1061406660+1060628858+1060386307+1060399464
1907+1060285613+1059904788+1059428611+1059088884+1059040947+1059298477
1899+1059617362+1059733231+1059733362+1059853986+1060103505+1060422195
1890+1060859749+1061371619+1061784294+1062009780+1062154633+1062509861
1882+1063197066+1063670117+1063134018+1061503251+1059378785+1057372728
1873+1055978324+1055612479+1056422587+1058216119+1060427014+1062314075
1865+1063570335+1064315182+1064695616+1064934454+1065315930+1065792238
1856+1066031597+1065979687+1065979752+1066339931+1066985191+1067538940
1848+1067777062+1067868897+1067979817+1067954285+1067732837+1067598145
1839+1067764817+1068218394+1068670278+1068688385+1068272453+1067853461
1831+1067540959+1066927354+1065671810+1063807871+1061648494+1059929604
1822+1059415389+1060073870+1061273271+1062383310+1063004536+1063041661
1814+1062516830+1061412327+1059895865+1058426299+1057423922+1057007340
1805+1056957970+1056856299+1056526472+1056210909+1056071071+1055914820
1797+1055540313+1054852327+1053888638+1053001544+1052577537+1052530186
1788+1052632704+1052833049+1053019195+1053040558+1052783614+1052128910
1780+1051152716+1050097648+1048946510+1047532891+1045814066+1043667716
1771+1041125104+1038803680+1037021807+1035510882+1034185061+1032988592
1763+1031707125+1030511438+1029814203+1029453699+1029109348+1028829607
1754+1028609397+1028384236+1028162919+1027504568+1025716702+1022832801
1746+1018907248+1013313542+1005417040+994313778+978565910+958718391+938163022
1736+918047942+895423664+869824756+848361320+833455865+818418714+796981526
1726+766299740+724921245+673931850+621014231+575774468+541901652+518418026
1716+502759453+489615517+473143156+450872836+423535433+394201547+367033031
1706+345647232+331607540+324004716+322818180+331780041+353074753+380308630
1696+409249674+440134280+466730550+484568592+497960679+512197134+528191721
1686+545873936+570592068+608058168+646816871+673419394+691971963+708530396
1677+725617437+744214492+762022867+774601166+781374798+785473276+790018752
1667+796395406+805485968+818634430+835787515+853246654+866827200+876079223
1657+882526545+887979567+895520906+907550340+917698967+921607129+923114407
1647+925336245+928045137+929234312+928815515+927431923+925009870+921182210
1637+915375328+907759934+901693502+899849689+900687152+902944878+907157140
1627+913865901+922361354+931656625+940701986+947576637+951208446+952427320
1617+952354438+951361635+949218021+945667822+940216885+931496206+917184361
1607+894763229+862301654+819079670+767634093+716319757+677429422+660062510
1597+665368203+688028369+719987583+753653443+784384730+810978068+833798914
1587+853037581+868694070+881037309+890387486+896871086+900617071+901767362
1577+899791592+892963249+880930623+866956030+853469274+841614327+834672721
1568+836227480+845547305+859409871+873917763+885923229+896452159+911202470
1558+930517276+943571167+950265013+955385798+959989436+963659087+966270868
1548+967800095+968208992+967726106+966803385+965967419+966039325+967744994
1538+969918504+971488178+973308479+976622836+981203157+985126496+987554280
1528+989218395+990897360+992715055+994423785+996037228+997580589+998618072
1518+998960664+998955193+998785851+998389850+997855379+997347938+996923215
1508+996814510+997577788+998719612+998950243+998396559+997536299+996530405
1498+995424990+994236141+992893256+991283395+989291147+986817249+983906970
1488+980776089+977530902+974068761+970170694+965526738+959959736+953490009
1478+945900472+936562801+924608919+908173911+883981913+852227603+819591475
1468+790828795+766149156+744985261+726369253+708078186+688593777+667796248
1458+646124326+627467154+619887974+622684013+628303967+632728363+634444388
1449+633667367+632705632+634489980+641097461+654072868+673514160+696695249
1439+720159205+741115916+754768693+757627975+754645985+754084420+761294695
1429+775548442+790646622+802131164+809857999+814873530+818254777+821802371
1419+827697116+836542392+846643667+856848176+867203726+877418917+886555853
1409+893924528+899948168+906033944+913281604+921093566+927983653+933554433
1399+938379910+942777082+946544560+949352713+950515509+949044836+944017124
1389+933547659+914074192+883483460+845187583+805456463+770348848+747270211
1379+742732811+756237804+780298822+806564223+829316159+845743156+856356823
1369+864363919+873610341+886216191+901567147+917581534+931802195+942294977
1359+949177769+954098144+958373584+962338997+965648600+967802635+968466132
1349+967450664+964539277+959239510+950737153+938253685+921177455+898992881
1340+872710937+847317910+830215107+825790580+833396791+848894098+866573772
1330+881718065+893197658+903511198+915648425+929977009+944371766+956643556
1320+965963642+972395462+976141121+977352701+976076641+972296658+966474079
1310+960150703+955550385+954019204+954715006+955118562+952809969+946324284
1300+934397432+914697633+883228339+835570236+770888073+696498096+627258668
1290+577607209+553161001+550072000+560088344+573856144+582653938+583111293
1280+581293793+588199317+609446646+641136866+675602934+708337215+738813836
1270+767465858+793962476+817625931+837951776+854535089+867150058+876165913
1260+882708198+888180693+893425684+898292651+902049121+904131903+904502568
1250+903670380+902886585+904071852+908619607+915999746+924177291+931600221
1240+938228479+944671763+951114265+957207336+962434611+966400936+969004901
1231+970374817+970662373+970129075+969464145+969633032+971102207+973346190
1221+975356806+976478243+976490944+975117186+971823867+965913946+956288979
1211+940831272+915843625+876464021+819668526+749707700+681050289+633091472
1201+618683493+636179431+671557539+707569182+732565166+744322741+747939244
1191+750297337+756031662+767436288+785417718+808763656+833735541+856089783
1181+873565074+886415624+896408977+905571444+915140854+925083404+934487900
1171+942423482+948499423+952837715+955749819+957527132+958377297+958326754
1161+957225247+955086517+952411493+949980908+948287224+947203888+946158785
1151+944593149+942253293+939010059+934359982+926965905+914480288+894348144
1141+866510530+836591175+815205572+811496452+826178440+851385190+877200531
1131+897685623+911621723+919922628+923540303+922996779+918519626+909896189
1121+896263472+876322620+848684895+812208536+767470483+719516421+678712386
1112+656522341+658344857+679697699+709220466+735241819+750277537+751530476
1102+739240058+714968469+680725607+639197960+594555650+552519194+518980145
1092+497974162+490381303+494047469+504859462+517945886+529013065+536090178
1082+540648159+546418568+556310119+570145721+584995358+597143918+604231485
1072+607093437+610093208+618431499+634126350+654746460+675927876+694507541
1062+709459434+720894933+728848947+732817682+731945438+725593469+714394594
1052+701291398+690898853+686545451+687377638+688588437+684662623+672546043
1042+652546898+627659293+602696722+583179812+573513486+575344729+587468930
1032+607132516+631353824+657493325+683362985+707313475+728246413+745297176
1022+757299125+762721470+760675097+752190911+739811198+725075151+706482330
1012+680672655+646088047+605706458+566525180+536348913+520098391+517847114
1003+525662202+538485950+552978893+568419731+585434541+604210187+623878593
993+643020279+660220585+674272358+684516924+691613413+697940633+706499134
983+718805573+733883888+749373118+763352075+775095842+784630667+792142892
973+797942740+802681592+807210199+812134938+817622414+823587436+829901042
963+836351621+842556523+848163841+853171883+857824305+862202654+866210403
953+869904868+873487698+876874872+879355869+879391431+873759753+856208453
943+819307957+762921880+702540624+663712490+662745936+693795586+736773651
933+775062299+803512933+823991838+839118546+850393429+858820820+865277326
923+870329201+874202062+877107067+879413445+881387587+882918052+883571714
913+882739982+879567156+872826351+861399319+845755271+829200420+816768993
903+811835462+813560084+817764987+820321081+820010272+818862326+820115199
894+825420242+833460164+841278052+847133523+851853096+857165824+863113651
884+867559736+867968438+863348255+855178590+847332109+844520113+849396719
874+860715502+874614281+887513354+897699236+905071298+910354846+914439451
864+917905043+920923377+923475693+925545578+927197383+928598822+929920019
854+931198749+932370143+933405672+934329826+935102157+935603150+935852475
844+936176049+936953591+938177025+939446833+940453117+941295466+942269706
834+943508706+944942515+946457348+947901709+949062551+949889529+950656715
824+951671793+952885001+953905159+954308519+953886661+952748485+951330372
814+950289893+950164580+950942383+952131362+953328352+954302983+954449464
804+952656519+947716084+938886570+927221091+916817409+912958877+917509043
794+926782820+934474418+935475818+924997365+894255918+833295641+746698550
784+664973115+627943202+650904341+712997128+780341614+832973370+868545309
775+891436953+905950901+915594627+922708702+927905495+930685186+930392289
765+926845346+921174980+916342078+915472179+918496635+921074482+917680469
755+905648690+887054371+868301912+857084409+857273226+866133156+877080297
745+884930947+888833899+891588840+896474043+903955526+911308635+915325633
735+914555646+908730722+897151804+878887246+854750089+828614561+806873924
725+796500594+801878583+821727535+849153908+875789713+896671001+911473027
715+922140623+930443091+937249615+942891583+947475292+950942838+953462849
705+955696020+958158845+960621084+962497723+963392112+963014153+960384135
695+952906364+938150777+919090050+905635599+906667676+920787317+938249321
685+951238341+958852888+963449102+966593661+968893070+970872032+972876916
675+974893849+976748931+978350454+979906255+981775144+983592123+983808360
666+981802304+978011053+971317272+957338706+928402385+880093941+822655401
656+781307387+776854137+806961331+850973036+889995979+917771133+936161915
646+948321157+956718001+962948305+967531557+970579851+972711677+974928630
636+977597531+979865938+980559786+979584765+977727860+975032189+969159459
626+953776328+919653895+863824303+800939580+759379627+759537832+796221830
616+845129160+885435457+911790023+927848635+937368089+942227956+943340341
606+940540785+931905819+913376241+879521434+827861248+766430460+715389415
596+695211289+711847163+754296879+804688821+849512198+883474472+906346641
586+917962164+915559716+895131939+856705929+810236088+774029701+762751626
576+776952681+805105143+834448342+858805124+877635675+892104553+903299390
566+912084614+919280364+925566225+931151464+935879439+939698632+942801441
556+945494116+948072615+950580902+952704912+954072417+954668502+954992923
547+955699993+956840775+957716601+957821984+957499321+957213393+956560513
537+954515377+950477928+944715010+938302729+933300093+932148109+935780960
527+942615490+949822964+955474637+959254490+961778539+964040303+966619518
517+968794526+969421158+968724835+968102827+968485411+969375501+969204791
507+966658011+962074107+957659350+956141325+958511533+962757859+965913621
497+966926614+966724445+966340429+965420183+962479617+956863115+950403092
487+946577516+947880150+953749494+960985365+966551651+969619289+971003793
477+971832594+972942373+974490033+975281383+973053162+966719039+957787464
467+949372318+944437745+943706251+944852047+944216362+939189497+929767610
457+920031724+916631067+922279940+933899891+946225154+955172621+959930948
447+962244947+964460272+968121129+972849300+976357750+976659440+974299457
438+971962988+972528527+976671098+981942207+985068594+984682297+982077420
428+980075141+980858611+984254187+987652694+988233278+985231814+980729976
418+978774005+980391226+982914493+983805820+981641950+976443463+969167145
408+960553151+951749169+944733312+939972055+934315432+921389850+893225013
398+849371122+811156855+801835662+818745284+845896281+871323893+891622904
388+908040912+920957310+928784513+931839645+934196501+938337510+942924670
378+947095704+952246840+956470305+951711914
##END=
