##TITLE=DMK- d124
##JCAMP-DX=4.24
##DATA TYPE=INFRARED SPECTRUM
##DATE=26/7/2019
##SAMPLING PROCEDURE=Diamant-ATR
##ORIGIN=Rieke
##XUNITS=1/CM
##YUNITS=TRANSMITTANCE
##RESOLUTION=4
##FIRSTX=3997.453
##LASTX=373.96442
##DELTAX=-1.4165319
##MAXY=1.0073864
##MINY=0.55315936
##XFACTOR=1
##YFACTOR=9.3820174e-010
##NPOINTS=2559
##FIRSTY=1
##XYDATA=(X++(Y..Y))
3997+1065868840+1065484924+1064948915+1064323328+1063736431+1063406389
3989+1063493236+1063858093+1064195758+1064464811+1064857939+1065305132
3980+1065448966+1065195669+1064807305+1064379045+1063769467+1063139433
3972+1063013070+1063610513+1064507504+1065092177+1065119114+1064755401
3963+1064309796+1064050591+1064124858+1064481393+1064901585+1065179532
3955+1065285247+1065328130+1065370124+1065336834+1065100436+1064619953
3946+1064033247+1063646980+1063826454+1064654069+1065573295+1065868840
3938+1065444900+1064792947+1064433745+1064472498+1064629038+1064603245
3929+1064371485+1064138009+1064156433+1064527516+1064936908+1064898853
3921+1064471800+1064181909+1064248616+1064256684+1063873721+1063416427
3912+1063289175+1063481355+1063717880+1063809936+1063797993+1063865653
3904+1064171426+1064623511+1064924583+1064917722+1064681769+1064346199
3895+1063982549+1063705492+1063735478+1064147856+1064563665+1064609026
3887+1064327267+1063944240+1063602445+1063309505+1063141657+1063293241
3878+1063749900+1064303634+1064881827+1065441660+1065812234+1065868840
3870+1065594451+1065000883+1064320215+1063914127+1063989029+1064393212
3861+1064773062+1064951838+1064884940+1064495369+1063582115+1061947787
3853+1060475716+1060865986+1062361054+1063467506+1063798501+1063579892
3844+1063216686+1063116054+1063562039+1064543462+1065629520+1066126902
3836+1065796542+1065061492+1064383047+1064006246+1063964697+1064116853
3827+1064282097+1064375042+1064487301+1064807814+1065321396+1065522788
3819+1065038621+1064300203+1063875309+1063995319+1064455409+1064866643
3810+1064908129+1064454710+1063762479+1063264080+1062904623+1062467977
3802+1062412896+1063304676+1064463858+1065036397+1065092431+1064953490
3793+1064715440+1064411064+1064202937+1064237625+1064444164+1064658834
3785+1064869184+1065113269+1065227942+1065014352+1064596637+1064282859
3776+1063993667+1063362744+1062347967+1061420545+1061279698+1062157057
3768+1063378245+1064223140+1064632850+1064811498+1064906413+1065061365
3759+1065316314+1065389882+1064999613+1064335526+1063842782+1063921878
3751+1064563474+1064817216+1063961521+1062571849+1061924471+1063129967
3742+1065085379+1065868840+1065379654+1064483108+1064087820+1064496068
3734+1065022420+1065168033+1065259136+1065444201+1065495788+1065219493
3725+1064693522+1064150143+1063733191+1063587071+1063871116+1064444164
3717+1064909780+1065041670+1064958953+1064976106+1065305767+1065727802
3708+1065868840+1065749974+1065572406+1065483971+1065464150+1065223622
3700+1064459665+1063401497+1062695099+1062862375+1063892717+1065180993
3691+1065809503+1065076040+1063540947+1062757105+1062973935+1063439743
3683+1063675632+1063555813+1063039880+1062093336+1061001179+1060852517
3674+1062445614+1064461508+1065781231+1066409995+1066218132+1065223368
3666+1064136611+1063621504+1063741387+1064019969+1064054657+1063978039
3657+1064091187+1064264562+1064072827+1063485040+1062741032+1061923772
3649+1061288402+1061572193+1062643004+1063607909+1064009486+1063890938
3640+1063595075+1063439425+1063356962+1063042358+1062483796+1062081265
3632+1062151657+1062681758+1063499271+1064158720+1064364306+1064444164
3623+1064703242+1065162315+1065634603+1065793811+1065438356+1064861942
3615+1064460999+1064237562+1063908981+1063426846+1063076220+1062929210
3606+1062688873+1062278592+1062035332+1062200830+1062450061+1062055472
3598+1060902452+1059927637+1060158571+1061494114+1062811614+1063344764
3589+1063087020+1062355781+1061704718+1061590109+1061878602+1062253751
3581+1062557555+1062755644+1062868093+1062901637+1062857166+1062799925
3572+1062792682+1062761298+1062635062+1062653677+1063099853+1063330788
3564+1062465118+1060849595+1059461639+1058925439+1059180325+1059755850
3555+1060177948+1060172929+1059844920+1059606298+1059724021+1060164162
3547+1060728505+1061038472+1060851374+1060509896+1060478067+1060737908
3538+1060966745+1060972717+1060828121+1060709891+1060675775+1060604684
3530+1060400814+1060176550+1060021535+1059754833+1059276193+1058878744
3521+1058833129+1058995895+1059106248+1059114761+1059105740+1059176513
3513+1059478474+1060107873+1060759826+1060769038+1059904766+1058789801
3504+1058206716+1058334731+1058759497+1059117048+1059354590+1059416532
3496+1059211900+1058922390+1058958730+1059467230+1060122104+1060506275
3488+1060539120+1060390331+1060144277+1059800702+1059443850+1059156945
3479+1058896406+1058631864+1058463190+1058485680+1058662549+1058851426
3471+1058878681+1058616807+1058100175+1057554446+1057243590+1057284822
3462+1057607367+1058063645+1058542476+1058946659+1059154849+1059154404
3454+1059098878+1059062412+1058916609+1058633389+1058440700+1058453533
3445+1058470178+1058399405+1058416114+1058491334+1058251315+1057555272
3437+1056894616+1056950078+1057816955+1058846090+1059322189+1059173082
3428+1058831668+1058593364+1058456710+1058424373+1058534154+1058653464
3420+1058572590+1058300488+1058079655+1058140771+1058464524+1058733513
3411+1058638979+1058274059+1058057483+1058247249+1058679766+1058966099
3403+1058826014+1058310653+1057769244+1057528653+1057599680+1057749041
3394+1057782712+1057663719+1057455974+1057306994+1057425733+1057959137
3386+1058829635+1059688698+1060080809+1059767666+1058962160+1058181622
3377+1057796308+1057775533+1057858822+1057801771+1057486977+1057056492
3369+1056908656+1057301657+1058000114+1058512934+1058588409+1058381108
3360+1058259447+1058460903+1058822901+1058955934+1058710515+1058261226
3352+1057782776+1057331707+1056978731+1056789917+1056717937+1056654025
3343+1056537637+1056356447+1056100927+1055794200+1055559581+1055562821
3335+1055815229+1056160518+1056528552+1057002110+1057557940+1057958819
3326+1058016378+1057820449+1057649425+1057707873+1057959709+1058226855
3318+1058402709+1058457726+1058323613+1057997764+1057655142+1057405784
3309+1057113988+1056708725+1056451171+1056631726+1057207314+1057880994
3301+1058351630+1058430535+1058132512+1057701456+1057424716+1057432340
3292+1057695421+1058097888+1058478183+1058711659+1058738214+1058475959
3284+1057862126+1057100011+1056697925+1056997091+1057693451+1058082260
3275+1057839509+1057329992+1057050203+1057084891+1057245052+1057400575
3267+1057529352+1057660098+1057859965+1058188674+1058644379+1059124799
3258+1059408591+1059319394+1058966925+1058672968+1058627163+1058769535
3250+1058974993+1059214631+1059540862+1059931131+1060181251+1060127314
3241+1059929987+1059884817+1059992311+1059972871+1059649499+1059099641
3233+1058499339+1057999543+1057713591+1057710605+1057969048+1058370117
3224+1058792660+1059184962+1059473328+1059496390+1059204403+1058851045
3216+1058771377+1058975756+1059172574+1059219460+1059269585+1059372569
3207+1059265011+1058797489+1058282000+1058159576+1058483837+1058912225
3199+1059112792+1059115015+1059228481+1059557126+1059802418+1059719383
3190+1059488385+1059390548+1059476314+1059741174+1060165813+1060451829
3182+1060233728+1059617988+1059088586+1058958412+1059247667+1059861882
3173+1060538231+1060859633+1060652268+1060255709+1060179091+1060543885
3165+1060996795+1061206447+1061264959+1061407013+1061541063+1061395451
3156+1060949338+1060379404+1059768238+1059180198+1058823917+1058855937
3148+1059153769+1059467102+1059692700+1059869570+1059986530+1059968487
3139+1059837550+1059703119+1059592703+1059494167+1059503506+1059664747
3131+1059771605+1059626946+1059366660+1059315963+1059618750+1060093325
3122+1060381056+1060262380+1059834374+1059322379+1058854793+1058563251
3114+1058641965+1059092906+1059599882+1059803498+1059587493+1059114126
3105+1058726398+1058741645+1059190744+1059772558+1060129220+1060105586
3097+1059724847+1059082297+1058373993+1057872545+1057679157+1057616833
3088+1057495998+1057329484+1057170276+1056964690+1056706374+1056527790
3080+1056552376+1056785343+1057130633+1057438757+1057609591+1057653808
3071+1057565246+1057242764+1056708344+1056272460+1056273857+1056664825
3063+1057015833+1056969900+1056576454+1056110329+1055671268+1055150697
3054+1054595248+1054290301+1054346335+1054475175+1054379434+1054144815
3046+1054027982+1054065465+1054120165+1054140559+1054184204+1054273401
3037+1054345954+1054335535+1054281089+1054334772+1054636861+1055179794
3029+1055768089+1056112870+1056034855+1055616822+1055093647+1054624726
3020+1054243542+1053913690+1053548579+1053111933+1052698284+1052352486
3012+1051925687+1051330467+1050756213+1050384558+1050118237+1049797471
3003+1049417049+1048948382+1048232645+1047212278+1046003924+1044675686
2995+1043248659+1041912100+1040887031+1040056430+1039032124+1037591883
2986+1035792692+1033660855+1031052029+1027919837+1024459445+1020793277
2978+1016726420+1012043888+1006816261+1001110884+994655399+987139078+978673163
2968+969657643+960370911+950967600+941735632+933053458+925095090+917795345
2958+911138214+905314860+900569622+896987442+894359239+892178483+889851543
2948+886918202+882979233+877615968+870613611+862038232+851900633+840030678
2938+826425063+811393247+795247673+778158605+760368538+742220984+723897577
2928+705429955+687040857+669162864+652014585+635464321+619486150+604839203
2918+593686065+589595321+595940009+613243748+638106437+665197911+690367453
2908+711966188+730032994+745119828+757868731+768971362+779001848+788254083
2898+796852523+804985918+812964552+821066246+829368696+837724703+845885035
2888+853668185+861010559+867850659+874054626+879534723+884304230+888254888
2878+890996557+892137569+891685675+890112654+888156098+886506205+885377709
2868+884293557+882395703+878899988+873254710+865164961+854554375+841326832
2859+825283543+806481686+785362545+762191235+737043483+711681633+691745689
2849+685460403+698192597+727900966+766415902+804999069+838576205+865950582
2839+887871862+905471018+919717658+931427707+941262391+949611283+956657667
2829+962619709+967764364+972260561+976218907+979797085+983111420+986119981
2819+988715212+990940121+993057918+995307796+997585500+999546376+1001073019
2809+1002430544+1003895309+1005463184+1006986651+1008402306+1009717201
2800+1010934577+1012064281+1013105105+1014015627+1014797182+1015556375
2792+1016376048+1017220054+1018049956+1018915308+1019862297+1020856998
2783+1021820886+1022697547+1023528211+1024405189+1025230898+1025680632
2775+1025649693+1025557256+1025933739+1026826917+1027818378+1028506607
2766+1028811427+1028917968+1029067519+1029380345+1029821502+1030314691
2758+1030799304+1031158443+1031254819+1031130235+1031025028+1031110858
2749+1031342174+1031585687+1031748580+1031803407+1031822530+1031923861
2741+1032122014+1032347103+1032579054+1032798235+1032902870+1032875869
2732+1032897851+1033077452+1033236470+1033151148+1032880952+1032714247
2724+1032891117+1033416960+1034027936+1034367571+1034349719+1034279771
2715+1034501748+1035045825+1035692060+1036204498+1036450744+1036445471
2707+1036310531+1036149354+1036020641+1035974708+1035996562+1035995355
2698+1035962319+1035976868+1036050309+1036163331+1036378763+1036698386
2690+1036926335+1036877162+1036598071+1036289693+1036129786+1036161234
2681+1036259135+1036242553+1036069623+1035863211+1035795488+1035971214
2673+1036310658+1036546929+1036491467+1036270697+1036137283+1036137219
2664+1036148591+1036138554+1036184995+1036312755+1036472852+1036638350
2656+1036824177+1037027539+1037208475+1037342207+1037480323+1037708017
2647+1038007183+1038247774+1038386017+1038532519+1038730480+1038848139
2639+1038816374+1038780416+1038892611+1039140000+1039453968+1039784392
2630+1039996584+1039941186+1039711395+1039621499+1039851036+1040288254
2622+1040755840+1041190009+1041563761+1041805050+1041850729+1041706196
2614+1041450993+1041213643+1041118982+1041266564+1041749334+1042556809
2605+1043426545+1043983074+1044112169+1044035043+1043984154+1043999021
2597+1044024687+1044007026+1043905122+1043758430+1043692485+1043780475
2588+1044013379+1044387892+1044847918+1045206549+1045316966+1045255659
2580+1045232279+1045385642+1045659142+1045827626+1045767526+1045686016
2571+1045859582+1046267322+1046738974+1047235403+1047739202+1048145036
2563+1048409515+1048504430+1048272606+1047706230+1047218377+1047219902
2554+1047569067+1047793013+1047731515+1047675862+1047920074+1048399985
2546+1048820940+1048961724+1048767320+1048344777+1048017403+1048126168
2537+1048552649+1048722340+1048326544+1047754322+1047575420+1047899554
2529+1048452017+1049009435+1049503832+1049828093+1049790165+1049345958
2520+1048791017+1048547885+1048747689+1049168453+1049601224+1050070653
2512+1050662188+1051316363+1051870860+1052188831+1052179111+1051808727
2503+1051214015+1050693635+1050452854+1050452536+1050613269+1050943120
2495+1051318714+1051435039+1051187333+1050853606+1050750686+1050898585
2486+1051090321+1051123484+1050918598+1050508697+1050039459+1049820088
2478+1050158897+1050964721+1051733316+1052109862+1052180254+1052141119
2469+1052101032+1052228220+1052640026+1053122288+1053281115+1052916004
2461+1052125110+1051242033+1050681120+1050595163+1050723368+1050745349
2452+1050644145+1050604502+1050755260+1051089813+1051455115+1051592023
2444+1051386883+1051095340+1051098453+1051396666+1051595327+1051457656
2435+1051189048+1051082824+1051210458+1051519789+1051899512+1052154524
2427+1052226187+1052276376+1052292196+1051995253+1051424112+1051110524
2418+1051372016+1051924988+1052427961+1052879029+1053252081+1053255131
2410+1052754064+1052093408+1051728996+1051735793+1051844177+1051803199
2401+1051592468+1051396349+1051465915+1051905929+1052524909+1052956981
2393+1052992177+1052751205+1052486663+1052283873+1052077906+1051905293
2384+1051931023+1052198297+1052534438+1052768867+1052883476+1052903679
2376+1052830936+1052768168+1052899168+1053236072+1053627739+1054099899
2367+1054835331+1055691979+1056179705+1056066811+1055681052+1055517270
2359+1055718853+1055912621+1055591219+1054723834+1053784660+1053153609
2350+1052816133+1052594856+1052329615+1051876133+1051198895+1050499041
2342+1050027960+1049810939+1049730636+1049787179+1050139647+1050816694
2333+1051495266+1051755869+1051561910+1051250736+1050998837+1050670129
2325+1050277318+1050165568+1050471405+1050739314+1050531949+1050065253
2316+1049853822+1050093778+1050562063+1050831306+1050592240+1049963095
2308+1049374356+1049115278+1049175568+1049403262+1049627717+1049805221
2299+1050134501+1050767458+1051454225+1051767305+1051547742+1050920821
2291+1050146890+1049625048+1049715961+1050364482+1051093752+1051508671
2282+1051700216+1052068059+1052808827+1053718588+1054473714+1054887490
2274+1054880946+1054480956+1053903970+1053401252+1053005646+1052657370
2265+1052550194+1053081883+1054336996+1055751508+1056488972+1056262485
2257+1055635882+1055272930+1055114930+1054723707+1054147674+1053783961
2248+1053666937+1053546483+1053385178+1053285816+1053296934+1053567384
2240+1054230328+1055087993+1055820947+1056279003+1056313882+1055910588
2231+1055675588+1056398505+1057889571+1058944372+1058734339+1057780997
2223+1057243717+1057552667+1058221900+1058762674+1059015145+1058691519
2214+1057534180+1056006456+1054982150+1054723390+1054790796+1054889078
2206+1055201585+1055901186+1056810565+1057590722+1057912505+1057403434
2197+1055880793+1053886055+1052590472+1052750633+1053830592+1054415075
2189+1053696924+1052489586+1052448862+1054175628+1056427856+1057322750
2180+1056153975+1054191955+1053742094+1055919102+1059314565+1061526134
2172+1061756496+1061074494+1060671709+1060756141+1060773993+1060271846
2163+1059792825+1060611863+1063052650+1065479778+1065868840+1064059358
2155+1061626639+1060299609+1060592613+1061320294+1060864969+1059076198
2146+1057127075+1055780922+1055082275+1055269182+1056563684+1058418909
2138+1059948792+1060674504+1060490773+1059643019+1058753652+1058168979
2129+1057531130+1056440117+1055077701+1053911022+1053258562+1053251192
2121+1053793935+1054522569+1055001654+1055055147+1054961249+1055177634
2112+1055672285+1055853601+1055431122+1054824912+1054424795+1054036559
2104+1053302017+1052220533+1051207154+1050893249+1051673152+1053265042
2095+1054884059+1055861606+1055951439+1055206160+1053884339+1052494477
2087+1051667815+1051702249+1052228284+1052605593+1052708703+1053001135
2078+1053812168+1054956547+1056104230+1057003254+1057230439+1056328938
2070+1054535402+1052829793+1051898940+1051535290+1051351687+1051516994
2061+1052317290+1053538033+1054709858+1055630863+1056366612+1056941883
2053+1057236475+1057142449+1056779498+1056494563+1056536239+1056751164
2044+1056695066+1055995021+1054805916+1054066990+1054805662+1056912976
2036+1059095702+1060323687+1060900483+1061715709+1062938041+1063877406
2027+1063958281+1063648251+1064030388+1065222669+1065868840+1064833416
2019+1062338183+1059839011+1058628306+1058937320+1059872746+1060248848
2010+1059696385+1058843485+1058516746+1059154023+1060593629+1061876696
2002+1061780701+1060016643+1057576237+1055741470+1055094028+1055454946
1993+1056255370+1056886802+1057104013+1057110620+1057244734+1057789065
1985+1058786879+1059698037+1059678469+1058646158+1057693769+1057861490
1976+1058814642+1059471359+1059520341+1059471677+1059748861+1060317779
1968+1060806966+1060740258+1060015944+1059178292+1058985285+1059728214
1959+1060990633+1062075039+1062498789+1062134758+1061283001+1060641468
1951+1060774946+1061487062+1062038509+1061988574+1061498625+1061030721
1942+1061146728+1062019132+1062884992+1062726864+1061516350+1060364855
1934+1060320511+1061357205+1062574391+1063087274+1062843952+1062572548
1925+1062737601+1062957417+1062767969+1062389135+1062170145+1061996388
1917+1061630260+1061126716+1060700488+1060495729+1060519426+1060719547
1908+1061107339+1061558725+1061619143+1060998765+1060164861+1059932211
1900+1060467013+1061161912+1061436110+1061244184+1060883774+1060663640
1891+1060779266+1061126716+1061223283+1060832124+1060401004+1060440774
1883+1060841717+1061099016+1061072842+1061130274+1061572320+1062244603
1874+1062772797+1062957862+1062835057+1062609841+1062652279+1063144452
1866+1063806125+1064385017+1064877888+1065225211+1065204627+1064754130
1857+1064187372+1063908473+1064020668+1064313354+1064552357+1064686851
1849+1064808322+1065041607+1065440770+1065813251+1065826021+1065569039
1840+1065451507+1065650930+1065956005+1065977351+1065596294+1065118860
1832+1064930174+1065082520+1065227243+1065148783+1065006601+1064906032
1823+1064710485+1064332286+1063956438+1063881091+1064212276+1064730941
1815+1065101453+1065107234+1064735389+1064175238+1063602826+1062996044
1806+1062346442+1061809925+1061559360+1061631849+1061838387+1061810688
1798+1061376519+1060695406+1059930559+1059022705+1057777884+1056083074
1789+1053995010+1051644373+1049192150+1046794373+1044444879+1041922646
1781+1039103215+1036267712+1033805514+1031714400+1029644950+1027167950
1772+1024160469+1021102608+1018184768+1014958233+1011365888+1007832181
1764+1004403110+1000787258+997187734+994078095+991457706+989303316+987717525
1754+986380965+984565193+981360957+976160395+969472896+962077855+954088802
1744+945736035+937752636+930824673+925547175+922401197+921237822+921777833
1734+923994928+926925411+929383605+931412396+933078172+934184242+934747759
1724+934863830+934513712+933768369+932803655+931804571+931111006+930944873
1714+931179556+931989954+933666593+936155918+939428068+943975090+949856384
1704+955696637+960764929+966302585+973182392+979827071+985584290+991322386
1694+996222384+999561369+1002152152+1004799224+1007427046+1009766755+1012326853
1684+1015775238+1018971850+1020689467+1021626736+1022504731+1023608641
1676+1024970867+1026276487+1027195523+1027931145+1028898528+1029990113
1667+1030712267+1031117402+1031628951+1032574734+1033837788+1034907519
1659+1035545367+1035895803+1036264090+1037153076+1038820885+1039903131
1650+1039856626+1039571056+1039850019+1040946623+1041953649+1042298303
1642+1042205993+1041976583+1041846536+1042042211+1042681774+1043369812
1633+1043646806+1043677555+1043763957+1044082945+1044576197+1045050899
1625+1045572550+1046345401+1047157260+1047643207+1047889325+1048160792
1616+1048415423+1048344142+1047922043+1047259736+1046341272+1045200450
1608+1044121127+1043422606+1043042311+1042565577+1041677481+1040539455
1599+1039665272+1039476585+1040036355+1041046557+1042025565+1042573327
1591+1042491500+1041808354+1040845355+1040161701+1040264748+1041237975
1582+1042609985+1043736956+1044315150+1044295646+1043536263+1042242459
1574+1041267199+1041156274+1042288900+1044838198+1047762137+1049910937
1565+1051400796+1052544984+1053295092+1053568655+1053365611+1052951327
1557+1052892815+1053187471+1053671765+1054277976+1055011438+1055856651
1548+1056617368+1057094103+1057337552+1057539199+1057784427+1058109324
1540+1058668966+1059229053+1059582919+1060017977+1060853407+1061878348
1531+1062484876+1062666383+1062808438+1063119357+1063543361+1063900785
1523+1064047986+1063952182+1063784842+1063692468+1063588278+1063386059
1514+1063233458+1063358614+1063775884+1064265515+1064657055+1065070450
1506+1065397569+1065288805+1064824522+1064042268+1062899414+1061561584
1497+1060471142+1059879544+1059518245+1059040430+1058245851+1057002682
1489+1055275789+1053145667+1050667270+1047746127+1044180464+1040001985
1480+1035595429+1030915247+1024791266+1015276585+1000517634+980994766+962295067
1470+948718168+937626527+925020060+908686182+890705714+878046262+874133658
1460+876553163+882832540+892356242+902739578+910514279+916582226+922430294
1451+928241640+933862522+939217972+943852285+947360706+949964196+951764657
1441+952350664+951509772+950049962+950258216+953938996+960137880+967689398
1431+976148134+984249001+990314344+994051539+996073786+996858136+996898161
1421+996881261+997373879+998429950+999603935+1000692661+1001840852+1003215530
1411+1004837723+1006530945+1008140559+1009772664+1011574014+1013326954
1402+1014689625+1015649130+1016292887+1016416962+1015642332+1013900954
1394+1011649933+1009439826+1007322919+1004948648+1001983796+998538461+995089504
1384+991657320+987737982+983064788+978147763+974095074+971860444+971727220
1374+973177818+975073321+976482877+977172503+977390477+977695933+978707723
1364+980867133+984203449+987988356+991344558+994097789+996451540+998564889
1354+1000526083+1002362566+1004068938+1005697040+1007361482+1009127192
1346+1010927335+1012626401+1014186779+1015729496+1017368525+1019014162
1337+1020486677+1021735120+1022773784+1023616138+1024335687+1025028426
1329+1025679870+1026166706+1026415238+1026459519+1026309078+1025868620
1320+1025079187+1024036521+1022847606+1021484364+1019944951+1018404267
1312+1017096868+1016148354+1015553008+1015182179+1014832950+1014383788
1303+1013861311+1013345759+1012888529+1012514206+1012246932+1012132831
1295+1012193629+1012348899+1012457663+1012451628+1012375327+1012292166
1286+1012166375+1011840081+1011165829+1010161726+1008979927+1007741650
1278+1006431964+1004910021+1003001812+1000621888+997765863+994315128+989921851
1268+984203449+977129811+969308224+961855307+955854384+951884857+949947360
1258+949638982+950392520+951629718+952773716+953283296+952854590+951564726
1248+949696223+947458607+944987452+942514137+940401105+939055651+938805277
1238+939707286+941485638+943771665+946335511+949015047+951598079+953898591
1228+955849747+957492397+958917582+960162975+961153991+961859373+962454973
1218+963166136+963969101+964621626+964986483+965178472+965384757+965670327
1208+966008501+966388542+966778748+967009809+966806575+965992238+964655614
1198+963101716+961575263+960010883+958103690+955652357+952758341+949652069
1188+946459650+943284511+940430838+938361896+937427486+937727033+939131507
1179+941279036+943622622+945670154+947220494+948369447+949346931+950341441
1169+951396623+952434906+953372429+954212369+955044177+955947965+956878373
1159+957721298+958512065+959486500+960855206+962590866+964408925+965866066
1149+966570177+966407665+965546061+964216236+962569138+960679226+958569180
1139+956254247+953836712+951511042+949412876+947513498+945739847+944143764
1129+942841130+941817205+940944801+940173475+939532831+938968805+938348554
1119+937591586+936640276+935331480+933427464+930763175+927293825+923026593
1109+917970309+912200194+905974182+899723583+893914587+888978313+885306491
1099+883111059+882270166+882457963+883405143+884895129+886613445+888261241
1089+889787059+891320945+892999300+895036413+897748921+901205946+904979989
1079+908492985+911551990+914364114+917114296+919751330+922190402+924469630
1069+926579676+928344814+929645352+930580143+931278918+931751840+932058249
1060+932399727+932903653+933475683+933975924+934380107+934697252+934877934
1050+934879014+934664915+934122553+933212031+932228956+931628019+931513918
1040+931571032+931544667+931511123+931605148+931711498+931530817+930846273
1030+929706087+928416350+927374255+926880367+927066894+927912297+929225731
1020+930651552+931847327+932789679+933897464+935764315+938715317+942603207
1010+946983461+951401642+955492958+958927684+961455190+963124905+964431986
1000+966087915+968527686+971685989+975281066+979082682+982773119+985872783
990+988126790+989794599+991325626+992880985+994299309+995376854+996075056
980+996531271+996926622+997364222+997864082+998364768+998709231+998779877
970+998682675+998648369+998786231+999081458+999534114+1000141532+1000865464
960+1001743459+1002845590+1004014175+1004889565+1005349908+1005703330
952+1006298104+1007132708+1007961403+1008619200+1009166771+1009828317
943+1010799892+1012035819+1013281974+1014369875+1015340243+1016230436
935+1016945093+1017435487+1017843989+1018344612+1018930492+1019460084
926+1019861217+1020137322+1020183572+1019821892+1019120512+1018449374
918+1018074479+1017912730+1017811271+1017833443+1018125240+1018698033
909+1019492421+1020535977+1021878890+1023363285+1024604739+1025338583
901+1025677646+1025854389+1025840539+1025488134+1024920106+1024493497
892+1024398709+1024494958+1024514971+1024315039+1023921530+1023371799
884+1022569723+1021379284+1019855499+1018247410+1016716573+1015206320
875+1013735774+1012661787+1012364209+1012748126+1013356305+1013891488
867+1014232077+1013979097+1012475325+1009369117+1004791791+998917167+991701982
857+983130606+973381942+962648234+951072680+938944091+926691554+914637360
847+902967844+892001931+882424228+875324986+871893056+872728485+877436240
837+885149316+895271604+907267159+919988998+931899804+941990199+950075629
827+956310217+960819438+963779780+965514042+966421197+966936622+967495756
817+968313079+969141202+969424930+968765926+967158980+964860882+962271115
807+959954912+958495039+958087553+958327064+958625150+958914215+959698565
798+961349348+963645603+966064853+968175281+969718379+970649866+971123488
788+971290510+971322784+971765593+973478445+976892714+981464830+986065345
778+989838626+992552404+994219451+994705270+993808407+991507832+988039054
768+983937827+980042758+977208779+975883846+975916882+976676455+977438824
758+977873692+978181625+978704420+979509862+980429787+981346218+982314109
748+983497877+985092181+987221795+989802222+992567461+995297885+997865098
738+999974509+1000966351+999863521+995729132+988673662+980929647+976001949
728+975722097+978525072+980926407+980081321+975402600+969433570+966992783
718+971176981+980006736+988511341+993508605+995374376+996096212+997085957
708+998730832+1000619791+1001686408+1000873596+998186056+994767975+991711766
698+989158529+986784513+984838757+984408209+986764691+992407300+1000446924
688+1008974527+1016284246+1021723621+1025475174+1027939849+1029423990
680+1030095955+1030077722+1029623731+1029175522+1029150808+1029633705
671+1030391309+1031271591+1032364892+1033506984+1034214779+1034430339
663+1034305565+1033861167+1033050452+1031800548+1029962922+1027606185
654+1025507511+1024871886+1026120583+1028315315+1030281401+1031900990
646+1033759328+1036016511+1038256223+1040033305+1041120888+1041602006
637+1041921947+1042466596+1043104508+1043478196+1043591598+1043810779
629+1044408349+1045221543+1045705456+1045464548+1044730513+1044108738
620+1043970241+1044254414+1044681468+1045051852+1045431448+1046071393
612+1047077720+1048087350+1048391345+1047704832+1046746407+1046575764
603+1047400393+1048533463+1049358092+1049800647+1050023322+1050200065
595+1050630359+1051667498+1053268155+1054792384+1055670506+1056063253
586+1056404222+1056646973+1056464576+1055938542+1055510662+1055336906
578+1055013026+1054005429+1052400071+1051089940+1050817012+1051254357
569+1051399525+1050656406+1048998445+1046015105+1040560864+1031696231
561+1019970617+1008056381+999944713+998475375+1002958548+1009754812+1015650591
551+1020161400+1024590318+1029773918+1035156178+1039556253+1042203324
543+1043079159+1042938121+1043146248+1044650973+1046821501+1048078583
534+1047688187+1046238924+1044751415+1043891717+1043321719+1041602832
526+1037998416+1034223483+1032257207+1031536197+1029788911+1025576569
517+1019789745+1014706778+1011916191+1011593836+1012987764+1015337194
509+1018697461+1023395495+1028594914+1032529563+1034284981+1034427417
500+1033789123+1032524227+1030804068+1029347182+1028668102+1028446125
492+1028163922+1027855162+1027815964+1028261187+1029517889+1031862808
483+1035041568+1038476421+1041606136+1043571141+1043544966+1041968578
475+1040293019+1039050993+1037360059+1035059421+1033642431+1034400670
466+1036977032+1039811646+1041834274+1043530227+1046083210+1049255617
458+1050981620+1050468927+1049363937+1048474380+1047390545+1046623221
449+1047293724+1049377342+1051850911+1053860706+1054887490+1054772562
441+1054577078+1056054867+1059731517+1063733064+1064666204+1061131671
432+1055471591+1051311916+1050652785+1053102721+1056785470+1059164061
424+1058512553+1056011158+1054979863+1057503749+1060687464+1061084531
415+1060152536+1059452363+1059107010+1059309165+1060274578+1060950863
407+1060416061+1060305327+1062623627+1065868840+1066557895+1060780537
398+1050228654+1041555120+1037808649+1037719389+1041051131+1047646002
390+1055484107+1062058966+1066909601+1071024359+1073741823+1073472580
381+1071399064+1069588565+1067972597+1065486068+1063706890+1065868840
##END=
