##TITLE=SG-V3046(X9927)
##JCAMP-DX=4.24
##DATA TYPE=INFRARED SPECTRUM
##DATE=25/9/2018
##SAMPLING PROCEDURE=Diamant-ATR
##ORIGIN=Lara
##XUNITS=1/CM
##YUNITS=TRANSMITTANCE
##RESOLUTION=4
##FIRSTX=3997.453
##LASTX=373.96442
##DELTAX=-1.4165319
##MAXY=0.84178478
##MINY=0.27114144
##XFACTOR=1
##YFACTOR=7.8397316e-010
##NPOINTS=2559
##FIRSTY=0.81067377
##XYDATA=(X++(Y..Y))
3997+1034058064+1034358759+1034204420+1033635571+1033033954+1032702696
3989+1032695930+1032901208+1033174228+1033371143+1033320279+1032925613
3980+1032383603+1032082300+1032137345+1032254734+1032207824+1032178553
3972+1032377749+1032630773+1032685286+1032696462+1033017000+1033667884
3963+1034367426+1034948135+1035469313+1035959016+1036237434+1036044168
3955+1035367587+1034618321+1034308351+1034549743+1034951708+1034989495
3946+1034496143+1033827164+1033539775+1033821462+1034277560+1034480861
3938+1034401563+1034216965+1034155989+1034478580+1035188158+1035816994
3929+1035886256+1035405145+1034694198+1034145269+1034074410+1034389094
3921+1034601747+1034360355+1033791811+1033295266+1033036159+1032846391
3912+1032597700+1032380866+1032318902+1032382158+1032480312+1032610625
3904+1032774848+1032887447+1032967125+1033170046+1033453254+1033525177
3895+1033230945+1032793551+1032747173+1033420410+1034280145+1034605397
3887+1034415476+1034092201+1033754709+1033414327+1033404139+1033923037
3878+1034484130+1034622503+1034482990+1034379971+1034466416+1034799498
3870+1035203820+1035157367+1034547158+1033962648+1033894602+1034060497
3861+1033809830+1033165028+1032757361+1033158566+1034615204+1036839887
3853+1038390117+1038170697+1037311722+1036768116+1036564738+1036448870
3844+1036204133+1035779283+1035338696+1035129844+1035234004+1035437989
3836+1035480185+1035395033+1035386138+1035491438+1035491438+1035224804
3827+1034859029+1034662038+1034652230+1034735710+1035018690+1035578795
3819+1036131829+1036478597+1036721510+1037037790+1037446294+1037678866
3810+1037444925+1036864672+1036440811+1036331710+1036198279+1036142626
3802+1036626930+1037344111+1037452756+1037055125+1036787047+1036783245
3793+1036679770+1036301830+1035975362+1036157603+1036810160+1037314384
3785+1037153430+1036526876+1036113430+1036377175+1037147652+1037714600
3776+1037659023+1037241624+1036840571+1036677869+1036981909+1037786295
3768+1038604290+1038952351+1038818388+1038365255+1037792149+1037454429
3759+1037553875+1037584514+1036874632+1035678013+1034959539+1035690405
3751+1037981005+1040063286+1040343224+1039517094+1038917530+1038980406
3742+1038849256+1037930598+1036539345+1035123838+1034160171+1034290561
3734+1035712530+1037511679+1038630216+1038786532+1038165375+1037146892
3725+1036411160+1036571125+1037375435+1037986099+1038094212+1038089118
3717+1038218672+1038294168+1038193050+1038185219+1038711339+1039755140
3708+1040674710+1040859765+1040188885+1039141663+1038571598+1038982610
3700+1039868271+1040371659+1040241650+1039704353+1039014543+1038338873
3691+1037881635+1037846738+1038068591+1038053841+1037709810+1037392617
3683+1037469863+1037977888+1038457250+1038463637+1038361226+1038942011
3674+1039742976+1039692873+1039338730+1039688767+1040451718+1040591079
3666+1040151707+1039787833+1039802735+1040072637+1040362612+1040681857
3657+1041191479+1041625908+1041395921+1040581119+1039791558+1039297902
3649+1038959193+1038982078+1039527434+1040017972+1039950991+1039400922
3640+1038721907+1038122647+1037682972+1037499742+1037477237+1037288382
3632+1037000764+1037443861+1039212066+1040895346+1040866759+1039902561
3623+1039136265+1038887498+1039155804+1039795436+1040229561+1040189342
3615+1040332580+1041117047+1041887676+1041833695+1041160307+1040406100
3606+1039563319+1038598968+1037951202+1038083036+1038982382+1040083585
3598+1040707099+1040602331+1040053326+1039570390+1039455738+1039692569
3589+1040113009+1040434535+1040432710+1040247732+1040095902+1039982391
3581+1039916246+1039994479+1040173756+1040275939+1040242866+1040029225
3572+1039404723+1038312187+1037274620+1037126592+1038098394+1039241793
3564+1039612358+1039218756+1038485229+1037902239+1037894940+1038473673
3555+1039183631+1039548798+1039426011+1038964744+1038439992+1038199969
3547+1038497318+1039154968+1039646191+1039723436+1039565372+1039365112
3538+1039172227+1039032637+1038965276+1038817552+1038450332+1038051560
3530+1037966788+1038161498+1038180657+1037834269+1037539657+1037761662
3521+1038410949+1038972346+1039053850+1038679483+1038141274+1037674457
3513+1037370569+1037334987+1037629219+1038048291+1038321463+1038535408
3504+1038948397+1039386248+1039250764+1038356360+1037315828+1036890522
3496+1037216610+1037771545+1038100751+1038326709+1038759846+1039333788
3488+1039729899+1039863101+1039918146+1040034395+1040181131+1040266131
3479+1040293349+1040392795+1040556637+1040439401+1039801138+1039042445
3471+1038757565+1038908102+1038998957+1038886510+1038853133+1039023666
3462+1039207352+1039241185+1039178613+1039191614+1039407612+1039693785
3454+1039607264+1038865754+1037828643+1037169700+1037115568+1037321226
3445+1037387980+1037188556+1036848174+1036686156+1036903523+1037205890
3437+1037127808+1036703187+1036375198+1036363642+1036512734+1036659166
3428+1036843612+1037186959+1037661456+1038025634+1038067146+1037889999
3420+1037811233+1037987164+1038342219+1038799229+1039329378+1039754836
3411+1039759398+1039266883+1038648919+1038324504+1038243609+1038006019
3403+1037468646+1037048282+1037301611+1038243153+1039228260+1039626271
3394+1039451937+1039153447+1039037883+1039117866+1039287562+1039433462
3386+1039489267+1039429280+1039156945+1038567492+1037851756+1037533955
3377+1038030652+1039202410+1040359799+1040744657+1040155129+1039122428
3369+1038349517+1038047835+1037946184+1037841872+1037892736+1038353547
3360+1039174051+1039983607+1040463730+1040613431+1040609630+1040586137
3352+1040618601+1040715994+1040766325+1040676611+1040558690+1040572984
3343+1040663534+1040673342+1040596553+1040541508+1040559755+1040625520
3335+1040662622+1040564468+1040308403+1040038804+1039941183+1040085866
3326+1040415224+1040760015+1040895803+1040758950+1040573060+1040599214
3318+1040815744+1041003992+1041085191+1041204708+1041453247+1041635792
3309+1041435076+1040832014+1040208501+1039943996+1040056747+1040323229
3301+1040587657+1040833763+1041091577+1041417285+1041835368+1042187914
3292+1042178867+1041733337+1041197789+1041003231+1041209954+1041528591
3284+1041733033+1041918848+1042321345+1042931325+1043440567+1043619387
3275+1043515988+1043177887+1042537039+1041786481+1041449977+1041766182
3267+1042288577+1042371980+1041932153+1041498484+1041525854+1041854071
3258+1042017609+1041921357+1041889881+1042178715+1042755166+1043433116
3250+1043938861+1044021580+1043711610+1043327512+1043160552+1043298849
3241+1043688877+1044196979+1044664861+1044976351+1045042193+1044831136
3233+1044471215+1044141934+1043860095+1043588747+1043492951+1043790680
3224+1044396859+1044953923+1045166424+1045029648+1044847102+1044998476
3216+1045548925+1046133816+1046323888+1046034370+1045567324+1045373755
3207+1045710031+1046394139+1046981311+1047217152+1047161347+1046927406
3199+1046608921+1046409573+1046475566+1046604891+1046484385+1046208704
3190+1046239648+1046803707+1047598665+1048160291+1048317139+1048228945
3182+1048124634+1048094602+1048067916+1047951820+1047799914+1047790563
3173+1047983220+1048179831+1048165917+1048057652+1048195493+1048608482
3165+1048846452+1048544009+1047943533+1047610070+1047766157+1048152992
3156+1048427229+1048472998+1048390811+1048366102+1048513142+1048743889
3148+1048880741+1048935406+1049089669+1049368087+1049607426+1049798335
3139+1050120241+1050568888+1050887373+1050941050+1050810736+1050495824
3131+1049898617+1049176646+1048764645+1048934114+1049498553+1050018895
3122+1050226073+1050217710+1050241355+1050379196+1050594814+1050988111
3114+1051659979+1052351842+1052593614+1052270948+1051753495+1051430448
3105+1051328417+1051207075+1050858482+1050261959+1049531853+1048823644
3097+1048278972+1047956762+1047808353+1047794288+1047956610+1048275399
3088+1048580503+1048729596+1048742141+1048688464+1048606353+1048618670
3080+1048937687+1049584161+1050212768+1050404893+1050073027+1049383749
3071+1048297599+1046479139+1043719213+1040175732+1036229907+1032532392
3063+1030090570+1029644509+1030849719+1032582571+1034043087+1035111217
3054+1035821023+1036142473+1036229679+1036350869+1036542614+1036584126
3046+1036253172+1035456388+1034206853+1032615263+1030845157+1028936223
3037+1026668432+1023728469+1020031258+1015796522+1011465838+1007775698
3029+1005687259+1005813771+1007830591+1010662440+1013345654+1015556727
3020+1017286765+1018394431+1018763475+1018574696+1017990793+1016710390
3012+1014089825+1009541546+1002802113+994302990+985532520+978613963+975061511
3002+974869082+976824698+979550412+982093276+983787428+984193423+983390405
2992+981807635+979585689+976604443+973228530+970504337+969467759+970484950
2982+973173105+976688531+980084591+982520254+983317265+982063168+978732797
2972+973637185+967270370+960236629+953219083+946888381+941751790+937999915
2962+935446407+933607799+931878597+929753968+927003165+923651354+919779200
2952+915274790+909631162+901990026+891695404+879057418+865514384+852880504
2942+842272719+833594700+825910836+818241721+810075149+801390288+792493762
2932+783863414+775933596+768829680+762255914+755716818+748973203+742397384
2922+737030274+734407732+736127810+743109319+754973179+770182919+786863059
2912+803513472+819148062+833112829+844948025+854350523+861219586+865678379
2902+867873866+867675963+864763598+859140346+851489555+843043044+835231679
2893+829412424+826697203+827800003+832830229+841097692+851264737+861917987
2883+872054165+881099632+888738183+894868320+899616251+903281606+906217539
2873+908660653+910606005+911922598+912633773+912952182+912963738+912459134
2863+911200095+909174456+906381533+902469845+896768511+888718795+878397639
2853+866879788+856236877+848992156+847125798+851116785+859711856+870714839
2843+882222731+893268899+903560404+913014906+921655898+929611718+936907227
2833+943331063+948672552+953011296+956601762+959537163+961646738+962585391
2823+961852396+958793600+952733030+943303845+931089873+918213156+907916177
2813+902976501+904257361+910598326+919797447+929724697+938957879+946838278
2803+953228738+958334157+962546617+966159055+969234958+971820170+974067205
2793+976038179+977651133+978953737+980180388+981427034+982558421+983521783
2783+984473057+985508799+986494895+987219679+987592600+987716071+987868966
2774+988348100+989217187+990248519+991177137+991957802+992731700+993591131
2764+994456265+995205226+995872836+996629932+997550794+998498495+999282810
2754+999835844+1000192344+1000421571+1000645932+1001006309+1001525511
2745+1002076493+1002519665+1002825454+1003058635+1003292956+1003547425
2737+1003823334+1004177172+1004655774+1005159846+1005541055+1005846159
2728+1006231854+1006640586+1006841682+1006813247+1006784737+1006880913
2720+1007016321+1007175069+1007510433+1008088101+1008723246+1009171589
2711+1009393746+1009529913+1009640916+1009646162+1009585947+1009730326
2703+1010222917+1010789941+1011040380+1010948461+1010816855+1010835482
2694+1010917822+1011000085+1011245582+1011785844+1012429885+1012867584
2686+1013036976+1013079248+1013086243+1013098103+1013196409+1013427613
2677+1013741004+1014078953+1014417585+1014719800+1014952753+1015142825
2669+1015342858+1015566155+1015761853+1015839098+1015740641+1015522286
2660+1015350004+1015398283+1015694491+1016011988+1016010164+1015624925
2652+1015203801+1015076604+1015125643+1015003084+1014649626+1014335322
2643+1014258533+1014330380+1014367939+1014345814+1014369079+1014475900
2635+1014578311+1014598002+1014572152+1014627577+1014895123+1015414249
2626+1016122534+1016942050+1017785515+1018475174+1018871132+1019087815
2618+1019350723+1019651798+1019767894+1019573868+1019170154+1018755036
2609+1018500491+1018524212+1018893865+1019592723+1020466143+1021274331
2601+1021847893+1022187591+1022417730+1022614645+1022660643+1022380324
2592+1021905903+1021696444+1022045340+1022696300+1023064736+1022792173
2584+1022069746+1021428290+1021235024+1021504090+1022142277+1023051964
2575+1023949029+1024437287+1024383382+1024015098+1023673348+1023643165
2567+1024075009+1024844878+1025591102+1026047199+1026237576+1026302048
2558+1026302429+1026299159+1026438444+1026810758+1027294986+1027667072
2550+1027837225+1027935606+1028168787+1028610895+1029153286+1029639415
2541+1029947788+1029909849+1029347692+1028409038+1027705847+1027834716
2533+1028807126+1030091787+1031053097+1031257386+1030682075+1029832376
2524+1029371489+1029429651+1029509101+1029210003+1028753373+1028565354
2516+1028591356+1028381288+1027770015+1027110768+1026790610+1026820034
2507+1026966693+1027099136+1027309204+1027742949+1028328676+1028773673
2499+1028908016+1028862095+1028812144+1028813588+1028959184+1029348224
2490+1029793829+1029918745+1029666329+1029429347+1029601324+1030225978
2482+1031089286+1031903024+1032347185+1032203718+1031617231+1031093316
2473+1031040932+1031392794+1031848283+1032312364+1032792411+1033082765
2465+1033019737+1032900904+1033177573+1033846780+1034506787+1034845952
2456+1034836296+1034670705+1034637861+1034842151+1035056780+1035062482
2448+1034956498+1034906395+1034866784+1034757530+1034667740+1034691841
2439+1034741792+1034652002+1034367882+1033964092+1033519779+1033049388
2431+1032595876+1032330839+1032452333+1033018064+1033901293+1034777602
2422+1035197662+1034948515+1034342869+1033867612+1033626448+1033446411
2414+1033383536+1033693505+1034352144+1034968359+1035217201+1035166338
2405+1035117756+1035241759+1035440955+1035505503+1035298476+1034824132
2397+1034237112+1033792951+1033723765+1034092809+1034704538+1035202452
2388+1035382564+1035367815+1035340596+1035215149+1034792200+1034154621
2380+1033679212+1033653058+1034028565+1034578026+1035145734+1035681890
2371+1036192957+1036806206+1037671187+1038589465+1039000933+1038584295
2363+1037645794+1036818295+1036621988+1037233261+1038295765+1039060160
2354+1039073465+1038558521+1037879735+1037046686+1036027442+1035122013
2346+1034705907+1034639001+1034396697+1033926914+1033577485+1033533389
2337+1033981427+1035093046+1036504599+1037511679+1037770329+1037337952
2329+1036356875+1035058681+1033716770+1032555808+1031949478+1032316165
2320+1033452570+1034528455+1035049710+1035200323+1035195457+1034983869
2312+1034656260+1034551872+1034770151+1034950948+1034771064+1034429998
2303+1034388030+1034733429+1035106655+1035248449+1035301746+1035513562
2295+1035982585+1036736259+1037615838+1038069199+1037564823+1036264576
2286+1034862298+1033855143+1033369090+1033465039+1034136374+1035100649
2278+1035844592+1035892034+1035190591+1034367578+1034301889+1035224500
2269+1036456245+1037137464+1037067518+1036787731+1036905956+1037460131
2261+1038034454+1038302075+1038219204+1037885437+1037547488+1037657198
2252+1038586424+1040072941+1041055235+1040526606+1038787748+1037433445
2244+1037838223+1040018657+1042934670+1045329430+1046313396+1045729418
2235+1044149461+1042400871+1041085419+1040396749+1040175961+1040195728
2227+1040463882+1041089676+1041896343+1042514154+1042858033+1043072511
2218+1042998839+1042263411+1041106707+1040501669+1041000266+1041868289
2210+1041833543+1040525922+1038880960+1038216239+1039134820+1041314646
2201+1044023633+1046458307+1047763496+1047400686+1045713300+1043747800
2193+1042318456+1041475979+1041041018+1041309628+1042652223+1044674517
2184+1046573111+1048039025+1048874203+1048444411+1046833434+1045615679
2176+1046024486+1047108127+1046807508+1044245789+1040403059+1037292791
2167+1036609443+1038368905+1040955181+1043141545+1045480727+1048730204
2159+1051804814+1053190974+1053282741+1052935897+1051625994+1048996990
2150+1046431241+1045499050+1046115189+1047366701+1048888344+1050377067
2142+1050973666+1050237326+1049000183+1048451178+1048816117+1049466164
2133+1050042920+1050845937+1052054189+1053126729+1053341359+1052663333
2125+1051757828+1051279074+1051413189+1051913308+1052331391+1052341807
2116+1051923191+1051183734+1050236413+1049382152+1048956010+1048821515
2108+1048577386+1048236776+1047986033+1047601326+1047016892+1046877303
2099+1047563312+1048385641+1048473378+1047747910+1046706618+1046019925
2091+1046230221+1047097863+1047674010+1047598437+1047588021+1048217161
2082+1049108372+1049695391+1049974037+1050199007+1050512322+1051042928
2074+1051828535+1052545792+1052787108+1052594071+1052279159+1051893540
2065+1051482300+1051678606+1053174095+1055564977+1057579060+1058588040
2057+1059075765+1059374027+1058997380+1057808515+1056870470+1057404041
2048+1059316093+1061153636+1061388262+1059687950+1057227426+1055667160
2040+1055519816+1055981844+1056471090+1057414989+1059277242+1061630110
2031+1063506352+1064232884+1063994381+1063759224+1064281771+1065071635
2023+1064842028+1063018778+1060309259+1057992353+1057177247+1058288182
2014+1060632458+1062876908+1064243072+1064721750+1064198443+1062563517
2006+1060776381+1060377609+1061733509+1063842704+1065650368+1066820073
1997+1067425719+1067433398+1066693637+1065509714+1064857690+1065239507
1989+1065644893+1064865141+1063410023+1062745606+1062852275+1062157674
1980+1060079956+1058131258+1057792017+1058563178+1059122827+1059001029
1972+1058244541+1056856633+1055076948+1053380970+1052164279+1051781549
1963+1052353819+1053343792+1053963808+1054108643+1054302061+1054853651
1955+1055626713+1056311353+1056552441+1056134206+1055218665+1054268456
1946+1053781110+1054004559+1054610890+1054786745+1054139967+1053225263
1938+1052830216+1053215531+1054042878+1054736718+1054870453+1054316354
1929+1053249060+1052168157+1051643481+1051728861+1051837051+1051491955
1921+1050994346+1050919077+1051262728+1051455537+1051171645+1050684148
1912+1050284236+1049752109+1048574497+1046588089+1044057542+1041193304
1904+1038062964+1034882598+1031978141+1029439306+1027019990+1024424134
1895+1021765630+1019786901+1019392387+1020884987+1023602869+1026378153
1887+1028700381+1030860591+1032880832+1034265319+1034865415+1035175538
1878+1035660906+1036354442+1037100894+1037753755+1038212817+1038565820
1870+1039189865+1040418493+1041954505+1043130445+1043715412+1043960149
1861+1044190288+1044533559+1044901159+1045125368+1045156084+1045131527
1853+1045193718+1045341290+1045579489+1046049652+1046887871+1048055295
1844+1049156726+1049466088+1048686107+1047269308+1045805827+1044578948
1836+1043541381+1042634432+1042006433+1041824192+1041987958+1042214068
1827+1042489445+1043028642+1043756011+1044328129+1044666001+1044988668
1819+1045455866+1046096106+1046878671+1047684578+1048306571+1048542413
1810+1048385185+1048164017+1048256468+1048677592+1049172084+1049544398
1802+1049707784+1049588799+1049195501+1048607189+1047872522+1047152832
1793+1046812982+1046944893+1046967321+1046501948+1045884365+1045492132
1785+1045298030+1045092676+1044944723+1045154791+1045804687+1046641613
1776+1047402587+1048013555+1048503106+1048847593+1048915791+1048628477
1768+1048077572+1047483025+1047047304+1046783863+1046488263+1045957885
1759+1045302592+1044813878+1044617495+1044618939+1044736404+1045030560
1751+1045460504+1045607240+1045063709+1044009263+1042936647+1042171644
1742+1041759187+1041617773+1041612451+1041542124+1041378586+1041464347
1734+1042154690+1043001424+1043370088+1043382481+1043334659+1043367199
1725+1043553166+1043817518+1043893852+1043706592+1043662267+1044377472
1717+1045833730+1047050877+1047539971+1047546966+1047268472+1046814655
1708+1046351487+1046009433+1045720143+1045320154+1044813345+1044203593
1700+1043135767+1041122369+1037919042+1033441470+1028358099+1023630924
1691+1019527338+1016132342+1013735074+1012613723+1013330980+1016428399
1683+1020248929+1022882951+1024826707+1026789470+1029032324+1031666878
1674+1034316791+1036397931+1038047987+1039645355+1040849881+1041179695
1666+1040955713+1040732112+1040788602+1041005968+1041069225+1040917851
1657+1040747014+1040893370+1041904326+1043734039+1044526868+1043914835
1649+1043093723+1042860314+1043427338+1044197055+1044736936+1045176612
1640+1045667302+1046268311+1047195332+1048757575+1050485408+1051473632
1632+1051810440+1052005531+1052383242+1052992082+1053653230+1054259028
1623+1054866347+1055373612+1055528179+1055320848+1054959483+1054540487
1615+1053915073+1053063777+1052167700+1051287817+1050163426+1048329912
1606+1045400365+1041033871+1034712293+1025833634+1014134302+999991475+984410637
1596+969078414+956474261+949148798+948195167+952707940+960709301+970273057
1587+980040038+989069234+996521743+1001710870+1004455818+1005039644+1003452084
1577+999228069+993486211+989057830+987261038+988684756+993820435+1000938644
1567+1007518948+1013050813+1017540474+1020754065+1023360869+1027199190
1558+1032072340+1034369783+1034398294+1033900836+1033128915+1031209944
1550+1026757842+1018495245+1005303085+986511469+964255443+945195597+938416553
1540+948969978+966317804+979490273+989646674+1000087120+1010462864+1018103392
1530+1022996690+1026979846+1031058191+1035075027+1038720919+1042280365
1521+1045848631+1048675615+1050585386+1052383014+1054383107+1056140592
1513+1057473684+1058572302+1059532699+1060555593+1061608593+1059872321
1504+1051342710+1033429989+1003291055+962153167+923173132+908739723+924999879
1494+951336302+971199546+984244362+994962465+1004605975+1011582086+1015923110
1485+1018932336+1021356670+1023324983+1024756456+1025687659+1026252554
1476+1026378762+1025610869+1023123507+1018396180+1012068900+1004673033
1468+995375150+982584879+966239494+949528410+935162211+922206348+907684365
1458+890391280+876479885+870765855+868125750+862785706+852227491+838135072
1448+826899744+824974844+831713668+839798129+841353377+833644271+820680881
1438+810366340+810515813+821551717+837361858+854919524+872866154+886343271
1428+890056372+885000296+878194946+877685172+886633550+902679532+921260320
1418+935435230+939359844+932628394+916761612+895120888+875649193+867387053
1408+873343768+889753853+910137743+928300371+941164163+949036275+952614957
1398+951762140+946712222+939010263+931651803+927604098+927670319+931227637
1388+937532717+945245548+952503422+958584901+964038912+969441681+974838595
1378+979940288+984530839+988585386+991976961+994471166+996307265+998181834
1368+1000495775+1003036662+1005531856+1008129688+1011012097+1013821519
1360+1016001572+1017460339+1018394735+1018856687+1018724321+1017902448
1351+1016363546+1014122289+1011307622+1008125127+1004752711+1001338024
1343+997831341+993594857+987300497+977710588+965169007+952185925+942497178
1333+939441575+944156206+954771441+967576539+979107695+987389831+991929823
1323+993158907+991746137+988087549+982767196+977711728+975905965+979232839
1313+986922786+996277234+1004857251+1011791242+1017283800+1021739248+1025490059
1303+1028791160+1031726865+1034207689+1036132742+1037469102+1038205671
1295+1038356056+1038007311+1037354299+1036716340+1036418154+1036544210
1286+1036889610+1037206270+1037366083+1037316436+1037080518+1036792825
1278+1036565727+1036321446+1035819198+1034811967+1033144272+1030752326
1269+1027612255+1023699882+1019076411+1014086099+1009411688+1005831638
1261+1003891227+1003722443+1004993571+1006979903+1008806042+1009747052
1252+1009336116+1007227301+1003082584+996709230+988360797+978952140+969959286
1242+962908058+958714530+957381895+958226652+960326648+962865710+965336042
1232+967632952+969967193+972607601+975682440+979175209+982980153+986897164
1222+990662953+994068137+997013194+999458208+1001382349+1002762958+1003501427
1213+1003389664+1002200268+999768102+996018127+991091832+985501501+980012440
1203+975382049+972360279+971805496+974318100+979425192+985271741+989453257
1193+990276422+987307644+981024841+972187694+961462064+949523848+937484058
1183+927035858+920046898+918099645+922050565+931124542+942186828+950674166
1173+952952753+948154947+938447497+928095169+921604047+921390785+926438727
1163+933206290+938254611+940518069+941358721+942694929+945468237+949846439
1153+956063629+964402863+974649206+986097339+998036695+1009966852+1021447905
1143+1032014482+1041291305+1049104571+1055457853+1060443678+1064159896
1135+1066606279+1067632062+1067035919+1064550837+1059366272+1049299889
1126+1030056509+995798099+943221430+878426454+819312437+786772661+790379549
1116+822809464+867748722+911383857+947263356+974476773+994384949+1008847706
1106+1019755881+1028772609+1036828102+1043788551+1048591831+1049754162
1098+1046496094+1040220514+1034574909+1033203575+1037256906+1045094729
1089+1053912564+1061448324+1066758869+1070062783+1072030792+1073177764
1081+1073737641+1073741823+1072999629+1071090010+1067504561+1061786805
1072+1053531659+1042255732+1027204588+1007232851+980917108+946878802+904115719
1062+852239504+791687095+723983328+651912080+579310833+510499173+449745934
1052+400883240+366738303+348541271+345855511+356854389+378461242+406664214
1043+437458403+467940874+496712998+523439982+548223400+571361058+593298028
1033+614350136+634447131+653296871+670692443+686559986+700947474+714171946
1023+726827267+739420700+751967527+764058256+775391053+786128163+796647755
1013+807119980+817483028+827648249+837523647+846941124+855737823+863892231
1003+871473532+878402581+884295584+888543244+890379799+888864391+883390231
993+874875675+865997396+858765144+851232881+838026731+816052544+789761358
983+769405295+763453750+772830627+791775061+813018001+832216600+848930345
973+864710834+880590770+896065775+909921288+921447047+930602147+937447792
963+942070884+944954509+946731077+947434421+946516296+943741468+939569076
953+934485173+928536821+921701972+913717185+903156234+888487591+871269242
943+856180160+846111572+839531648+834675908+833503085+838436679+846838637
933+851672024+847917031+837514524+827493682+822361577+817812386+802727333
924+768401637+716369031+657909014+606515621+570429475+550810170+544856040
914+549349427+561958293+580911280+604259652+629252188+652323700+670018295
904+680432586+684238138+684373622+684241788+685509266+687094089+686159922
894+680723321+672253545+665859968+667027544+677208655+692082196+703713026
884+704604009+691389192+666831846+638917214+616948159+607139438+610807340
874+625579534+647548323+672706526+697651087+719975311+738286500+751872186
864+760554387+765039790+767261431+769987145+775607508+784850497+796500107
854+808451703+819138254+828039950+835113758+840132352+842710950+842697493
844+840235980+835624901+829502215+823117837+818038952+815444997+815662287
834+818165464+821958092+826098779+829919918+832918575+834839294+835878001
824+836486309+837038203+837846770+839209741+841191131+843546356+845882269
815+847598470+847589194+844153903+835324054+819337754+794892171+761324028
805+719356664+672290951+626412583+589941921+570799432+573222208+594509740
795+625322594+654778979+676546519+690897513+701827737+712800765+724752361
785+736841494+748032725+757751428+765590315+771141416+774327788+775591085
775+775598764+774944003+774131482+773575786+773486984+773911454+774996083
765+777155153+780945499+786827554+794927448+804791290+815382197+825517918
755+834190615+840168846+841321141+834554413+816833665+787314215+749541139
745+711523250+682532961+668530560+669697909+681553405+698279770+715733049
735+732178031+746776499+757685663+762169241+759329636+752222376+745303590
725+738477941+724280602+692935544+642728088+586698185+546366849+535966129
715+553795979+587536176+624596936+658144324+686616627+710514879+730621263
705+747805931+762701216+775197103+784681713+790838156+794276108+796675886
696+800196862+806311413+815032312+825123860+834884531+843068210+849531277
686+854898996+859468183+862656761+863398803+860400450+851939266+836606738
676+815635069+794638766+780996438+778493566+787115779+805155621+825149102
666+838084437+843894264+845347709+843129641+836857634+826182411+811208893
656+793036152+773285128+752619475+730440162+706769769+684614405+669596486
646+666246271+674575697+690225113+707930579+725094795+742281516+760876825
636+780273403+797039380+807972645+814468405+821855376+833516771+847547454
626+860160046+870417490+879991434+889657905+898149957+904113818+907750282
616+910334886+912876989+915708459+918861759+922051705+924620191+926317841
606+927819716+929773812+931864532+933455893+934543487+935441465+935825183
596+934559833+930559115+923458696+912721282+896010426+869689209+832111452
586+787292547+745947327+720998508+719618279+738885912+768774027+799756046
577+827378118+850478522+868064775+878801733+881901357+877961233+869469561
567+860219577+853671737+851614850+853896098+858785443+863445333+864559841
557+859198280+845627115+823870599+795920386+765399254+736637508+713672740
547+699817075+697341193+706362786+724049017+745789872+767389996+786460030
537+802489894+816070259+828048161+839110599+849667749+859592490+867647148
527+871110798+866018380+847208213+808241711+744646016+661644924+578831509
517+521212638+501354793+514300506+548413662+593532616+641737507+687351295
507+726848251+758246680+781398555+797645179+808331806+814314599+816256530
497+814568383+810073096+805134105+803057374+805943357+813525190+824080439
487+835754606+846974120+856732130+864979597+872299738+879125540+885403782
477+890522810+892509826+886690951+867883066+839148690+814990420+808436954
467+820222351+841114646+860712473+874210346+882269793+887704721+893121175
458+899668330+906407687+911261679+912762490+911244572+908940515+907549566
448+906261788+903250434+897526671+888477023+875632011+860021522+843811088
438+828837646+816903536+809974639+808702371+812054638+818899828+828599143
428+840027128+851454201+861618129+870112690+876821787+881270316+882141228
418+878451696+871578300+863006570+852945205+841545882+829268502+816714832
408+805247996+796987756+793359123+794321726+799002523+806519884+816500811
398+828440775+839569358+846597017+850193413+853339187+856681571+857502151
388+853971063+848924642+847257100+849103158+849854856+848152264+846266595
378+845604611+846928199+851988609+858722035
##END=
