##TITLE=X9320
##JCAMP-DX=4.24
##DATA TYPE=INFRARED SPECTRUM
##DATE=5/11/2018
##SAMPLING PROCEDURE=ATR platinum Diamond 1 Refl
##ORIGIN=ComPlat
##XUNITS=1/CM
##YUNITS=TRANSMITTANCE
##RESOLUTION=4
##FIRSTX=3997.453
##LASTX=373.96442
##DELTAX=-1.4165319
##MAXY=1.0657715
##MINY=0.37398911
##XFACTOR=1
##YFACTOR=9.9257702e-010
##NPOINTS=2559
##FIRSTY=1.0128894
##XYDATA=(X++(Y..Y))
3997+1020464270+1020232235+1019634013+1019069779+1018910646+1019327636
3989+1020180832+1021035229+1021482364+1021472396+1021250569+1021003282
3980+1020682132+1020121982+1019221827+1018101046+1017185037+1016946517
3972+1017421036+1018182955+1018869091+1019476441+1020032868+1020270907
3963+1019989031+1019543697+1019446896+1019597262+1019559430+1019374715
3955+1019334842+1019152649+1018124586+1016234800+1014652112+1014552668
3946+1015456907+1015856122+1015449341+1015504587+1016757719+1018287803
3938+1019007327+1018659995+1017267787+1014857844+1012160981+1010760606
3929+1011433891+1012994841+1013760483+1013485573+1013367514+1013993719
3921+1014387169+1013695629+1012654115+1012892635+1014899279+1017489253
3912+1019390929+1020255414+1020074903+1018333561+1014301417+1008262029
3904+1002286414+998899271+998783134+1001219138+1005307489+1009552152+1012103212
3894+1011985153+1010116986+1009302942+1010982312+1012778419+1011891715
3886+1008602995+1005853347+1004858132+1004651138+1005805487+1009049770
3877+1011969420+1011596507+1007801442+1003099196+999825248+999191056+1001349267
3867+1004040666+1004567368+1003162909+1003038965+1005923726+1009608599
3859+1011393657+1010356707+1006246437+998951275+992706454+994537751+1002024414
3849+1009250458+1013548626+1014382726+1012154496+1007755804+1002360156
3840+997333397+994493253+995425175+999256090+1003428933+1006668171+1009157260
3830+1011107457+1012096607+1011771614+1010492541+1008449146+1004748660
3822+999366643+995866906+996964207+1000131145+1003235030+1007014182+1011608397
3812+1015334644+1016748591+1015419075+1012249375+1009490420+1007985196
3803+1005874365+1002407716+1000467007+1002122776+1005505956+1009100573
3795+1012918817+1016531929+1019016815+1020128588+1020150686+1019121062
3786+1017212300+1015587216+1015295972+1015524404+1014916574+1014093643
3778+1014949962+1017442173+1019600745+1019855959+1017781698+1014162821
3769+1010945441+1009584819+1009817334+1011056894+1012735303+1013380364
3761+1011609118+1008218192+1006049892+1006145613+1006123574+1003134866
3752+996462906+989612837+988189943+991231616+993725629+994016393+994431642
3742+997298087+1000885078+1002307431+999824708+993671524+987847776+988029609
3733+994484126+1002341780+1007726499+1009406229+1007883231+1005033119
3724+1003251183+1003706305+1006048451+1009268473+1012157378+1013675212
3716+1013116743+1009971183+1004612706+1000235452+1001184429+1006775781
3707+1012806403+1016452903+1016840348+1014767649+1012845435+1013301939
3699+1015357223+1017049083+1017476522+1016233839+1012490297+1005927930
3690+998976676+996686774+1000571494+1006789233+1012101891+1015273873+1015730136
3680+1013357305+1008258426+1000407016+992141079+989447278+992670123+995954640
3670+997314781+1000213174+1006488320+1013030150+1017025904+1018185717
3662+1017686939+1016564597+1014940714+1012875461+1011250377+1010315512
3653+1008045727+1001829430+991521479+983160182+984580434+993094199+1001734250
3643+1007734906+1011264068+1013290529+1014409388+1014468598+1013209341
3635+1011052811+1008771136+1006087484+1001619674+996172563+995063672+999939704
3625+1005873104+1009013980+1008045247+1003362997+997796385+995321348+996206191
3615+997657849+998446491+999187213+999794923+999514848+999331814+1001165513
3605+1004354790+1006322941+1005927389+1004367640+1003337656+1003047613
3597+1002916883+1003166512+1004419764+1006062503+1006189750+1003365519
3588+998786797+996747245+999349769+1003580980+1006323662+1006980193+1006446525
3578+1005748800+1005481155+1005868540+1006734887+1007233966+1005855269
3570+1001126060+993377757+986885889+986694148+991620442+997001498+1000481839
3560+1002307431+1003317599+1003554138+1002528657+1000281391+997816682+996150224
3550+994815123+992312463+988315509+984739567+983654096+984535096+985064320
3540+983529852+979758387+974698360+969377775+964023441+958316972+952349524
3530+947009002+943475997+942315943+943228829+945858977+950212210+955908471
3520+961802237+966803535+970587070+973403133+975534742+977045310+978014103
3510+978910716+980290494+981834689+982393338+981478711+980289413+980592067
3500+982532055+984571546+985434831+985291911+985163223+985554211+985972582
3490+985688484+984711824+983938075+984117926+984824479+985041020+984673212
3480+984628895+985237025+985742349+985685001+985599369+985928565+986155556
3471+985644407+984708041+984232502+984557735+985171570+985418557+985183160
3461+984863391+984892756+985354123+985898060+985995341+985413153+984375482
3451+983136402+981713628+980241612+979120111+978494746+978102557+977797802
3441+977655302+977595011+977368321+976781929+975718617+974242398+972734772
3431+971557544+970655948+969780353+968814082+967601905+965849154+963555288
3421+961316970+959847957+959277358+959135879+958858146+958114602+956912814
3411+955599211+954639246+954275220+954387154+954600513+954498788+953955572
3401+953275441+952866198+952904029+953367678+954096690+954809849+955397442
3391+956108439+957140705+958231881+958988215+959481469+960240026+961660218
3381+963611976+965655611+967435685+968790722+969761377+970644718+971805072
3371+973257871+974627801+975604581+976247721+976811294+977507938+978484838
3361+979764752+981154679+982487858+983933391+985697311+987500445+988819512
3352+989557351+990004366+990331701+990600126+991063475+991975820+993135934
3342+993957364+994100524+993886804+993934965+994456623+995145341+995723986
3332+996280713+996998256+997834998+998594395+999189374+999728987+1000339760
3322+1000992448+1001606823+1002265516+1003116190+1004039885+1004621353
3313+1004590367+1004190312+1003980315+1004312094+1005071611+1005853347
3305+1006331108+1006502672+1006599113+1006774340+1006970165+1007078195
3296+1007080297+1007023850+1006992443+1007112424+1007485817+1008091846
3288+1008772097+1009340654+1009758004+1010151334+1010599791+1010993721
3279+1011222994+1011369397+1011543783+1011636501+1011482291+1011231881
3271+1011242450+1011555553+1011858807+1012039079+1012332725+1012845676
3262+1013371837+1013750035+1013998763+1014134597+1014177473+1014244730
3254+1014477485+1014947920+1015554669+1015910528+1015644505+1014956327
3245+1014490696+1014551587+1014841270+1015018659+1015087597+1015185720
3237+1015326598+1015435289+1015512153+1015673089+1016004206+1016430324
3228+1016802156+1017035152+1017046081+1016716404+1016107493+1015579290
3220+1015458589+1015662279+1015873897+1016002045+1016202973+1016529888
3211+1016876499+1017247970+1017760200+1018317828+1018591538+1018400217
3203+1017928942+1017497300+1017234759+1017065657+1016938591+1016943875
3194+1017175309+1017578247+1017968575+1018127108+1017959808+1017672406
3186+1017655232+1018042317+1018521879+1018691101+1018466993+1018141160
3177+1018124706+1018521759+1018934306+1018941752+1018673447+1018569439
3169+1018724369+1018895993+1018987750+1019092839+1019211378+1019249330
3160+1019200809+1019141479+1019159855+1019373634+1019882862+1020618959
3152+1021308098+1021653988+1021576283+1021270266+1021034868+1021014932
3143+1021069818+1020899395+1020368189+1019710397+1019324753+1019334121
3135+1019461908+1019395132+1019137516+1018899957+1018808200+1018870532
3126+1019065215+1019290044+1019381080+1019309020+1019184475+1019026423
3118+1018754755+1018445495+1018340287+1018549863+1018935627+1019280436
3109+1019431042+1019307939+1018948117+1018564395+1018438169+1018664919
3101+1019038073+1019239722+1019125986+1018780817+1018375717+1018098884
3092+1018134194+1018507828+1018942352+1019035430+1018655431+1018056249
3084+1017574404+1017357382+1017424158+1017771129+1018294048+1018754755
3075+1018986429+1019065696+1019181833+1019364026+1019430562+1019205974
3067+1018734698+1018220186+1017777495+1017359304+1016965013+1016764444
3058+1016901720+1017288204+1017670004+1017792147+1017501983+1016857523
3050+1016150849+1015693145+1015580371+1015682096+1015752715+1015606793
3041+1015313627+1015102370+1014953324+1014532131+1013657797+1012563919
3033+1011642626+1011172191+1011232242+1011631336+1012004490+1012151373
3024+1012187043+1012287447+1012445620+1012546505+1012510114+1012263787
3016+1011723934+1010972343+1010361391+1010225316+1010497225+1010755802
3007+1010632578+1010045526+1009088562+1007865096+1006506756+1005248099
2999+1004254626+1003361256+1002280229+1001108825+1000230048+999658428+998950374
2989+997776509+996149984+994172164+991991494+989917473+988218407+986902463
2979+985878844+985110259+984353684+982975287+980492923+977430954+975212992
2969+974839359+975877030+977000272+977197057+976172057+974047894+971234653
2959+968434864+966337303+965249430+965042016+965277053+965349895+964799172
2949+963714782+962774813+962742867+963894153+965830238+967740861+968912565
2939+969101003+968482123+967393530+966209876+965284440+964866609+965165960
2929+966433144+968729291+971621138+974323225+976194516+977018227+976900048
2919+976141371+975334474+975380893+977033000+980252181+984173893+987787065
2910+990563255+992491533+993741182+994410864+994526881+994090555+992987610
2900+991000422+988177933+985116744+982608019+981004613+980071310+979368119
2890+978624395+977799543+976978234+976257028+975626559+974943606+974174841
2880+973643395+973779889+974665273+976101017+978026834+980484456+983260466
2870+985970420+988449601+990770309+992971636+995044156+997084728+999213515
2860+1001373888+1003349846+1004945746+1006110783+1006975989+1007798920
2851+1008773298+1009891917+1011038039+1012114982+1013024626+1013652152
2843+1013955407+1014004288+1013944958+1013972581+1014251335+1014790588
2834+1015445618+1016018859+1016347575+1016426481+1016492656+1016813085
2826+1017354980+1017845952+1018153290+1018389168+1018661917+1018945835
2817+1019185196+1019339165+1019379639+1019404380+1019639657+1020156812
2809+1020712998+1021035109+1021125545+1021169141+1021291764+1021513470
2800+1021804835+1022113614+1022400054+1022649383+1022833498+1022901835
2792+1022848631+1022779813+1022862322+1023149363+1023467270+1023589773
2783+1023536688+1023567434+1023841384+1024205409+1024403936+1024404777
2775+1024388083+1024455099+1024538929+1024607507+1024731811+1024902594
2766+1025007202+1025033384+1025090792+1025184231+1025182549+1025051519
2758+1024936223+1024953637+1025057524+1025166696+1025261456+1025287638
2749+1025164174+1024986905+1025003359+1025267941+1025555342+1025701865
2741+1025763237+1025787137+1025755430+1025759273+1025918887+1026148880
2732+1026264537+1026229828+1026080183+1025772485+1025329313+1024968890
2724+1024909320+1025140754+1025470191+1025708951+1025790259+1025758913
2715+1025670639+1025514148+1025261336+1024963365+1024729649+1024628404
2707+1024646900+1024737216+1024853113+1024939706+1024951836+1024906438
2698+1024864042+1024841944+1024818164+1024817443+1024891305+1025018732
2690+1025114692+1025136190+1025110369+1025073498+1025033624+1024997834
2681+1025027619+1025221702+1025581764+1025926694+1026039949+1025890544
2673+1025644337+1025483762+1025464906+1025524837+1025584166+1025632327
2664+1025701625+1025783414+1025831094+1025842023+1025885019+1026015689
2656+1026173741+1026196320+1025989867+1025670639+1025426354+1025265659
2647+1025068574+1024857677+1024802550+1024946671+1025143877+1025283914
2639+1025415305+1025622479+1025913723+1026227426+1026484562+1026614271
2630+1026553380+1026310416+1026103963+1026278349+1026883657+1027482239
2622+1027602220+1027238915+1026751426+1026473873+1026542691+1026877652
2614+1027247683+1027493769+1027646177+1027756550+1027788136+1027745260
2605+1027717637+1027778048+1027970809+1028329430+1028793860+1029212772
2597+1029448289+1029378991+1028934618+1028320903+1027995430+1028160689
2588+1028480637+1028526876+1028271182+1027979337+1027878212+1028048515
2580+1028405694+1028726604+1028863038+1028886458+1028933898+1029061565
2571+1029281349+1029560103+1029776645+1029860716+1029929293+1030133104
2563+1030412579+1030561264+1030548413+1030580720+1030741775+1030795700
2554+1030598134+1030440923+1030633204+1030963361+1030966003+1030583242
2546+1030218736+1030220658+1030552856+1030937539+1031147115+1031147115
2537+1031065206+1031053557+1031179783+1031430793+1031750982+1032030937
2529+1032143231+1032027694+1031692373+1031233588+1030960479+1031217734
2520+1031875767+1032344280+1032310171+1032076575+1032034900+1032237751
2512+1032555297+1032803786+1032759108+1032446486+1032332390+1032866718
2503+1033866077+1034576113+1034417940+1033638726+1033091187+1033299081
2495+1033936576+1034379028+1034458775+1034431151+1034498408+1034632200
2486+1034676157+1034510898+1034270216+1034327745+1034885493+1035662665
2478+1036143909+1036068846+1035579195+1034964039+1034430551+1034178339
2469+1034448926+1035238229+1036087581+1036387954+1035859990+1034736928
2461+1033610382+1033017565+1033043747+1033409934+1033849023+1034202479
2452+1034418781+1034694052+1035214569+1035654018+1035479751+1034800221
2444+1034296158+1034320899+1034615266+1034848862+1034949386+1034911675
2435+1034693572+1034394761+1034223137+1034186746+1034106279+1033975849
2427+1033927328+1033834611+1033461337+1033050833+1033220535+1034125135
2418+1035118728+1035446483+1035044746+1034472226+1034189028+1034158523
2410+1034114686+1033944503+1033758467+1033777803+1034169572+1034836972
2401+1035412015+1035597450+1035516983+1035611262+1036120609+1036732403
2393+1036886612+1036466500+1035973005+1035916918+1036261367+1036640886
2384+1036926125+1037326541+1038070085+1039242990+1040871196+1042910748
2376+1045211879+1047722346+1050628305+1054047575+1057676780+1060920823
2367+1063274919+1064573088+1065053251+1065173592+1065241209+1065160981
2359+1064461274+1062663726+1059770017+1056149819+1052166556+1048466491
2350+1046094140+1045781277+1047424856+1050115955+1052581264+1054055741
2342+1054615171+1054570373+1054126481+1053532222+1053063829+1052739557
2333+1052200424+1051047697+1049324611+1047548560+1046252432+1045581069
2325+1045249471+1044838125+1044181775+1043402921+1042595363+1041770751
2316+1041040658+1040466336+1039833045+1038899742+1037775838+1036802181
2308+1036218972+1036092506+1036293434+1036449085+1036207442+1035614144
2299+1035008356+1034629798+1034556897+1034835771+1035399404+1036019965
2291+1036495083+1036754501+1036803142+1036701897+1036522106+1036294755
2282+1036170931+1036452808+1037134981+1037680358+1037672191+1037441598
2274+1037637843+1038336949+1038912833+1038773275+1038034415+1037395479
2265+1037393558+1037864233+1038167607+1037901224+1037308646+1036951707
2257+1037087060+1037532754+1038045345+1038537998+1038914274+1038968199
2248+1038574629+1037897741+1037367015+1037343235+1037693810+1037890655
2240+1037782324+1037963676+1038955108+1040363890+1041396877+1041837407
2231+1041886168+1041504247+1040701734+1040075168+1040247032+1040994660
2223+1041539557+1041435670+1040678314+1039337869+1037802981+1037059677
2214+1037863992+1039711503+1041355803+1042261483+1042831962+1043375898
2206+1043701612+1043682395+1043452643+1043048383+1042464694+1041998582
2197+1042002305+1042418335+1042968877+1043599646+1044476742+1045636796
2189+1046683834+1046942291+1046255795+1045497839+1045696126+1046800572
2180+1047871031+1048260758+1048230492+1048572540+1049705811+1051113512
2172+1051895128+1051763017+1051339902+1051748485+1053753328+1056682586
2163+1058586184+1058089567+1055688271+1053091332+1051617575+1051025238
2155+1050025999+1048108230+1046161156+1045023681+1044394353+1043527225
2146+1042091781+1040374339+1039370056+1040072526+1042029809+1043405563
2138+1043026765+1041653172+1040845134+1041249994+1042325256+1043176771
2129+1043178212+1042111837+1040280901+1038510855+1037611901+1037685042
2121+1038151994+1038444199+1038375982+1037893297+1036889254+1035452729
2112+1034032777+1033152078+1033029575+1033509618+1034262770+1035008956
2104+1035546167+1035669150+1035327584+1034859070+1034779564+1035300321
2095+1036172132+1036912194+1037193590+1037199595+1037504290+1038390034
2087+1039481630+1040255680+1040640002+1040930526+1041332383+1041787565
2078+1042226894+1042779958+1043554608+1044425699+1045306278+1046299752
2070+1047194983+1047242423+1045977402+1044157514+1043366530+1044443835
2061+1046636875+1048565334+1049610090+1049999938+1050057226+1049965829
2053+1049830475+1049462006+1048687716+1048205391+1049090294+1050951856
2044+1052053301+1051873750+1051930798+1053217678+1054498553+1054338819
2036+1053317121+1052971591+1053641394+1054531701+1055177002+1055852329
2027+1056824305+1057596793+1057073274+1054736833+1051394188+1048382540
2019+1046484587+1045724589+1045656973+1045884444+1046494435+1047616297
2010+1048840004+1049799850+1050741440+1051639794+1051726627+1050806534
2002+1049905778+1050026240+1051079884+1052139413+1052283774+1051425414
1993+1050531023+1050477338+1050830194+1050829113+1050961104+1052179647
1985+1054242858+1055929314+1056518288+1056183207+1055293740+1054201664
1976+1053433379+1053142495+1052700164+1051501318+1049615975+1047437827
1968+1045556328+1044902620+1046040334+1048467211+1050999056+1052369406
1959+1051796285+1049664736+1047332619+1045894052+1045340027+1044925919
1951+1044128570+1043082252+1041990295+1040412892+1037857387+1035067085
1942+1033780325+1034727800+1036870519+1038820715+1039926483+1040255920
1934+1040162121+1039924321+1039703576+1039514538+1039036056+1037726717
1925+1035517463+1033340036+1032367940+1032497408+1032707825+1032971807
1917+1034288472+1036531594+1038118726+1037970522+1036575791+1035366616
1908+1035381269+1036560779+1038201836+1039624310+1040326299+1040134618
1900+1039413773+1038703017+1038314010+1038421981+1038807865+1038646929
1891+1037649853+1036976568+1037789049+1039550928+1041129533+1042175491
1883+1042723751+1042708498+1042205996+1041581953+1041144786+1040728997
1874+1039740327+1037602893+1034112764+1030090228+1028053559+1029982258
1866+1034284508+1037978929+1039748854+1039906667+1039322857+1038820475
1857+1038785406+1039022845+1039173932+1038949944+1037981331+1036043865
1849+1033329947+1030204444+1027300767+1026042831+1027401652+1030041587
1840+1031971247+1032521549+1032317497+1032248560+1032057719+1030407534
1832+1026727046+1022679048+1020760198+1020902277+1021240121+1021292485
1823+1021779854+1022365105+1021865245+1020176988+1018333081+1016827497
1815+1015060935+1012410550+1009170111+1006620131+1005780146+1006084661
1806+1006087184+1004768957+1001877711+998161252+995239740+993852636+992932183
1796+991153911+987798294+982956131+978732606+977505897+977767656+976396886
1786+972390443+966788282+960989155+955632059+950908675+946874129+942920230
1776+937662578+929865034+919621877+909084413+900446164+892267480+880740566
1766+863167057+837463325+799113100+745087979+683837894+628063205+580044505
1756+539391707+509811001+491481668+479952803+473268143+474291551+484838353
1747+501694650+520144234+536877517+550497728+561381922+570724503+579048810
1737+586909947+597479898+615149547+637175192+657367619+676195040+695094461
1727+713209384+730616433+748360966+765379068+779379518+790287733+801410748
1717+817472788+838011645+857903700+874735526+888356758+898775261+906435470
1707+912805737+919440885+925933654+930317333+931653094+931875341+934536534
1697+941312261+952282207+964382483+973025656+977171176+978528435+978630881
1687+977186368+973428535+970263398+973412501+981238809+988597025+993308039
1677+995053764+994845028+994499739+994238700+992843969+991467134+993894551
1667+999729047+1004165751+1004793097+1003242296+1003073975+1004997629
1659+1006272199+1004445165+998353713+988343852+980935975+983197533+987355183
1649+987487954+985937933+988832362+996480381+1003251003+1006569628+1006443042
1639+1003062625+997302711+993487469+997204409+1005315536+1011388373+1013609757
1629+1013064499+1011817493+1010929107+1010168269+1010318875+1012557794
1621+1015271351+1015738183+1013912531+1013549466+1017145164+1021622161
1612+1023865284+1023727168+1022887663+1022864244+1023631087+1024347849
1604+1024717639+1025162613+1025983742+1026765238+1026900231+1026446971
1595+1026081504+1026262976+1026818442+1027400090+1027922289+1028421067
1587+1028775485+1028817400+1028611307+1028240436+1027203606+1024450175
1578+1019624285+1015281920+1015695547+1019264343+1020776772+1018675729
1570+1015923979+1016242486+1018679932+1020388246+1020176508+1017058091
1561+1008775099+995148823+987842732+994119980+1003103339+1009456791+1012995922
1551+1014533692+1015384126+1015715364+1013696830+1007736468+998631807+988925020
1541+982284827+985124250+996199165+1005350185+1008741711+1008569247+1009267753
1531+1012036917+1013526047+1011630376+1007646152+1003966083+1000636229
1523+996745624+994094098+994541354+996378175+998742600+1002838337+1007635103
1513+1009770014+1007006255+999196520+988447079+983119348+992467333+1006602056
1503+1015166984+1017712640+1016065098+1012683299+1011141325+1013490497
1494+1016910247+1017090038+1012376922+1005428611+1002855992+1007339174
1486+1014119945+1018667081+1020014492+1019343249+1017945636+1015669125
1477+1011387532+1004651919+996653686+990746829+990462250+993955202+996130407
1468+994601104+990414030+986765968+985056994+982463597+975495349+962578148
1458+947097456+939163838+940665158+944395368+947001916+948226824+948388960
1448+947974672+947178884+945440005+942116936+937348274+931656457+924829508
1438+916509345+908806620+904925203+903767191+902521445+900981453+900762990
1428+902107218+903581395+904784625+906643545+909141581+911198428+913710816
1418+919925192+929834228+939749149+947442326+952949728+957190006+960561896
1408+962497321+962696628+962267688+962462611+962447299+960349858+955988638
1398+951341278+948357674+947520992+948266878+948738393+946221561+938469835
1388+924705744+906871556+888380057+870384394+852207079+833974397+816519068
1378+799875860+783328732+767092846+753492032+744770792+739617027+735019749
1368+730429677+728130287+731068613+742556854+765683704+798560456+833833999
1358+865765858+892664353+914685794+932499985+946806632+958243831+967534408
1349+975273943+981614305+986323156+988911269+988884006+986669407+984617545
1339+985853322+990914069+997268302+1002408076+1005497849+1006880689+1007301703
1329+1007515843+1008068186+1009111742+1010361511+1011321597+1011716368
1320+1011807284+1012188964+1013078191+1013990957+1014427883+1014550627
1312+1014796233+1015137559+1015198330+1014836707+1014209901+1013430446
1303+1012412832+1010970182+1009006173+1006652618+1004142331+1001493328
1295+998386561+994419151+989503726+984029532+978629740+973850449+970049379
1285+967407341+965837384+964936147+964135315+962885366+960677373+956990219
1275+951461499+944369547+936965993+930995002+927508776+926105218+925312313
1265+923540406+919721741+913416209+904582976+893150941+878635139+860319047
1255+837974654+812389342+785370086+759390662+736648075+717479448+699406801
1245+678209611+650512806+615936508+577486959+540520534+511203210+494743306
1235+493587666+506368072+528211584+552251139+571781811+582371278+583114702
1225+576380530+566013129+554967099+543999854+532177493+518178184+501031033
1215+480250262+456205513+430790263+407357877+389400857+379059397+376785979
1205+381966437+393478969+409849939+429319929+450126491+470977280+491255699
1196+510650806+528812448+545759451+562475620+580526289+600877489+623280011
1186+646792384+670634013+694459368+718045543+740990260+762802726+783200585
1176+802191283+819863995+836211154+851186042+864827270+877244972+888535768
1166+898785830+908096464+916553722+924229724+931216468+937529746+943007183
1156+947478476+950965482+953530355+955013840+955094308+953445624+949637408
1146+943033245+933116763+920116032+905452085+891725465+882105872+879015318
1136+882584173+890124221+897333271+900293696+896957236+887933943+876595947
1126+867820483+865458340+870297682+880211522+892098198+903687504+913949276
1116+922555879+929420000+934570343+938085032+940055106+940618439+939956143
1106+938262181+935731237+932456809+928294476+922880872+915682631+905895797
1096+892494530+874758045+853010133+829030928+805814003+786648198+773888390
1086+768224676+768988217+774973620+784772704+796522165+807874813+816508499
1077+820602915+818834851+810131086+793584019+768668869+735657064+695952281
1067+652135488+607663845+566311640+531658357+506720568+493248411+490645977
1057+495694084+503962633+511882380+517678504+520942664+522052875+522024472
1047+522244736+523770317+526617066+529490477+530191986+526817694+519114669
1037+508636776+497378738+486499767+476605383+468863506+465225803+467450040
1027+476125250+490593343+509492374+531290848+554615924+578437076+602084983
1017+625115932+647201267+668117121+687688146+705647358+721580470+734999392
1007+745422519+752468353+756114733+757133668+757343064+759153884+764439760
997+773552948+785243139+797422861+808182451+816493906+822317294+826145146
987+828273753+828267087+825163262+818613505+810220141+803696806+803100146
977+810243561+823620868+839894105+856374516+872141529+887339384+902043504
967+915824770+928036499+938301874+946703706+953545608+959055112+963357903
958+966555707+968622701+969182551+967398874+961989174+951229464+932946820
948+904929406+866555761+821639085+780027582+754478420+753400575+775526564
938+811523895+850501708+885297670+913384803+934967576+951040906+962548964
928+970257333+974777807+976554098+975796742+972461843+966369070+957218770
918+944256172+925963679+900288592+865577660+822444060+776006007+735884294
908+711860833+707779027+719350859+737903969+756060147+770442998+780761998
898+787995489+793604076+799358465+806684554+815564206+824354804+831642280
888+838666855+849033896+865266899+886086793+907371056+925009539+936603229
878+941807376+942439347+942068956+944344205+950914019+960805941+971729589
868+981813071+990313085+997306194+1003106822+1007955532+1012081955+1015766887
858+1019110253+1021886023+1023810158+1024858878+1025316822+1025637131
850+1026127863+1026670598+1026905636+1026617754+1025692978+1023895789
841+1020949357+1016535652+1009881708+999604623+984346297+963682295+938698928
832+912292426+888944351+873211687+867537165+871500971+883146965+900447365
822+921352650+943300049+963571742+980293316+993045618+1002597175+1010045886
812+1016168745+1021415108+1026073337+1030274703+1034063763+1037498045
803+1040569503+1043155753+1045126127+1046450959+1047297309+1047994254
795+1048714859+1049322689+1049700286+1049954059+1050100462+1049865665
786+1048984365+1047506525+1045776353+1044281578+1043521460+1043783040
778+1044865148+1046119000+1047012070+1047638275+1048405479+1049264440
769+1049602644+1048861742+1046804055+1043103029+1037128375+1028397888
761+1017233918+1005309411+995836881+992495196+997021135+1007642429+1020316666
751+1031563865+1040014877+1045834001+1049575381+1051788358+1053108987
742+1054138131+1055183488+1056240855+1057124797+1057616490+1057669334
734+1057457837+1057112427+1056581821+1055872386+1055173279+1054673180
725+1054433819+1054438863+1054589830+1054650240+1054289698+1053254549
717+1051455199+1048856458+1045402839+1041025526+1035392198+1027633807
708+1016790026+1002898087+987837087+975254607+969135532+971452156+980699497
698+992718524+1003260611+1010177757+1013627652+1014783742+1014652712+1013662841
688+1011620648+1007936436+1002198980+994389306+984450905+972073077+957257683
679+941368468+927679800+920192836+921003877+928466580+938712259+948500293
669+955283406+957834587+958933510+961375519+965017516+968445913+970624721
659+971364903+970529902+967817425+963513553+958717568+954737008+952521268
649+952373244+953639467+954768294+954209825+951572111+948083003+945866483
639+946393846+949427111+953471866+957020664+959381666+960808463+961979086
629+963194085+964254635+965062373+965628648+965444234+963716103+960238405
619+955125294+947594073+935555650+916338922+887652186+849221914+805678950
609+767541783+745947060+743898440+753414387+762502294+764376286+760080821
599+755363983+757084727+770402104+796101812+829625067+863584828+892274806
589+914164737+930492680+942751008+951932594+958859467+964182695+968250689
579+971228348+973023615+972862860+968876955+958040680+936946597+904196551
569+864316542+829270769+812244200+817215412+835514690+853223612+862240720
560+865291100+871291035+886544016+909884165+934928663+956016622+971686653
550+983389815+992568158+999542471+1004276124+1007197816+1009061900+1010293894
540+1010677856+1009567765+1006152759+999414984+987949381+970359179+947071574
530+922451031+904275758+899882651+910492775+928722034+944900933+954443241
520+957903946+957753759+955963237+953394401+951005416+950547532+953118830
510+957553311+961207018+962074025+959358066+952607200+941814402+928563982
500+915221684+902278602+888174985+871546249+852614461+833020677+814957697
490+799762545+786978295+775204394+763448988+751796689+741590403+734798944
480+733236672+738736568+752519636+773249213+796991219+818894181+834689417
470+843392161+848390936+854005648+861738038+870272941+878234122+885366368
460+892250185+900951608+913976900+929972764+944619056+956520685+967249169
450+977473409+985784805+990835223+993180071+995031545+998456700+1003752244
441+1009623491+1014899159+1018789944+1019061612+1011943719+995912725+974273324
431+952955853+936610195+926902207+924423387+930105896+942372511+955850702
421+966490432+976332692+990454264+1007349263+1021851194+1032211328+1040172810
411+1048923354+1059214911+1068184039+1073100124+1073741823+1070460429
402+1063487497+1054847926+1048141258+1044951861+1042557051+1038752498
394+1033680041+1025454097+1010366075+986878503+957070446+923298283+886296789
384+849649052+821218912+805449617+800539837+802073164+807469112+820210185
374+844477212
##END=
