##TITLE=SiO- R45
##JCAMP-DX=4.24
##DATA TYPE=INFRARED SPECTRUM
##DATE=11/7/2019
##SAMPLING PROCEDURE=Diamant-ATR
##ORIGIN=Rieke
##XUNITS=1/CM
##YUNITS=TRANSMITTANCE
##RESOLUTION=4
##FIRSTX=3997.453
##LASTX=373.96442
##DELTAX=-1.4165319
##MAXY=1.0010774
##MINY=0.59631765
##XFACTOR=1
##YFACTOR=9.32326e-010
##NPOINTS=2559
##FIRSTY=0.99710274
##XYDATA=(X++(Y..Y))
3997+1069478640+1069678361+1070401870+1071050770+1071263150+1071157663
3989+1071058378+1071086700+1071099678+1070996301+1070964847+1071271013
3980+1071793458+1072056087+1071849845+1071513248+1071465619+1071769420
3972+1072234135+1072586204+1072504820+1071888907+1071120072+1070699021
3963+1070631127+1070476221+1070003643+1069466174+1069195106+1069273230
3955+1069646204+1070243320+1070900916+1071333538+1071299143+1070833788
3946+1070260646+1069830389+1069519620+1069316639+1069432929+1069925519
3938+1070404299+1070443233+1070060158+1069575688+1069140061+1068694845
3929+1068366047+1068444554+1068895524+1069311141+1069541037+1069984719
3921+1070768323+1071217119+1070647237+1069416435+1068581303+1068575805
3912+1068967894+1069206613+1069188457+1069219016+1069548773+1070110663
3904+1070650050+1070840437+1070313133+1069115959+1068090504+1068044857
3895+1068892392+1070013935+1070848556+1071209959+1071424128+1071776900
3887+1071930654+1071331492+1070179901+1069184941+1068432344+1067799681
3878+1067625021+1067968779+1068325515+1068427740+1068510084+1068514175
3870+1067941353+1067024516+1066612736+1066862259+1067382211+1067894363
3861+1068324875+1068745095+1069365099+1070313197+1071321902+1071462359
3853+1069737753+1067316298+1066058197+1066183502+1067318663+1068859787
3844+1069848929+1069553823+1068458044+1067994927+1068899232+1070205857
3836+1070527622+1069820927+1068847384+1068183779+1068024974+1068207306
3827+1068408497+1068546524+1068882866+1069492321+1069826617+1069383639
3819+1068780576+1068678478+1068801738+1068856207+1069086615+1069611489
3810+1070147679+1070278291+1069684051+1068646513+1067997420+1067859840
3802+1067466600+1066636646+1066416340+1067179997+1068059625+1068248414
3793+1067874417+1067542806+1067634803+1068182501+1068898210+1069322968
3785+1069226112+1068849110+1068520760+1068237865+1067919232+1067720023
3776+1067796037+1068148106+1068794897+1069589753+1069946680+1069422509
3768+1068595368+1068317140+1068549146+1068760566+1068817017+1068998454
3759+1069431907+1069741909+1069555294+1069145431+1068996088+1068986882
3751+1068425055+1067595549+1067805691+1069073445+1070045901+1069527420
3742+1068511298+1068532971+1069314593+1069737178+1069058229+1067690998
3734+1066848578+1066925871+1067355680+1067709794+1067981182+1068270726
3725+1068501389+1068520888+1068451970+1068561484+1068873149+1069277193
3717+1069795994+1070502625+1071335711+1071947468+1071675889+1070389850
3708+1069112123+1068758648+1069309223+1070089694+1070274455+1069565650
3700+1068679757+1068571330+1069440921+1070710081+1071483648+1071209064
3691+1070055043+1068734993+1068003813+1068008672+1068391108+1068863303
3683+1069211536+1069164802+1068562891+1067650402+1066932519+1066709272
3674+1066936611+1067517553+1068322318+1068942386+1068933180+1068531245
3666+1068297705+1068472237+1069015459+1069629646+1069959147+1069926542
3657+1069637062+1069238579+1069079454+1069343873+1069476978+1068382733
3649+1065896452+1064105613+1064342350+1065688548+1067016397+1067743358
3640+1067882536+1067905807+1068124643+1068327305+1068327560+1068588975
3632+1069790816+1071693342+1072586204+1071155553+1068966552+1067770592
3623+1067599769+1068005348+1068529775+1068684232+1068413931+1068127520
3615+1067822568+1067181275+1066367496+1065907192+1065939158+1066240145
3606+1066601804+1066837326+1066799159+1066533525+1066290779+1066330672
3598+1066605831+1066692458+1066236310+1065534346+1065238792+1065406931
3589+1065416265+1064748824+1063879681+1063867725+1064779767+1065806565
3581+1066301711+1066239186+1065941331+1065590669+1065286421+1065278557
3572+1065700247+1066291546+1066612608+1066324471+1065455455+1064625501
3564+1064377960+1064541879+1064676007+1064620067+1064556775+1064649156
3555+1064741728+1064478204+1063745873+1062987841+1062762356+1063074980
3547+1063509775+1063783656+1063858328+1063650360+1063124271+1062588016
3538+1062493270+1062892840+1063293560+1063233848+1062823858+1062465908
3530+1062268041+1062041277+1061753907+1061581996+1061521773+1061355744
3521+1060967362+1060461284+1060103653+1060189832+1060757093+1061458289
3513+1061884646+1061895642+1061622529+1061366229+1061379654+1061579567
3504+1061641900+1061395701+1060927278+1060357012+1059767247+1059171729
3496+1058318632+1056902494+1055213689+1054118805+1054196162+1055191825
3488+1056336448+1056942771+1056738127+1055968396+1055304344+1055332026
3479+1055976707+1056704244+1057199006+1057507538+1057650552+1057520069
3471+1057218633+1057115129+1057380379+1057741846+1057861589+1057746193
3462+1057602668+1057522945+1057514570+1057641218+1057884220+1058017836
3454+1057856091+1057516297+1057281158+1057286336+1057465919+1057713972
3445+1058044176+1058587335+1059379569+1060151090+1060526813+1060501305
3437+1060432706+1060473686+1060355094+1059890634+1059356810+1059194041
3428+1059552311+1060211377+1060793789+1061072465+1061179997+1061417949
3420+1061819245+1062066147+1061881641+1061318216+1060645725+1060064591
3411+1059611703+1059307774+1059214819+1059277279+1059288403+1059100318
3403+1058750679+1058382691+1058145571+1058071538+1057971103+1057583936
3394+1056910166+1056276161+1056057836+1056417385+1057266518+1058339474
3386+1059265708+1059727099+1059676401+1059342233+1058972711+1058729070
3377+1058836027+1059498481+1060498747+1061184217+1061118496+1060564596
3369+1060135746+1060149492+1060447091+1060655315+1060491971+1059977964
3360+1059506664+1059560814+1060216427+1061024133+1061448444+1061336181
3352+1060948503+1060678777+1060752873+1061075790+1061375818+1061530148
3343+1061649188+1061801983+1061891295+1061922429+1062085198+1062377299
3335+1062521784+1062440527+1062340539+1062235180+1061987831+1061848525
3326+1062253081+1063083930+1063720876+1063786149+1063469626+1063256672
3318+1063464704+1063890613+1064016941+1063656561+1063111229+1062695548
3309+1062481251+1062421412+1062373975+1062194265+1062037505+1062297258
3301+1063049407+1063819266+1064076780+1063757764+1063168830+1062621708
3292+1062339964+1062449797+1062798541+1063030931+1063067628+1063196768
3284+1063474421+1063466430+1062903516+1062216832+1062052785+1062443788
3275+1062775143+1062549785+1061942696+1061499653+1061497415+1061743103
3267+1061858434+1061638767+1061201350+1060820577+1060618874+1060504373
3258+1060397353+1060319996+1060248713+1060148021+1060155245+1060410458
3250+1060695335+1060630893+1060270257+1060100137+1060371077+1060780875
3241+1060901833+1060603211+1060016067+1059389606+1059004549+1058992850
3233+1059180807+1059231952+1059005828+1058723892+1058706694+1058961587
3224+1059116620+1058811349+1058113797+1057495711+1057342724+1057544810
3216+1057692299+1057604905+1057415541+1057143259+1056524597+1055415520
3207+1054114074+1053096930+1052565343+1052318824+1051975259+1051253157
3199+1050119019+1048748207+1047379250+1046241852+1045535221+1045301489
3190+1045296438+1045161608+1044770861+1044302565+1043980480+1043812789
3182+1043572152+1043040245+1042295192+1041658566+1041307904+1041108822
3173+1040824968+1040250291+1039180660+1037554763+1035602243+1033626899
3165+1031730511+1029910200+1028219669+1026615574+1024827995+1022657598
3156+1020339264+1018435331+1017366147+1017100002+1017247427+1017306244
3148+1016706250+1014789915+1011145841+1006109283+1000668553+995775521+991953974
3138+989429015+988136264+987536078+986763215+985011822+981621747+976051939
3128+968339929+959777506+952715738+949233154+949875470+953619021+958814575
3118+964046890+968462868+971773925+973999814+975131331+975143478+974216093
3108+972599467+970327036+967375464+964062042+961025377+958840659+957782535
3098+957813414+958603027+959635707+960514759+961182073+961828288+962691998
3088+963937823+965571391+967449688+969406108+971310232+973026144+974453534
3078+975631145+976708512+977788628+978810503+979596536+980032739+980139823
3068+979932814+979342282+978353460+977112109+975875490+974920998+974398041
3058+974170958+973941637+973525893+972841191+971767915+970302806+968705231
3048+967251949+966028627+965127965+964815150+965266887+966262039+967242934
3038+967659893+967308400+966451339+965608216+965150597+965052015+964980604
3029+964607118+963884761+963100198+962606010+962447845+962337755+962025963
3019+961529602+960964323+960362539+959729813+959123810+958595931+958103086
3009+957488836+956575324+955300537+953713575+951865199+949816462+947659490
2999+945361614+942708025+939539343+935910676+931958902+927768217+923394881
2989+918959468+914725118+910989175+907766471+904730510+901622179+898557193
2979+895793899+893373466+891118168+888894644+886765035+884883478+883334491
2969+882108611+881116400+880161014+879073226+877929051+876943744+876150487
2959+875394373+874604952+873885151+873365967+873065363+872838535+872472849
2949+871912876+871363708+871121153+871345488+871994580+872869478+873706848
2939+874345264+874863234+875482023+876304689+877217497+878018426+878553082
2929+878793975+878871459+878894602+878669629+877823053+876299702+874491538
2919+872807912+871369654+870144158+869112502+868248600+867502972+866837257
2910+866233811+865721595+865388322+865276123+865280726+865241089+865117190
2900+864991438+864885568+864648383+864136806+863492637+863068326+863011811
2890+863129827+863238830+863380501+863565582+863619796+863501970+863541736
2880+864099790+865111181+866187269+867089018+867855424+868525422+869032716
2870+869391369+869735191+870153108+870671206+871322984+872058639+872683822
2860+873060248+873280555+873547467+873968006+874553423+875335940+876379936
2850+877657791+878991138+880189080+881213512+882142047+883044627+884010370
2840+885175835+886529448+887778343+888644162+889196463+889675691+890100896
2830+890277027+890075580+889533700+888809424+888145180+887745482+887660326
2820+887880185+888425901+889196143+889890947+890305540+890585942+891011723
2810+891643299+892331070+892954142+893514946+894122420+894978329+896229653
2800+897745524+899211912+900495841+901752790+903149494+904641390+906069611
2791+907401105+908776455+910254095+911610330+912598066+913334680+914179722
2781+915298836+916573750+917843870+919055301+920265197+921598225+923108086
2771+924675933+926140978+927477906+928718042+929776102+930510926+930961513
2761+931372078+931927704+932591756+933288797+934071953+934955929+935753150
2751+936293943+936686289+937165005+937807640+938552374+939372674+940263427
2741+941136022+941855759+942385876+942884922+943614312+944661184+945770901
2731+946575985+946965454+947142351+947397500+947920649+948757571+949845487
2721+951038058+952103022+952818859+953193943+953502602+954014563+954766904
2711+955604210+956317170+956793585+957151343+957643357+958362327+959132121
2701+959724890+960111929+960471414+960988745+961699020+962522900+963362252
2691+964130000+964803195+965465649+966181230+966837931+967235902+967319140
2681+967276434+967422901+967918175+968571167+969048094+969297681+969587928
2672+970110309+970753137+971311319+971743749+972138844+972554524+972999740
2662+973501919+974090341+974736685+975370498+975916022+976325245+976622077
2652+976887136+977190041+977599776+978171512+978803087+979266140+979548396
2642+979964588+980719998+981563377+982105321+982337455+982603537+983137042
2632+983868798+984631560+985284041+985667947+985719987+985602226+985510101
2622+985441439+985296315+985050436+984754755+984511497+984431775+984467960
2612+984362346+983878771+983017938+981963906+980922468+980046036+979401802
2602+978913305+978334792+977355751+975778506+973656249+971341047+969355474
2592+968053261+967397903+967165194+967258470+967685530+968368314+969163425
2582+969987625+970823269+971676813+972593074+973641992+974878292+976318149
2572+977858249+979189167+980007230+980380843+980621224+980745762+980501162
2563+979977502+979685593+979901104+980367226+980699860+980753754+980650889
2553+980687265+981104288+981825047+982524901+983028167+983519861+984263125
2543+985170883+985855137+986160920+986394077+986903608+987711505+988607564
2533+989326725+989674255+989753913+989986814+990738516+992031843+993613690
2523+995112747+996196507+996794839+997158671+997547692+997890426+997896564
2513+997515215+997085534+996971161+997239032+997751312+998328930+998806368
2503+999134334+999356111+999379382+999034282+998424315+997860315+997400650
2493+996848605+996214536+995832612+995944555+996383762+996764216+996923852
2483+997091671+997549610+998189560+998588682+998592326+998607861+999098341
2473+999954251+1000671942+1001043509+1001335802+1001863042+1002684941
2465+1003595767+1004132149+1003755339+1002355120+1000526179+999117329+998481661
2455+998233097+997665133+996335174+994338094+992155741+990228601+988594842
2445+986974188+985202720+983539680+982555141+982686583+983817589+985389719
2435+987017277+988748788+990613914+992330657+993698143+994891482+996143189
2425+997472317+998843831+1000264253+1001606423+1002581500+1002968411+1002774061
2415+1002215558+1001651430+1001409451+1001539615+1001797960+1001951523
2407+1001989242+1001950180+1001722010+1001217274+1000660370+1000486222
2398+1000932205+1001837022+1002861902+1003827262+1004780475+1005768658
2390+1006637354+1007145543+1007264455+1007271040+1007510717+1008121132
2381+1008989892+1009886334+1010566945+1010845940+1010773698+1010784566
2373+1011399072+1012587488+1013707049+1014350516+1014911128+1015894389
2364+1017047131+1017788987+1018173149+1018608584+1018904585+1018569395
2356+1017760858+1016959353+1016181120+1015353020+1014736404+1014492891
2347+1014460478+1014481127+1014581819+1014720038+1014811907+1015097615
2339+1015826941+1016713922+1017226585+1017216740+1016997456+1016993237
2330+1017324080+1017625899+1017458847+1016870937+1016323047+1016148067
2322+1016301950+1016664887+1017355279+1018523748+1019966290+1021189867
2313+1021878725+1022145126+1022272988+1022367926+1022367159+1022244667
2305+1022074674+1021991052+1022117380+1022379178+1022416641+1021993993
2296+1021531387+1021831672+1023094695+1024500604+1025016145+1024472347
2288+1023641434+1023350100+1023736052+1024341352+1024689265+1024686452
2279+1024592793+1024681529+1024944286+1025199307+1025424729+1025755956
2271+1026183463+1026567817+1026982410+1027701571+1028782263+1029955335
2262+1031009176+1031925181+1032532526+1032486560+1031815411+1031082505
2254+1030797883+1031058211+1031787154+1032774889+1033460295+1033278539
2245+1032370333+1031588264+1031642286+1032345336+1032777511+1032240873
2237+1030977594+1029814047+1029286616+1029402331+1030072137+1031293350
2228+1032744970+1033619292+1033334351+1032347702+1031768358+1032153031
2220+1033167490+1034394456+1035795571+1037188310+1037931573+1037631992
2211+1036885916+1036817638+1037849422+1039334734+1040463118+1041110996
2203+1041571620+1041864105+1041742699+1041282779+1041010688+1041186051
2194+1041330024+1040992851+1040657532+1041168854+1042482574+1043737862
2186+1044466293+1045049920+1045823423+1046144293+1044933502+1042287648
2177+1039919640+1039628945+1041606015+1044276226+1045618907+1044847386
2169+1042936613+1041269098+1040123899+1039201885+1039034513+1040621411
2160+1043851531+1047213541+1049226157+1049711394+1049357727+1048607495
2152+1047467284+1046173701+1045506708+1046153947+1047884242+1049528679
2143+1049940843+1049060703+1047924839+1047638299+1048541646+1050151815
2135+1051437981+1051291196+1049358302+1046594943+1044564299+1044003048
2126+1044431323+1045174841+1046032414+1046789230+1047010304+1046611693
2118+1045978456+1045499420+1045407167+1045793311+1046521487+1047372346
2109+1048138177+1048435840+1048002579+1047204591+1046540794+1045884605
2101+1044954982+1044051891+1043678534+1043950752+1044726620+1045801175
2092+1046785394+1047238091+1047102876+1046781367+1046601848+1046422393
2084+1045996612+1045453070+1045087639+1044967769+1045031252+1045254628
2075+1045580293+1045910305+1046160404+1046248181+1046239486+1046405835
2067+1046860641+1047304835+1047377332+1047147117+1047146477+1047849144
2058+1048971647+1049569275+1049175715+1048402340+1048071497+1048431237
2050+1049543766+1051562008+1053989281+1055367380+1054576040+1052231303
2041+1050189662+1049647590+1050258261+1051177974+1052158677+1053290514
2033+1054371141+1054902537+1054544778+1053582359+1052727408+1052044560
2024+1050635774+1048181778+1046032477+1045691852+1046858148+1047929697
2016+1048231388+1048690542+1050027917+1051384151+1051464257+1050496148
2007+1050101885+1051151890+1052658299+1053212901+1052772671+1052408520
1999+1052619620+1052754707+1052322469+1051866064+1052138986+1053257973
1990+1054827673+1056228724+1056812735+1056350129+1055202949+1054015876
1982+1053580122+1054487176+1056205133+1057127404+1056568326+1056032775
1973+1057225154+1059406740+1060020159+1057983697+1055139146+1053735410
1965+1053641943+1053241478+1051865233+1050427167+1050312666+1051795420
1956+1053531342+1053851381+1052351621+1050015194+1048236567+1047987171
1948+1049419101+1051895217+1054464545+1056349490+1057133349+1056815356
1939+1055696242+1054204792+1052892478+1052319016+1052732715+1053889420
1931+1055134607+1055732171+1055370513+1054451247+1053804648+1054002323
1922+1054771925+1055249363+1054920949+1054054554+1053347093+1053271078
1914+1053739630+1054265335+1054267445+1053375478+1051673887+1049848270
1905+1048861046+1049078156+1049871733+1050425696+1050641911+1050859085
1897+1051140830+1051405952+1051995141+1053457054+1055723604+1057885499
1888+1059025007+1059171537+1059012349+1059136695+1059744360+1060635880
1880+1061478236+1062124835+1062565896+1062819127+1063029461+1063342787
1871+1063665511+1063892659+1064273560+1065005635+1065657541+1065712202
1863+1065287060+1065021938+1065316405+1065925860+1066503989+1067045230
1854+1067519727+1067624062+1067182618+1066502135+1066215276+1066810986
1846+1068157120+1069340421+1069410298+1068571010+1067831327+1067956760
1837+1068894182+1069786277+1069954799+1069586428+1069215692+1069174903
1829+1069487463+1069908705+1070179325+1070227274+1070139304+1070067062
1820+1070096534+1070117184+1069975577+1069775408+1069701504+1069653364
1812+1069357235+1068714344+1067972167+1067558917+1067622208+1067808312
1803+1067702634+1067330491+1066983920+1066764445+1066612800+1066562039
1795+1066750316+1067227242+1067671563+1067716187+1067581612+1067589412
1786+1067669645+1067657051+1067607440+1067670732+1067900948+1068175788
1778+1068247710+1068043387+1067708451+1067327678+1066979061+1066915642
1769+1067153593+1067477085+1067922557+1068643252+1069601196+1070619363
1761+1071486077+1072087605+1072460771+1072586204+1072544649+1072391214
1752+1072320378+1072219303+1071963195+1071718147+1071458971+1071013179
1744+1070477884+1069947959+1069302190+1068591148+1068030345+1067459823
1735+1066125581+1063012007+1058436457+1053666301+1048517736+1042231389
1727+1034233286+1022756180+1005013568+980298117+949410116+909927599+859173386
1717+809083354+780562978+771105775+765086469+754332168+738219480+719454737
1707+702190458+691605318+690734321+699159420+716851078+741811961+766212232
1697+787009792+806584222+823690975+837142147+849058268+860996957+872201781
1687+881790810+890365443+898370195+904230761+906831479+906888825+904959575
1677+900891702+894950455+889670192+888029208+890295503+895352135+901733164
1667+907856231+913497768+919322660+925558694+931631191+936885050+941225078
1657+944883409+948180081+951400483+954620886+957657486+960511371+963387057
1647+966456901+969604358+972484008+975060432+977414951+979581321+981765911
1638+984325394+987323571+990124777+992195059+993647382+994588192+994997224
1628+994982392+994865525+994878503+994943777+994984182+995015188+994217647
1618+989920581+978755011+960760127+937352834+907551279+872244743+838847957
1608+818402529+816584072+830190661+851668448+874092928+893409779+908779140
1598+921327029+932212069+941687237+949597370+956104152+961682206+966778091
1588+971544987+975861041+979716535+983355303+986954433+990565710+994369867
1578+998751643+1004088421+1009869328+1014890095+1019100918+1023184135
1570+1026927110+1028708359+1026854676+1020303462+1009334480+994812143+970563325
1560+915601741+830937568+772273222+746289377+733759645+731170626+739973813
1550+757777863+778834728+798907629+817562858+835088935+850186397+861935914
1540+870294140+875257113+878575011+882080929+886727123+892902806+900209238
1530+908189951+917076824+926867364+936341444+944427196+951528793+957948181
1520+962847798+965809535+967191534+967596985+967812816+968166356+968465361
1510+968558829+968452639+968562409+970188049+973460875+977512190+982149306
1500+987331818+992714371+997812175+1002181995+1005640924+1008513541+1011274790
1490+1014050104+1016599037+1018873707+1021020386+1022983774+1024653144
1482+1025996401+1027014887+1027752588+1028316013+1028844980+1029437046
1473+1030010827+1030451441+1030932906+1031621444+1032420200+1033130410
1465+1033641284+1034062206+1034552366+1035062728+1035310525+1034946502
1456+1034173510+1033668902+1033609254+1033985745+1034873301+1036234714
1448+1037697522+1038586484+1038241448+1036119062+1031914824+1025759792
1439+1017294672+1004780219+988255048+973244852+963773393+958136074+954021467
1429+951563572+952519214+958044972+967795171+979668651+991074026+1001457463
1419+1011664003+1020908570+1027491046+1031726675+1034659643+1036626611
1411+1037574135+1037553868+1036749871+1035152871+1032531823+1028990167
1402+1024880227+1019968975+1013629309+1005612219+995554191+982117213+964355485
1392+942938624+917656679+885186703+841872347+791401988+746433733+716784206
1383+703929896+705517945+717306907+733673849+750219287+765283568+778588018
1373+789956505+799882835+809749196+820734992+832998579+846231106+860468886
1363+875481959+890045085+903154097+915052893+926380784+937368689+947713128
1353+956681833+963238673+965973198+962928415+952164588+933873639+912208150
1343+893236142+880376653+872589779+867006099+862988028+862710184+868559625
1333+881253277+899293552+919479995+938454368+954218503+966386577+975320695
1323+981310594+984349368+984169466+980446117+973396752+964219376+954784166
1313+947055021+942599214+942146006+945382711+951123981+958025793+965535526
1303+973881606+983015253+992121666+1000314822+1007289899+1013164658+1018125904
1293+1022323558+1025743745+1028012980+1028592068+1027503705+1025803009
1285+1024871277+1025005660+1024884830+1022606389+1017353233+1010213405
1276+1003554468+999548096+998895040+1000388535+1001290475+998228942+988314631
1266+970377413+946250768+921127244+901666292+892448831+893427552+900697799
1256+909813034+918293369+925680099+932317683+938323756+943205281+945986604
1247+945556156+940924922+931299580+916087043+895051850+868688446+838470955
1237+806561847+775203185+746373638+721624431+701709824+686269691+674027905
1227+663457214+653657212+645116334+639706291+639602083+645910551+658097740
1217+674480153+693171055+712720105+732194547+750984287+768707847+785260637
1207+800739192+815167551+828350339+840067635+850355623+859522578+867948763
1197+875972630+883914793+892010391+900201374+907999308+914475978+918267669
1187+917595242+910361244+894451217+868673678+834435175+796749890+762820814
1177+738772676+727273193+727562226+736916883+752135366+770475415+789954587
1167+809202010+827267794+843579819+857926985+870388950+881224572+890698269
1157+898924350+905951467+912007981+917529137+922886756+928193103+933407645
1147+938537734+943653886+948728610+953529965+957709462+960971867+963066442
1137+963521504+961461707+956043161+947189916+935462072+921164708+904787025
1128+889148770+879781135+881273032+893222525+910602136+927538129+939795067
1118+944243778+937515028+916376651+880620870+836481035+796114415+771089153
1108+765000993+772635008+785815559+799158239+811107157+821955565+832205706
1098+842156201+851990341+861801658+871521170+880776670+888378912+892073939
1088+890525271+886639857+887046267+896205423+912044166+928656476+941676752
1078+949500003+950855534+943785136+928077324+908284889+892751864+888079203
1068+894535926+907339475+921363214+933792063+943779638+951502965+957623091
1058+962845368+967633234+972169339+976394674+980145961+983382537+986245565
1048+988894742+991364785+993615672+995662491+997619806+999641116+1001816756
1038+1004108431+1006408481+1008678931+1010976743+1013329664+1015646144
1030+1017752483+1019343089+1019727251+1017735669+1012170017+1002407544
1021+988579434+971810621+955019816+942915289+939676731+945888854+958070992
1011+971404403+982803641+991717429+998847539+1004756501+1009593657+1013474724
1001+1016656767+1019421916+1021943487+1024242578+1026282940+1028072372
993+1029552377+1030412251+1030108258+1028179648+1024818150+1021307564
984+1019524014+1020551899+1023857649+1027977051+1031779482+1034937807
976+1037561604+1039799385+1041761239+1043533346+1045138209+1046533889
967+1047657159+1048408925+1048627506+1048213552+1047308351+1045999553
959+1043425558+1037681731+1027861399+1016236740+1007071127+1003049476
950+1004047824+1008998267+1016950850+1026228087+1034521807+1040514966
942+1044525110+1047469457+1049921855+1052090718+1054011209+1055609679
933+1056885808+1058044943+1059260785+1060411481+1061316171+1062118314
925+1063126188+1064373101+1065645778+1066799351+1067760172+1068422498
916+1068812606+1069123886+1069387027+1069415924+1069254690+1069328274
908+1069957676+1070998091+1072021309+1072586204+1072406174+1071409040
899+1069741461+1067433292+1064233348+1059593099+1052721399+1043260041
891+1032498707+1023488447+1019177443+1020347447+1025535329+1032633602
882+1040155673+1047279070+1053502317+1058613546+1062663263+1065776005
874+1068123748+1070001597+1071646800+1073000861+1073741823+1073491597
866+1071941778+1068790933+1063448401+1054319996+1037809721+1008906334+965802566
856+915979510+875602981+859347918+870001080+898414819+932046040+962315571
846+985858270+1002175090+1011589651+1014858896+1013501894+1009457676+1003989391
836+997001272+987403677+973907754+955794597+934023621+912338825+896751331
826+892586474+900834164+916776668+932228883+939560056+934413218+915985264
816+886166192+848852282+809379227+773739865+747613135+735117925+737480564
806+752603918+776241298+803900906+832042617+857906143+878044574+886708136
796+876885823+845718251+800332718+756613294+729804482+725479798+738602938
786+759346094+779267925+793882771+802054958+804538043+803095629+799965050
776+797059700+795162800+793754845+791195618+784252379+768071668+740145149
766+706969245+683882375+683656379+705442826+737199139+767342854+791623062
756+811108116+827755652+842535888+855841744+868116774+879641701+890188546
747+899378005+907129589+913603255+919021609+923638395+927828121+932238473
737+937500963+943518352+949428592+954429604+958281454+961169414+963539277
727+965895266+968498414+971430551+974937045+979414205+984993410+991248558
717+997367662+1002640253+1006946717+1010877586+1015145627+1019822700+1024472347
707+1028946438+1033543789+1038382927+1043067352+1046975334+1049627324
698+1050485919+1047574880+1035619824+1006848263+957010695+893351730+835116489
688+801009621+794199806+802853011+815531958+831427728+854400097+880017105
679+891348129+871949701+826757240+785033170+774092062+795738947+836504945
669+884032938+924427624+948568527+961534525+969991717+975780999+977956703
659+975297552+966894766+951921842+931051528+909316162+895746014+896915123
649+910864126+928959701+943183161+950970035+954979156+959767916+967723057
639+977708267+987536845+996131234+1002930244+1007267012+1007800070+999926185
629+976604624+938304897+901234821+886838172+900396620+927472344+951896525
619+968752732+980357509+988753583+994878440+999890128+1004475907+1008454277
609+1011578591+1013976775+1015902700+1017443695+1018481297+1018912513
601+1018896786+1018911426+1019521137+1020934207+1022863009+1024895443
592+1026799184+1028502948+1030093938+1031643372+1032835752+1033189163
584+1032788762+1032349620+1032506890+1033383322+1034784117+1036538259
575+1038513219+1040497065+1042345186+1044002345+1045142620+1045379996
567+1045111486+1045236471+1045916890+1046559014+1046625311+1045283652
558+1040571225+1030072713+1013076113+992605369+975365319+968311287+973775800
548+987825431+1003805589+1017130561+1026740303+1033480561+1038371292+1042080128
538+1044916815+1046852714+1047709071+1047103068+1043763370+1035135418
530+1017814304+988252682+945379195+896311229+856522738+838656675+844468078
520+867146875+895730031+918674910+927835728+920710285+899324495+868705580
510+836701150+813259974+806736123+818132804+840453076+865202027+887774954
500+907482361+924812617+939660684+951742003+961570774+970117469+977654948
490+983774947+988525668+992811483+997468097+1001953057+1004325989+1003386649
480+1000349345+997575182+996261525+996161601+997249069+1000239128+1004734700
470+1008332296+1008731482+1005272361+998949445+992080047+987094698+985162955
460+986143019+989573243+994715351+999796085+1002948848+1003425391+1001538975
450+998276890+993948945+987368387+977625924+965976843+955039187+947123236
441+943304055+943020840+944609784+946557190+948947063+953542432+961659318
431+972276423+982555972+990406905+996365861+1002660135+1010234822+1017340766
421+1021699974+1022216345+1019123166+1014454788+1010712835+1009257188
412+1009709692+1010603897+1011583449+1013723352+1017291028+1020746121
404+1022706122+1024506102+1029492410+1038650415+1046916581+1048807919
395+1046688027+1044000619+1041567912+1040512153+1041199541+1042738874
387+1045975259+1052694356+1059415562+1059874396+1055484182+1052625694
378+1054788356+1061265601+1068494037+1072586204
##END=
