##TITLE=HMS-Q159
##JCAMP-DX=4.24
##DATA TYPE=INFRARED SPECTRUM
##DATE=11/1/2021
##SAMPLING PROCEDURE=Diamant-ATR
##ORIGIN=Angelika Moesle
##XUNITS=1/CM
##YUNITS=TRANSMITTANCE
##RESOLUTION=4
##FIRSTX=3997.453
##LASTX=373.96442
##DELTAX=-1.4165319
##MAXY=0.8875035
##MINY=0.43221539
##XFACTOR=1
##YFACTOR=8.2655205e-010
##NPOINTS=2559
##FIRSTY=0.77401996
##XYDATA=(X++(Y..Y))
3997+936444301+936412211+936149001+935520830+934834031+934708412+935328073
3988+936139121+936490741+936241665+935623374+934952368+934625050+934948474
3978+935776612+936581819+936908633+936631577+935974922+935462635+935621787
3968+936511221+937629685+938348717+938386504+937944960+937451495+937130162
3958+936891109+936677296+936690204+937047810+937419982+937425895+937264435
3948+937359624+937542212+937428635+937291045+937625935+938210694+938491644
3938+938439290+938271557+938009428+937790567+937991977+938598370+939025131
3928+938935352+938569021+938193892+937758405+937202058+936743712+936685950
3918+937117687+937744415+938011231+937680812+937156772+936878634+936586363
3908+935723754+934502026+933945751+934733939+936316229+937711316+938610269
3898+938984749+938557771+937326452+936142367+936282625+937729921+938472606
3888+937529160+936601073+937327678+938568299+938619571+938377706+939041140
3878+939469632+938557483+937283978+936864572+937409886+938844634+940887362
3869+941797781+940441924+938500081+938276965+939837622+941298186+941502913
3859+940567111+938957923+937690115+938800934+942924104+946102458+945822662
3849+943769622+941680238+940142801+939185293+938573564+938011592+937816888
3839+938876147+941041322+942653683+942875500+942422995+941845880+940948008
3829+939939156+939736015+940471922+941055456+941178912+942024574+943553934
3819+943738902+942615319+942288506+943071790+943157532+941935011+940368225
3809+939550038+940060377+941140044+941221459+940460096+940497522+941517768
3799+942013036+942083634+942883072+943994973+944198186+943614436+943093496
3789+942754063+942358383+942235647+942710147+943172748+942923383+942422707
3779+942627650+943462640+943977738+943668809+942643587+941335973+940515911
3769+940712057+941520437+942333360+942952661+943045181+942430134+941899531
3759+942523159+943895963+944308374+943031047+941051201+940281546+941952318
3750+944174749+944126218+942578181+942291246+944082157+945378233+944582257
3740+942708560+940937841+940154484+941247419+943994613+946359683+946616908
3730+945067501+943308680+942777139+943556025+944362242+944395413+944307148
3720+944746312+945236893+944960630+943882189+942918984+943316324+945399146
3710+947738616+948807105+948468393+947293682+946125173+945890880+946774257
3700+947880677+948465365+948537405+948111653+946957999+945218937+943932163
3690+944628408+947462498+950152290+950972208+950518549+949977489+949717452
3680+949185479+948007235+947280197+948693023+951033215+951291738+950173347
3670+950483214+952462843+953632434+953175530+952194080+951383825+950562104
3660+949388764+948196962+948057425+949238482+949928958+948645501+946495326
3650+945985924+948466735+952037308+953963069+953806513+952521759+951142177
3640+950275386+949989821+950067702+950295505+950459849+950245531+949693006
3631+949966312+952576420+956100625+956955661+954877526+951894453+949615629
3621+948987170+950070803+951437765+951788808+951749002+952320854+953152670
3611+953457417+953554552+954149480+954925048+955094657+954714048+954526772
3601+954928582+955483415+955735736+955996278+956649400+957189954+956790884
3591+955591872+954745777+955323686+956865521+957677290+957249952+956469912
3581+955994115+955737755+955604419+955916810+956816268+957738730+957910573
3571+957252476+956553274+956721440+957702024+958383631+958229454+957897954
3561+958109676+958818685+959391762+959412675+959141460+959117446+959500219
3551+959960801+960214997+960397081+960826726+961615852+962540766+963229872
3541+963383327+962919500+962154460+961780701+962255778+963137640+963533032
3531+963276384+963116151+963598510+964286535+964556019+964676807+965338222
3521+966401735+966973659+966691699+966144655+965927813+966002233+966245828
3512+966920079+968121616+969270294+969693089+969411346+968954730+968652652
3502+968339107+967735382+966961544+966491660+966619371+967012527+966830948
3492+965269571+961933868+956607503+948665188+936986514+920626737+899423819
3482+874277651+847489412+822577393+803105028+791426931+788034620+791669373
3472+800199692+811538068+823995483+836310837+847626353+857513179+866008307
3462+873427806+879988664+885659294+890343859+894137980+897460487+900878830
3452+904623410+908420633+911995388+915421592+918750805+921728253+924195218
3442+926293689+928078543+929439159+930557118+931960785+933924983+936106527
3432+937966738+939382520+940650040+941966596+943183132+944127660+944900993
3422+945728699+946686568+947638308+948320347+948513391+948316885+948221120
3412+948696917+949728341+950953386+952159538+953330499+954280003+954636527
3403+954345481+953980665+954322694+955560503+956981982+957574530+956830258
3393+954774261+951406252+946253317+938116227+925029559+904878111+876656927
3383+841668211+803977083+769673507+744775406+732586682+732340273+740235859
3373+751919509+764447018+776574591+787922269+798368326+807968360+816775086
3363+824625024+831339698+836981194+841741838+845785396+849281982+852398174
3353+855250580+858004120+860868857+863804408+866404132+868320374+869689067
3343+870933727+872312732+873845986+875512648+877305290+879146391+880915885
3333+882654154+884654696+887117118+889717996+891884252+893522140+895017391
3323+896529732+897830135+898829612+899744070+900720544+901686056+902561212
3313+903348175+904023580+904532260+904935585+905479889+906436821+907825561
3303+909281582+910294689+910708326+910903606+911319334+911901930+912273670
3293+912388761+912705839+913586332+914775609+915723599+916233794+916520008
3284+916813145+917230531+917817021+918434376+918836619+919019063+919222636
3274+919554714+919940876+920415015+921081694+921762939+922043457+921840316
3264+921699336+922196335+923203024+924121159+924680967+925039871+925291110
3254+925414567+925526413+925718304+925856255+925822939+925648788+925251665
3244+924423526+923183481+921819908+920564792+919478202+918607229+918113620
3234+918246018+919122256+920467945+921734888+922561873+922901810+922752538
3224+922126746+921229812+920276559+919198262+917824161+916243385+914707030
3214+913268532+911831260+910543549+909839516+909947108+910609748+911466227
3204+912463686+913716495+915169559+916548637+917600540+918354980+919086055
3194+919923136+920700219+921350312+922149750+923330879+924752647+926146652
3184+927382081+928339950+928854400+928961631+928976630+929167584+929497282
3174+929824816+930241121+931019142+932212097+933404331+934021613+933949068
3165+933680810+933735039+934109446+934490849+934729685+934846146+934802735
3155+934620434+934604714+935150677+936291134+937603796+938625845+939277597
3145+939771423+940151311+940161983+939694839+939126017+938969316+939346320
3135+940008744+940687971+941208406+941476160+941566588+941616418+941558079
3125+941215113+940643766+940084895+939648687+939338892+939310264+939819882
3115+940868757+941992628+942556331+942382901+941992484+941992628+942354128
3105+942612146+942635078+942693056+942790192+942510107+941668195+940609008
3095+939685897+938885306+938117885+937468441+936972236+936437811+935665631
3085+934679855+933608986+932436439+931043083+929504709+928170846+927363476
3075+927110217+927172955+927196031+926910250+926351162+925800152+925443195
3065+925202340+924880286+924274902+923166391+921410670+919174826+917075562
3055+915988395+916504720+918461418+921063593+923455417+925118473+925886831
3046+925857625+925365458+924879637+924733826+924856417+924820433+924281465
3036+923366142+922531874+922103815+922080522+922330680+922810011+923573177
3026+924697769+926234917+928140992+930175571+931902374+932950744+933353276
3016+933531898+933906305+934599017+935476336+936292865+936825776+937072472
3006+937315635+937852656+938679713+939506049+940057997+940335846+940572375
2996+940939643+941368712+941725092+942047867+942484723+943066238+943655396
2986+944055403+944109776+943765223+943111236+942335307+941592837+940898107
2976+940169988+939374444+938573419+937828066+937097567+936242963+935120894
2966+933658311+931845117+929720253+927375014+924911511+922449521+920266607
2956+918767463+918158906+918344668+919200930+920636183+922367746+924014000
2946+925403822+926551635+927457799+928078831+928300288+927933957+926946234
2936+925559080+923953642+922065090+919741557+916939774+913802885+910678976
2927+907991348+906105320+905378932+906079720+907995891+910355913+912415082
2917+914019439+915484330+917062437+918682154+920157862+921485162+922813545
2907+924227741+925696238+927154062+928491025+929519781+930081032+930210041
2897+930171533+930283235+930680862+931308457+932112654+933065403+933965654
2887+934493228+934569451+934457677+934433087+934561879+934824440+935163657
2877+935339395+935068469+934467484+934063366+934187327+934619209+934980420
2867+935188175+935338746+935403719+935251418+934820402+934172112+933478535
2857+932956081+932692726+932567755+932460524+932501268+932991992+934089110
2847+935659430+937396689+938958211+940069535+940725037+941264726+942056304
2837+943110875+944152106+944984572+945648222+946261177+946843701+947308249
2827+947602900+947806690+948019638+948218740+948328351+948380200+948479354
2817+948619325+948626824+948373277+948033556+947988485+948383373+948935537
2808+949319896+949570343+949910353+950330119+950560302+950450907+950207312
2798+950167145+950410236+950701714+950815363+950790268+950846444+951127538
2788+951527401+951767607+951717273+951564972+951535550+951574562+951496753
2778+951268950+950979419+950738203+950687147+950865626+951072083+951087876
2768+950967809+950933700+951114774+951495167+951958345+952343281+952580458
2758+952771556+953077385+953559961+954134336+954629243+954900819+954923895
2748+954822288+954781040+954851782+954907814+954899160+954993195+955279337
2738+955563964+955666075+955682517+955779148+955891859+955771576+955298807
2728+954731571+954521003+954799429+955246453+955578819+955896979+956380276
2718+956925302+957302233+957464630+957508691+957483596+957407878+957352568
2708+957361582+957409248+957512729+957689549+957770675+957527080+957028206
2698+956620555+956540799+956730382+956973834+957078108+957012702+956968209
2689+957181878+957641450+958038429+958068788+957726831+957262932+956938571
2679+956893717+957134211+957505518+957768440+957861465+958008430+958438653
2669+959078145+959623603+959843907+959731772+959442169+959163166+958978991
2659+958809815+958545379+958232051+958015713+957898747+957719404+957443646
2649+957315214+957571717+958095686+958523961+958645615+958521221+958279933
2639+958037924+957975547+958245463+958783782+959353831+959797899+960163581
2629+960581256+961070250+961548211+962023576+962625931+963387149+964121686
2619+964564528+964584215+964352013+964306221+964730747+965386537+965823971
2609+965981681+966165063+966543364+967007552+967423063+967722402+967838070
2599+967789034+967749083+967825450+967882131+967751247+967522001+967454432
2589+967676106+968098828+968597341+969118570+969549730+969644558+969343633
2580+969061168+969286520+969942742+970494546+970642882+970616128+970842128
2570+971497846+972286611+972668879+972445114+971950423+971542411+971215165
2560+970917485+970850782+971134976+971479385+971528854+971358309+971329824
2550+971591881+971991239+972408193+972932666+973672251+974501904+975107864
2540+975364152+975588277+976148302+976830990+977002762+976492134+975871823
2530+975673081+975738127+975616113+975246032+974900397+974665888+974330926
2520+973768449+973207775+973002255+973163570+973294310+973098453+972721593
2510+972379059+971997945+971592530+971583155+972247454+973204458+973930053
2500+974469886+975171107+975963766+976377331+976203612+975789110+975602628
2490+975708561+975832666+975874131+976101429+976690587+977298495+977411927
2480+977011776+976551555+976352885+976354255+976375312+976323391+976171594
2470+975940402+975717503+975633636+975769063+976034581+976224453+976271686
2461+976298007+976294185+976015904+975411097+974901190+974982749+975682744
2451+976588260+977317532+977799387+978112716+978257373+978208914+978073775
2441+978015436+978092092+978292636+978629401+979048518+979323771+979225266
2431+978801894+978377296+978234658+978400733+978769299+979282811+979859783
2421+980341854+980719506+981203020+981830182+982269346+982284778+982061085
2411+981801337+981414670+980916662+980750515+981333760+982469025+983485449
2401+983936368+983976030+983995500+984106121+984170517+984082828+983769284
2391+983216470+982717525+982697766+983139094+983532827+983441893+982837952
2381+982052288+981638435+982026399+983098278+984311785+985268861+985923930
2371+986368503+986704979+986997034+987185752+987107294+986548928+985430970
2361+984157176+983478671+983688590+984286618+984609826+984483990+984157681
2351+983770149+983165775+982312902+981624084+981679899+982556642+983685705
2342+984616388+985295038+985743360+986047170+986255286+986192621+985763552
2332+985189754+984627998+983913509+982940280+982012914+981743358+982591544
2322+984269167+985787133+986476455+986581955+986584912+986536741+986327038
2312+986112071+986162189+986534866+987079747+987552372+987684265+987390624
2302+986969632+986862112+987158061+987522445+987587346+987246255+986659404
2292+986178775+986143296+986576475+987173854+987648642+987971056+988285971
2282+988702060+989154637+989560269+990174739+991411971+993000175+993831847
2272+993241391+992051536+991746933+992815278+994348604+995177464+994955574
2262+994073351+992984094+991924330+990894276+989707090+988460483+987794525
2252+988003435+988411519+988498775+988873831+990247140+992232899+993825212
2242+994413722+994125561+993643489+993507341+993364342+992240687+989475105
2232+985063485+979458044+973368369+967578898+962878757+959959503+959074395
2223+960053033+962738787+966698911+970524834+972565975+972758515+972985957
2213+975113057+978830378+981965536+983118902+983116378+983302717+983672942
2203+983654481+983514222+983904855+984835898+985776244+986211514+985981043
2193+985697497+986616930+989202231+992002572+993093632+992589783+992430415
2183+993556377+994820652+995127851+995159580+996095887+997712936+998712053
2173+998553910+998005351+997944489+998643618+1000154733+1002236474+1003954263
2163+1004628875+1005123782+1006862267+1009471005+1010950535+1010559181
2155+1009435310+1008596931+1008268603+1008599743+1009596914+1010505674
2146+1010359574+1009090468+1007486184+1006389210+1006244120+1006974402
2138+1008119475+1009238731+1009993964+1010003051+1009232025+1008370859
2129+1008149329+1008436337+1008561380+1008311871+1008056232+1008101230
2121+1008504122+1009218035+1009834163+1009619413+1008413910+1006994594
2112+1006110496+1005778274+1005752674+1005914927+1006063190+1005957401
2104+1005571672+1005051453+1004706395+1005056213+1006411709+1008359753
2095+1009997498+1010707733+1010574830+1010110570+1009705515+1009408772
2087+1009276086+1009685468+1010873014+1012221444+1012697891+1012244159
2078+1011976334+1012580275+1013388223+1013639462+1013697729+1014270373
2070+1015271798+1016173131+1016855314+1017564467+1018287178+1018588391
2061+1018172231+1017300320+1016445427+1015912445+1016050756+1017175061
2053+1018967053+1020781545+1022653295+1024910701+1026783748+1026938285
2044+1025476711+1023836371+1022948379+1022759660+1023174667+1024252026
2036+1025629734+1026587026+1026721948+1026294538+1025945225+1026034068
2027+1026186658+1025687928+1024344186+1022812735+1022302756+1023829520
2019+1027111355+1030230865+1031516629+1031617370+1032132252+1032932051
2010+1032910201+1032537668+1033204708+1034551262+1034930429+1034069552
2002+1033265715+1033447438+1034223728+1034592366+1034110007+1033274873
1993+1032798643+1032805277+1032993923+1033237302+1033578178+1033959580
1985+1034278461+1034436531+1034186374+1033271267+1032136939+1032178332
1976+1034355766+1037657504+1039944043+1040228310+1039423897+1038842022
1968+1038428601+1037025078+1034403432+1031954567+1031080853+1031834789
1959+1033080458+1033480105+1032690691+1031827000+1032221022+1033760189
1951+1035124123+1035478195+1035173015+1034891561+1034852404+1035004777
1942+1035385170+1035734699+1035372190+1034119814+1032682253+1031645566
1934+1030839061+1030015104+1029298379+1028707202+1027969276+1026995542
1925+1026211897+1026279538+1027436726+1029397606+1031916059+1034612846
1917+1036560097+1037341723+1037811968+1038771424+1039919453+1040638918
1908+1040959242+1041187766+1041251729+1040842203+1039924357+1038890770
1900+1038208082+1038120032+1038748780+1039985219+1041256921+1042068546
1891+1042590135+1043112373+1043369670+1043042641+1042480236+1042304426
1883+1042622514+1043066726+1043565888+1044488422+1045929804+1047514474
1874+1048965087+1050308325+1051632885+1052942446+1053889210+1053864980
1866+1052935956+1051943978+1051583200+1052044791+1053232410+1054795590
1857+1056253991+1057423582+1058423420+1059327710+1060140777+1060868319
1849+1061511994+1062228647+1063204039+1064047610+1063990281+1063154498
1840+1062463301+1062426884+1062674302+1062485872+1061721985+1060886852
1832+1060471124+1060699504+1061553891+1062780091+1064167966+1065639635
1823+1066975445+1067942544+1068653068+1069395465+1070298024+1071284233
1815+1072145904+1072725976+1073130598+1073506232+1073741823+1073739588
1806+1073543370+1073036636+1072137178+1071203683+1070664571+1070371434
1798+1069713625+1068144531+1065522813+1062070144+1057829791+1052634166
1789+1046940892+1041678635+1037561883+1034779859+1032488127+1028760060
1781+1021473896+1008947325+990298700+966072614+938373452+911312844+892233853
1771+887788412+897263259+915009974+935104381+953679235+970291478+985601011
1761+998371827+1007635889+1015311027+1023299422+1030967132+1037282591
1752+1042675733+1047565962+1051242396+1053172412+1053777507+1053612154
1744+1052979295+1051926022+1050409859+1048550946+1046400843+1043703623
1735+1039841283+1033289079+1022109423+1005241325+981772203+951852628+917608472
1725+880685846+841912312+803761467+768465481+734579507+699240542+664081568
1715+634000317+608531374+584255098+560800399+540686883+527190616+522913702
1706+527206625+535365385+544934159+558722408+577336924+594660736+609021017
1696+623697331+636970987+645729181+651470337+656761151+662072950+667802784
1686+677269699+693742332+712047991+725167038+734355815+742722871+752015923
1676+763280167+775414663+785780026+794673720+804860244+816230998+825400016
1666+831956475+838682253+847503402+857380636+866001817+872623321+877726787
1656+882386401+889131361+899946706+909525467+914012588+917493237+924445016
1646+935004866+944738236+951912697+958000065+963635504+968375163+971721394
1636+972431701+968037533+957810481+942288145+919745667+887239565+845516561
1626+800689912+759080341+725453396+704105676+695062638+694580567+700301315
1616+710468369+720781955+728662830+735551222+743271286+752317930+762393473
1606+772693142+781842906+788641158+792868674+795376743+797677633+801123740
1596+806175574+812483245+819457811+826626432+833734117+840574483+846655360
1587+851361631+854655581+857325109+860256190+863432957+865911460+866602729
1577+864578606+859468939+852247315+844431774+837772339+834694871+836375739
1567+841416034+847909899+854012050+858380691+861870065+867485168+875432603
1557+880794303+883424819+886069613+889761624+894326843+899263224+903875316
1547+907869910+911773426+916053080+920729641+926806480+935103588+942328528
1537+946194041+948655958+952072426+956616949+960440204+962805490+964629141
1527+966587858+968413455+969996754+972392040+976602971+981710475+986396122
1517+990822957+995100448+998557372+1000958282+1002632082+1003802971+1004671205
1507+1004911916+1001897113+992820471+976123495+948884265+908761868+859416297
1497+813632139+785773897+777571112+781281006+792273819+809967243+831925611
1487+852932744+870228324+884304735+896530453+907774433+917852861+926265709
1477+933023650+937972579+939576214+934566422+920824685+901890567+884135775
1468+872427175+869572029+872871531+873247525+865512678+852542399+839714254
1458+832913551+835824223+844786063+855519631+867278134+879919220+893156459
1448+906639601+919211603+929571413+937386954+942555177+944881884+944953491
1438+944126506+943529127+943275436+942978189+942278410+939936199+933357747
1428+919903666+897429406+864550699+824180019+783966255+750131122+726510924
1418+718337922+728106050+752560660+787117567+826430575+863751333+893412602
1408+913120702+923008176+923299871+914323897+897472890+873781373+843921147
1398+810645172+777635004+746598047+719110751+697772550+683627272+676340242
1388+676087993+682699978+694144792+708112746+723595997+739970413+756189067
1378+771354159+785610418+800096427+815561002+831176291+845854912+859771017
1368+873207575+885374450+895474151+903712631+910393051+914675806+914622731
1358+907921038+892432378+867377793+834975821+800302524+768811836+744143053
1349+727588211+718516617+715304947+716263465+720121189+726117551+733639522
1339+741791107+749778925+757526536+765248475+772577185+778235556+780534787
1329+778662822+773699326+767731449+761557186+753698594+742040832+726251969
1319+708511311+691905702+678191295+667470274+659699298+655691003+656548852
1309+662539373+672632079+684990556+697912159+710407939+722162258+733215285
1299+743615551+753224238+761822920+769328017+775851015+781623684+786864957
1289+791613775+795701105+799008035+801821788+804886493+808901278+813713915
1279+817895136+819103451+814900885+803630223+785532969+763969273+745175702
1269+735237749+736285110+745693686+758775667+771781713+782730538+790741936
1259+795771559+798889915+801882651+806065891+811537923+817587648+823572111
1249+829242381+834472693+839049594+842788189+845709822+848030904+850001735
1239+851803391+853565890+855384565+857310038+859373606+861580389+863865343
1230+866167531+868542264+871068145+873672123+876177740+878484760+880596571
1220+882520314+884224906+885677178+886852393+887664595+887915546+887383068
1210+886020216+884126689+882382507+881640110+882510795+885043238+888741089
1200+892791786+896210130+897765017+895919878+889313878+877958051+864237947
1190+852337023+846012839+846486040+852219552+860460268+868866193+875959961
1180+880645391+881659941+877583932+867643816+852932455+836840575+823671050
1170+816252848+814857834+818200243+824564883+831716052+837305123+840728875
1160+843700627+848038259+853926092+860942627+869208222+878530768+887616424
1150+894974989+899905818+902283724+902124067+899822384+896570187+894203170
1140+894400253+897827178+903919377+911410268+919091319+926228427+932452952
1130+937418828+940583697+941087113+937500243+927347539+906817069+872055147
1120+822990237+766999219+717303109+685597022+675454125+682346772+698614750
1111+717796791+735963128+751498445+764603790+776408733+787864796+799119160
1101+809640791+818873340+826932837+834610571+842412411+849214629+851436628
1091+844094577+824849655+798503320+776018172+766875475+772251670+786053693
1081+801320896+814515660+825065271+833261709+839298887+843280356+845288830
1071+845443079+844102726+842019759+840260361+839918765+841652202+845300945
1061+850051709+855055516+859834188+864229366+868240906+871936594+875367413
1051+878534806+881465381+884293052+887228315+890379050+893569302+896409449
1041+898554287+899703687+899298343+896468292+890673268+882584421+874184626
1031+867729918+864557045+864802155+867806429+872506354+877797673+882961137
1021+887771249+892129867+895478117+896577543+894558251+890727857+888446221
1011+890161631+895173009+901012599+906084407+910168493+913386148+915751939
1001+917292692+917879976+917032943+914243059+909683248+904631920+900972432
992+899989757+901640049+904934720+908750330+912302659+915288617+917838511
982+920225215+922550839+924740172+926707686+928405067+929826331+931152333
972+932833345+935321223+938585751+941926069+944463487+946026091+947452907
962+949742114+952879941+955661893+956517290+954370720+949234948+942537077
952+936373559+931439485+925493818+914195104+893413179+860955391+817455899
942+767127435+717558531+677251238+651967119+642700028+646461915+658558553
932+674675456+692085045+709775946+727609629+745280842+761958275+776655141
922+788803050+798526973+806376119+812806020+818066547+822487830+826533190
912+830536221+834583962+838594276+842379888+845737513+848560641+850875666
902+852861136+854772187+856674367+858390209+859877455+861394700+863097634
892+864699539+865637216+865474314+864322679+863032084+862684214+863656361
882+865333912+866825340+867820130+868720886+870061888+871902629+873824857
873+875463683+876894537+878458006+880306391+882146555+883278792+882855852
863+880372951+876094811+870824549+865250694+859963774+855988146+854255213
853+854204590+853941740+852467474+851189931+852739122+858559818+867889142
843+878792103+889629514+899079626+905210117+905910040+900896931+892609775
833+884539605+878929621+876167861+875714346+876944728+879221604+881831712
823+884244809+886360370+888432376+890737088+893185808+895311249+896834407
813+898056279+899455548+901176438+903057346+904786168+905987705+906572536
803+906965477+907681264+908768142+909870596+910749719+911608217+912898668
793+914752533+916259466+915160545+909211489+899169262+889963106+887118921
783+891803630+900490938+909083129+915970439+921484369+926140089+929984689
773+932867238+934706392+935526743+935471361+934820330+933813641+932331804
764+929821355+925481054+918265416+906586382+888271637+861611109+827761697
754+792831248+766267495+754986954+758461906+769704372+779878060+781339778
744+769319724+744483567+713852603+687925891+677003676+688069323+720238805
734+762338523+798538944+817137090+812766070+783608650+732209390+669780611
724+615311742+586451966+589649899+617877573+657232766+695746841+726251464
714+742992067+738942091+710536876+667065363+630638077+619781701+632837865
704+650664770+654405888+639304256+615287007+597998386+597377354+611875442
694+632296373+650185943+662933034+673171624+684880801+699675235+716197626
684+732391906+747232276+760382186+771608067+780992485+789051549+796256587
674+802494525+807306873+810810814+813918858+817295088+820172589+821964294
664+823601966+825646641+827693984+829492034+831806698+835439215+840011141
654+844456653+848171379+851288797+854324008+857728867+861548588+865541235
645+869655607+874083813+878734125+882871934+885254022+884130223+876794301
635+859714121+830531895+791304989+750031679+717561272+701271010+701120656
625+711310353+725197397+738814957+751030579+761997360+771906612+780835063
615+789196279+797476296+805425317+812317458+818044552+823247534+828481811
605+833845459+839186247+844313582+849183548+853865517+858179569+861659353
595+864137639+866216928+868950781+872860570+877206279+880401219+881235343
585+879906744+878152971+878050427+880103755+882508776+882722661+879810979
575+875311094+872078656+872231606+875911862+881370265+885653741+885474614
565+878456420+864594183+847097265+831695644+824152256+827076846+838341090
555+852547952+864373302+871208043+873521841+873330671+872341073+871103191
545+869438260+867326737+865322590+864167061+863727103+861660939+852778207
535+830567662+791623654+740735382+691218904+657117459+643539921+645462870
526+654503024+665528720+677763957+691671048+706501683+720487665+732445990
516+742522687+751137883+757975291+762580821+765469643+767868534+770530131
506+773613512+777499433+782532084+787879795+791926887+794015189+794664634
496+794417144+793355938+791337079+787909577+781757453+770684307+753504107
486+733209372+717361160+712603617+718678220+730007077+741677314+751885904
476+760619580+768017951+773510103+776142854+776196362+775579584+776091654
466+777837135+779252990+778800773+776670573+774315454+772024804+767095706
456+755066277+733776608+706654705+683151186+673046725+677902125+691326135
446+705682269+716241038+721544183+722318670+720218830+716466605+711652599
436+706862677+703641056+701945405+699730762+695885441+692230280+691184506
426+692471784+693431456+692137543+689356817+687065518+685908835+684675714
416+683028234+682846511+686003519+691780010+694990165+689118630+673775349
407+656035917+642514483+633750159+628221230+626657329+629050306+631069886
397+629703284+629076555+631816754+634542098+634448207+633820397+636451417
387+642021595+646315311+647271088+648306550+653354201+662327867+672268488
377+679747192+682408572+680774722
##END=
