##TITLE=JMB082_ANW014
##JCAMP-DX=4.24
##DATA TYPE=INFRARED SPECTRUM
##DATE=18/6/2018
##SAMPLING PROCEDURE=Diamant-ATR
##ORIGIN=Lara
##XUNITS=1/CM
##YUNITS=TRANSMITTANCE
##RESOLUTION=4
##FIRSTX=3997.453
##LASTX=373.96442
##DELTAX=-1.4165319
##MAXY=1.0211761
##MINY=0.52407551
##XFACTOR=1
##YFACTOR=9.5104436e-010
##NPOINTS=2559
##FIRSTY=0.84431332
##XYDATA=(X++(Y..Y))
3997+887774917+887923577+888086965+888377391+888847312+889444271+889951732
3988+889968090+889255124+888120558+887261814+887151448+887563145+887798106
3978+887500347+887074172+887097862+887600749+888213188+888697712+889033951
3968+889258132+889353896+889261579+889106088+889256064+889792105+890173156
3958+889861546+888972532+888072676+887637162+887847993+888678534+889825885
3948+890520990+890054516+888803441+888077689+888613667+889672838+890237207
3938+890143699+889620068+888903592+888505682+889029564+890296308+891241101
3928+891171408+890462140+889891567+889646077+889286836+888737885+888586843
3918+889332776+890645646+891562048+891541805+890951991+890400031+889918203
3908+889156790+888306884+888264705+889580960+891523066+893087317+894143041
3898+894575859+893797338+891735339+889490962+888880090+890430490+891882494
3888+891522878+890692463+891214527+892232898+892074963+891814745+892834369
3878+893564571+892462908+890635681+889496602+888969398+888989830+890349078
3869+892209083+892668224+892045130+892003014+892919354+893623671+893191855
3859+891267047+887825682+884110499+883874222+890076263+896626515+898007134
3849+896305504+894189356+892782476+892238288+891999881+891270369+890284525
3839+890548315+892644721+894820158+895648505+895543465+895182345+894592029
3829+893892976+893553854+893184084+891551895+889016716+888355330+890777134
3819+892947118+893433083+894467874+896339536+896682920+894875561+892163269
3809+890088735+890190203+892266428+893669485+893493374+893807491+895487185
3799+896439812+896194636+896267587+896776115+896457298+895051421+893423619
3789+892226756+891540301+891378041+891650605+891779586+891464341+891576463
3779+893073717+895116726+895958736+895210485+893616464+892225127+892103103
3769+893229146+894065264+893895671+893575601+893393913+892770631+891967667
3759+892018495+892730959+892542063+890901853+888906914+888613291+891505204
3750+894912851+894920748+892713599+892184452+894895930+897093929+895922197
3740+892637138+889447404+888491142+891130922+895941375+899543622+900345270
3730+898991725+896946271+895643491+895621869+896152959+896557700+897029125
3720+897578891+897582965+896577191+894763815+893066134+893012736+895390544
3710+898273243+899402796+898904484+897614615+896177526+895398440+895711554
3700+896311145+896212435+895436608+894387653+893164906+891835302+891159062
3690+892590259+896160166+899155175+899869646+898987588+897558334+896100752
3680+894544272+892724755+891591881+893024895+895799923+896172199+894822665
3670+895158905+897612108+898965527+898274810+897162367+896663554+896430537
3660+895677523+894526035+894228025+895328748+895911480+894224954+891443346
3650+890852529+894594160+899007393+899951246+898601524+897266216+896768594
3640+896532380+895766393+894692870+894212670+894514941+894583380+893583623
3631+892646226+894421559+898522054+900606741+899491353+896848063+894330746
3621+893378307+894659528+896560019+896998666+896414618+896241766+896526238
3611+896483871+896406470+897136922+898203551+898425538+897822124+897443392
3601+897999676+899025631+899576713+899489472+899273564+899008646+898103149
3591+896450968+895159406+895753419+897927039+899238280+898743540+897567485
3581+896804505+896685803+896968834+897507632+898247923+898883175+898880042
3571+898021925+896870437+896647573+898018165+899613565+899822014+898999057
3561+898312853+898236016+898291920+897849638+896928911+896137604+895961493
3551+896176837+896267713+896330260+896965763+898242283+899249811+899220982
3541+898420148+897532952+896879462+896438057+896211808+896213501+896315469
3531+896433232+896605645+896726666+896592358+896383783+896594928+897316605
3521+898051820+898362552+898293361+898092370+897819993+897357593+896746345
3512+896384848+896671827+897355650+897654850+897274301+896779562+896749165
3502+896964070+896849379+896376575+896021158+896176085+896772229+897320052
3492+897360602+896940317+896528996+896435112+896506308+896545980+896721088
3482+897242902+897847507+898048624+897865619+897829332+898270172+898857354
3472+898922158+898188635+897135418+896554253+896728985+897251989+897669767
3462+897960255+898329712+898846073+899317623+899418401+899018110+898357288
3452+897775621+897463698+897575068+898188886+899004385+899497620+899502571
3442+899270368+899061480+898929553+898766855+898440956+897997295+897702733
3432+897766909+898108476+898532960+899018674+899630236+900223497+900483150
3422+900295821+899879485+899442781+898959824+898442021+898136742+898229748
3412+898532772+898683249+898559345+898351459+898286467+898435503+898743227
3403+899066055+899204750+899102969+898975242+899019489+899107168+899009085
3393+898776820+898654733+898773686+899120956+899642331+900211902+900589193
3383+900571581+900241922+899956009+899966914+900156813+900266992+900231143
3373+900137071+900044064+899935390+899737343+899443847+899279456+899511094
3363+900056160+900584617+900998760+901442421+901894104+902140847+902131822
3353+902020891+901876054+901628621+901304791+901078354+901068264+901237292
3343+901486166+901740743+901966867+902158395+902301289+902377374+902450450
3333+902618727+902794148+902729846+902409838+902187224+902342778+902669492
3323+902695501+902260802+901748139+901688035+902169237+902748898+902980036
3313+902809879+902411029+901941296+901599228+901577919+901814948+902045270
3303+902140094+902199571+902368098+902709979+903173632+903618171+903951653
3293+904207546+904429157+904568792+904545102+904317098+903921632+903512818
3284+903360836+903707103+904493271+905246285+905466769+905193515+904916000
3274+904963568+905292538+905710879+905954677+905789220+905337161+905036958
3264+905107653+905319926+905315414+904922079+904277614+903765076+903674827
3254+903917371+904229795+904565596+905024173+905464700+905523174+905138175
3244+904791907+904934613+905405412+905766658+905934935+906101895+906287407
3234+906321375+906143823+905907547+905825884+905950540+906123768+906192457
3224+906178607+906157925+906110356+905977364+905772925+905604711+905632726
3214+905961069+906507326+907024752+907337678+907541803+907860808+908272819
3204+908469863+908255020+907780838+907343820+907129228+907152668+907316620
3194+907557346+907892897+908213781+908249505+907950180+907653110+907667650
3184+907940591+908268808+908623474+909121284+909785177+910429454+910785060
3174+910718439+910338829+909900558+909585251+909401306+909319706+909379747
3165+909580927+909819209+909975327+909939165+909655319+909281413+909071898
3155+908999260+908828038+908581107+908503581+908575717+908489291+908082169
3145+907463838+906774186+906108852+905635108+905547679+905926411+906754946
3135+907939274+909150740+909905384+910089517+910152566+910492628+910891416
3125+910830999+910236610+909646294+909605432+910088201+910686601+911206911
3115+911748341+912277676+912539586+912430222+912191564+912193820+912616485
3105+913285581+913795173+913837791+913458495+913046421+913046358+913503055
3095+913866244+913472283+912250789+910727025+909385450+908293000+907313737
3085+906394828+905528877+904618178+903520088+902119663+900255334+897717022
3075+894522776+891187077+888493962+886873682+886138279+885951012+886272649
3065+887047849+887746714+887638290+886386839+884140081+881204924+877796462
3055+874037157+870165104+866623274+863773415+861672120+860329668+859983777
3046+860891029+863016077+866052325+869572658+873102893+876214098+878659404
3036+880454981+881826764+883023063+884171041+885312063+886456218+887514511
3026+888302121+888752488+889046862+889395386+889797745+890207062+890827899
3016+891962653+893548840+895105633+896183418+896685678+896726603+896328819
3006+895387410+893996198+892696239+892146347+892559800+893731970+895486433
2996+897640686+899624094+900725067+900835935+900515552+900259283+900063430
2986+899718103+899187201+898582408+897972038+897339669+896669696+895975595
2976+895206787+894162219+892576784+890327769+887531809+884412206+881051313
2966+877317955+873129028+868727389+864495532+860531726+856669324+852897548
2956+849523242+846899444+845133762+844061179+843456387+843257714+843498691
2946+844050462+844643535+845178448+845788631+846533059+847212620+847569793
2936+847571234+847431160+847378515+847421885+847377763+847150574+846904897
2927+846917306+847348996+848199905+849316986+850394583+851180688+851767807
2917+852477326+853448379+854580501+855809704+857113549+858311290+859212838
2907+859942601+860826413+862000651+863374189+864884354+866518360+868135695
2897+869541133+870753790+872004865+873447594+874982326+876362946+877412152
2887+878149686+878703338+879072105+879072042+878573793+877654946+876430758
2877+874870957+872910926+870647998+868325218+866151348+864199340+862471011
2867+860992684+859777333+858728315+857732569+856918887+856668447+857201291
2857+858253255+859359681+860367460+861424751+862592784+863827815+865282640
2847+867221674+869594969+871997971+874108729+875951311+877694180+879378637
2837+880912367+882224799+883354539+884404811+885443174+886455152+887399632
2827+888282003+889110600+889817801+890362052+890903231+891660570+892573838
2817+893366462+893964173+894528855+895078433+895469010+895761065+896186301
2808+896739263+897185619+897470404+897761645+898111986+898403791+898607039
2798+898819688+899065804+899240410+899255953+899169402+899189834+899533218
2788+900187898+900886074+901377993+901653691+901853930+902100673+902440799
2778+902824983+903142045+903351999+903539140+903786071+904066657+904280372
2768+904360906+904370182+904470521+904738071+905052814+905271292+905417320
2758+905589733+905779694+905905416+905948848+905948221+905931613+905936564
2748+905999801+906065482+906043421+906026437+906243661+906704432+907107105
2738+907217597+907152417+907188579+907426611+907731514+907941092+908040679
2728+908101096+908113818+907989914+907700428+907345763+907096701+907097829
2718+907396152+907930939+908544506+909009476+909179256+909144034+909085623
2708+909026021+908917409+908834619+908845398+908889019+908959338+909158449
2698+909451883+909645918+909666099+909633321+909663529+909754342+909862516
2689+909996322+910169801+910265189+910045332+909405317+908529465+907740978
2679+907287414+907254386+907537103+907878294+908067879+908128922+908242987
2669+908506401+908847028+909159828+909403688+909567327+909683459+909872293
2659+910226457+910669052+911031803+911218944+911232481+911160658+911169871
2649+911390981+911813333+912336463+912831516+913150583+913239767+913232121
2639+913303254+913479428+913675343+913820242+913894698+913908361+913864427
2629+913744220+913577260+913510200+913683866+914023616+914247922+914149588
2619+913842053+913671457+913836600+914115745+914068928+913567922+913025927
2609+912984062+913536209+914301821+914893515+915237839+915466219+915688958
2599+915912450+916068066+916074584+915911886+915645777+915389194+915254761
2589+915335797+915654238+916088999+916437961+916614511+916657191+916500258
2580+915996243+915303332+914935506+915192214+915787167+916239226+916398478
2570+916435266+916531532+916764800+917160579+917686592+918232974+918690736
2560+919028042+919272591+919480477+919723961+920000285+920171382+920130895
2550+919968949+919847113+919810888+919834202+919898693+919957793+919959924
2540+919944569+920023850+920268274+920657974+921087220+921406225+921520039
2530+921496223+921535018+921750424+921996164+922024806+921829204+921656290
2520+921650461+921662243+921517093+921323622+921329263+921527685+921664562
2510+921684430+921870192+922367752+922850959+922916640+922626778+922414631
2500+922534148+922804456+922873584+922584036+922094247+921801252+922081525
2490+922875840+923582100+923638945+923131420+922556397+922169267+921907169
2480+921810966+922078704+922631354+923018672+922991096+922855472+922990782
2470+923357606+923770746+924261787+924866329+925405943+925688472+925650868
2461+925295513+924760412+924352287+924257150+924306974+924196858+923829470
2451+923350148+922989654+922981945+923465654+924277581+924991174+925358186
2441+925523830+925631377+925538746+925154186+924729640+924583487+924748755
2431+925041563+925308424+925499638+925588759+925566636+925518190+925539561
2421+925540062+925352733+925050964+924873161+924872095+924941161+925063373
2411+925251015+925423867+925572339+925819458+926184778+926492627+926575731
2401+926449320+926319712+926430455+926785936+927116159+927253475+927366411
2391+927627381+927865350+927799293+927489626+927294338+927380701+927503728
2381+927366286+927006544+926678264+926533803+926594094+926820092+927058939
2371+927187293+927345353+927659282+927824989+927488937+926924819+926839333
2361+927557188+928673516+929499481+929776119+929823688+929877524+929578261
2351+928518401+926955027+925559428+924781909+924564184+924547074+924643277
2342+925084243+925810370+926448129+926821158+927013375+927097733+927121611
2332+927178581+927311447+927454843+927506924+927399064+927163226+926963237
2322+926934345+926981726+926903134+926726647+926764502+927313516+928332388
2312+929397701+930004875+929984005+929597815+929222593+929016587+928934674
2302+928928469+929012827+929225601+929579076+929972849+930173716+930042165
2292+929795422+929868248+930427729+931139065+931547066+931554022+931282837
2282+930650656+929535832+928298294+927656023+927995145+929000230+929878527
2272+929991526+929494781+929190567+929541033+930235198+930912942+931694848
2262+932721492+933748825+934454584+934737113+934593780+934021264+933151177
2252+932275888+931615818+931209134+931118258+931499183+932284474+933135571
2242+933921739+934869352+936043027+937041091+937314909+936594861+935168239
2232+933963229+934028158+935567277+937578135+938693022+938431614+937504808
2223+936892870+936959178+937467016+937890747+937626769+936641677+935844291
2213+935949707+936314149+935984427+935347985+935353625+935682407+935348236
2203+934804235+935726591+938606157+941929322+943992762+944537765+944290395
2193+943702963+942665352+941215353+940029520+939816871+940387006+940892588
2183+941063183+941439471+942209219+942749208+942757857+942845035+943168552
2173+942467932+939902545+937063779+936500288+938754817+942097974+944494020
2163+944684482+942618598+940357863+940861126+943931593+945815100+944193629
2153+940889642+939445848+941287489+944471583+946130846+945528247+944013319
2143+942722697+941626549+940535415+939831411+939874593+940362689+940780215
2133+941105926+941560430+942022078+942164282+941840326+941146350+940515235
2123+940581480+941365204+941959843+941713289+941189720+941246501+941797834
2113+942198878+942224636+942062000+941826538+941531349+941200499+940912455
2104+940903806+941322837+941740865+941539810+940974000+941035921+942085628
2094+943433909+944362971+944741577+944660855+944200397+943660533+943557061
2084+944066340+944591914+944349997+943486115+942925005+942956655+942893606
2074+942329801+941753650+941770383+942544456+943975026+945712254+947084726
2064+947543178+947310474+947250496+947844008+948537545+948559857+948071573
2054+947813674+947975934+948179495+948151543+947897092+947555211+947259897
2044+946892948+946146890+944919129+943504791+942664913+943505356+946569681
2034+950950449+954827579+956741294+956193345+953794919+950947379+948789553
2024+947541173+946936944+946828959+947311038+948414331+949580359+949866962
2014+949151990+948338246+948036100+948011031+948103097+948690718+949867087
2004+951038379+951818468+952577624+953684991+954827140+955526444+955778577
1994+955620704+954664442+952660603+950057800+947633678+946127211+946067484
1985+947209821+948500004+948992864+948309103+946368689+943697886+941644787
1975+940949432+940770000+940197734+939718287+940270247+941634509+942525654
1965+941904190+939756956+937124258+935658153+936272597+938081523+939421218
1955+939656366+939415514+939445347+939910504+940657439+941467110+942043324
1945+942289753+942570340+943212548+943926078+944336021+944646126+945273043
1935+946238267+947129726+947522810+947338238+946818868+946216896+945672896
1925+945348438+945324121+945361537+945231365+945120497+945224910+945276051
1915+944990388+944526108+944108018+943726340+943327114+942940297+942604935
1905+942442738+942612393+942876998+942495383+941004271+938984701+937676907
1895+937767031+938715772+939481133+939593881+939291360+939056148+939152727
1885+939458884+939690397+939798633+940064617+940652175+941332614+941871161
1875+942373986+943005540+943698701+944420191+945462127+947027882+948610622
1866+949626486+950194615+950613959+950807555+950657329+950508606+950817583
1856+951503349+952055372+952147626+951924573+951707224+951573543+951409152
1846+951258298+951170995+950735795+949645350+948354415+947537726+947424225
1836+947643705+947652229+947295433+946879849+946689073+946472601+945936560
1826+945378459+945080387+944753986+944152139+943536065+943111206+942654572
1816+941970999+941275769+940901425+940970929+941398420+942018756+942672747
1806+943200891+943555682+943987498+944901330+946289659+947540797+948134058
1796+948162825+948179119+948901925+950525026+952044404+952557381+952376632
1786+952173196+952151449+952085329+951856323+951520396+950959098+949973756
1776+948673483+947548756+947298315+948199049+949441852+950209093+950548153
1766+950603493+950397362+950202261+950285679+950394729+950328798+950560248
1756+951304300+951889853+951862339+951791707+952572422+954170454+955495483
1747+955913699+955673600+955229688+954941330+955044427+955360298+955303328
1737+954839048+954989776+956703565+958688351+959369981+959251278+958973011
1727+958559245+958100417+957836063+957647982+957244682+956865324+957363886
1717+959081498+960663047+961105517+960869804+960495397+960109144+959807374
1707+959895868+960361778+960540772+960188676+960009682+960482549+960870180
1697+960961056+961398700+961828949+961619810+961049174+960490132+959745266
1687+958750648+958449755+959885465+961522730+961376953+960077745+958612830
1677+957514426+957047200+956881932+956364317+955670466+955688892+956455757
1667+956732959+956162949+955594130+955814927+956584361+957023196+956839753
1657+956187830+955461139+956096704+959793586+963145079+963273119+962408548
1647+962884234+964951122+966518005+966820715+966587259+966236730+965910267
1638+966185965+967915547+970163183+970909303+970378527+969734563+969621564
1628+969933424+970190257+970270416+970288904+969977859+969067724+967989125
1618+967663915+968486434+969369745+969458427+969117737+968846740+968747779
1608+968597678+968068845+966745006+963939144+958722132+950445369+939334917
1598+926624616+914383107+904943889+899536477+897218773+895696638+893225072
1588+889913001+887653770+888803817+894538757+903776670+913648331+921860102
1578+928296915+933440663+935782308+934412091+931662384+930757513+933892220
1568+939685258+945007561+949010161+951735051+953001230+953536957+955692903
1558+960223397+962830837+962939449+962160301+960668374+958068642+954220154
1548+949354110+943857452+938172336+933041249+929765841+930714018+937131904
1538+943749529+947051322+949131182+952351125+956610433+959725085+961177465
1528+962234505+963732323+965274326+966277718+967288192+969181162+971432997
1519+973093012+974308803+975308309+975846606+975920999+975845290+975867225
1509+976535192+978964955+981939596+982797274+982255906+981652304+981491799
1499+981817572+982393661+982582181+981937841+980654490+978832716+975653511
1489+968892491+956180372+937001984+912287328+883945105+856131779+835353917
1479+826681689+830742889+844792007+864969150+887301048+906084973+916728325
1469+920632341+921391685+921283512+921052499+920489509+919463367+918522209
1459+919167426+923394834+929405660+932610812+933346340+933870222+935643487
1449+939558032+945586971+952410413+958537184+962432990+961008938+949777903
1439+923105536+874412254+808717023+753233641+726448086+726224783+747861952
1429+782982993+817221288+842856232+861746137+876547079+887411038+895251535
1419+902607634+910089203+915684007+919096355+921747980+924592825+927691997
1409+930565421+932831420+934709098+936554938+938044922+938658928+938534836
1400+938023613+937037018+935207786+932300456+928337527+923735586+919208539
1390+915578968+913686812+913816357+915249308+917174743+919333760+921636360
1380+923993109+926442113+929176027+932443224+936115414+939398593+941740113
1370+943456283+944966071+946235698+947246924+948358740+949774394+951050851
1360+951743135+952067217+952465565+953069293+953683298+954125894+954446842
1350+954824508+955388125+956117073+956856173+957489796+958096030+958815451
1340+959513376+959645553+958683776+956566061+953536581+949895478+946080896
1330+942786247+940745056+940323080+941363135+943355567+945677784+947759023
1320+949131245+949438906+948573833+946752122+944318285+941574719+938867629
1310+936692756+935581943+935822230+937276428+939555651+942322406+945304254
1300+948151669+950501649+952156964+953118867+953475789+953288522+952603257
1290+951585764+950514497+949572274+948800959+948325084+948374032+948967982
1281+949802847+950578424+951287128+952073171+952952470+953770476+954340110
1271+954562160+954501430+954403096+954582528+955249806+956432818+958033232
1261+959901697+961851762+963645772+965061363+966048962+966791698+967510555
1251+968237372+968877011+969418128+969951286+970490460+970924156+971193900
1241+971417893+971723736+972067935+972366007+972667401+973013355+973284791
1231+973396976+973462406+973599660+973790436+974031601+974385577+974793890
1221+975083940+975238115+975461105+975894425+976398378+976699333+976675204
1211+976418997+976096107+975811384+975560379+975227210+974668545+973857558
1201+972928371+972039169+971172905+970058770+968307127+965632062+961949406
1191+957348343+952089654+946619757+941485285+937188561+934129312+932674362
1181+933198996+935926392+940643087+946617438+952880522+958626555+963450609
1171+967334570+970417760+972749064+974206834+974482845+973043814+969333520
1162+963313355+955892077+948816816+944107328+943280109+946584597+952719516
1152+959474143+964952751+968389479+970033262+970562973+970669391+970878217
1142+971447224+972356857+973433075+974504593+975471634+976284501+976930721
1132+977462186+977946835+978363798+978637553+978764277+978783643+978673903
1122+978409235+978079075+977894566+978099632+978833844+980013911+981392650
1112+982695869+983605127+983716935+982639714+979918460+974655383+965342639
1102+950359382+928923205+901919235+872088721+843446923+820308865+806341534
1092+803722437+812444239+830141794+852818768+876280782+897460753+914865375
1082+928182224+937671079+943769146+946869759+947156048+944636350+939593380
1072+933118461+927034559+923118572+922314292+924498127+928801807+934178635
1062+939809037+945197397+950183397+954918392+959558563+963923538+967680273
1052+970793045+973503582+975964870+978164623+980112244+981894660+983588142
1043+985205916+986680921+987887436+988673416+988698109+987035650+981937591
1033+971385366+954710694+934510049+916866142+908454947+912128013+924925054
1023+940554969+953795671+962788470+968275540+971732949+974135011+975681338
1013+976051483+974698565+971173719+965749323+959746456+954641566+950614460
1003+946323314+940296757+932705134+926076040+923958889+928005110+936192815
993+944440622+949974508+952888795+954982882+957819956+961798365+966404944
983+970876400+974583999+977126573+978397328+978552130+977840856+976573674
973+975202267+974189662+973790310+974067826+975038816+976655650+978712572
963+980918718+983078988+985123000+986946592+988351591+989226191+989714976
953+990115393+990592208+991056112+991391474+991726711+992279548+993023350
943+993785890+994586347+995543675+996572261+997452251+998074529+998436465
933+998555355+998468867+998168037+997552214+996555089+995250993+993766524
924+992159091+990449564+988731514+987161559+985837470+984804935+984186292
914+984090591+984388224+984848180+985495715+986545297+987989091+989526832
904+990894855+992049602+993034944+993876828+994684368+995681680+996996368
894+998512299+1000031739+1001485122+1002898332+1004253569+1005417153+1006220243
884+1006732781+1007364899+1008421501+1009667938+1010636171+1011202482
875+1011591305+1011975238+1012296311+1012402918+1012288101+1012144518
867+1012055021+1011711135+1010668134+1008814835+1006413463+1003775940
858+1001051238+998299211+995633046+993139106+990707463+988242916+986048239
849+984613721+984013816+983922251+984186167+985018148+986692203+989316627
839+992800234+996839937+1000976595+1004724493+1007755477+1010146758+1012374652
829+1014804980+1017237688+1019167698+1020392200+1021177365+1021939342
820+1022865771+1023744319+1024235800+1024458413+1025067343+1026516339
812+1028496988+1030334994+1031670866+1032577679+1033300610+1034118992
803+1035318237+1037033153+1039041567+1040858202+1042178092+1043150837
795+1044143010+1045415269+1047079233+1049094039+1051202980+1053090748
786+1054722749+1056426196+1058529121+1060971982+1063348662+1065265322
778+1066609655+1067623701+1068767731+1070261726+1071765749+1072815895
769+1073405270+1073741823+1073637410+1072393229+1068922783+1061783470
761+1049502227+1031240554+1007290883+979150216+949085369+919239876+890855663
751+864130274+838456348+812684903+785687451+757301797+729065617+704610677
741+689846650+691586573+713652487+753254824+801618259+848815729+888573808
731+919353376+942322406+959131824+971033959+979062725+984471892+989063179
721+995114805+1004276131+1016030171+1027725548+1036113430+1038313058+1031944871
711+1015588014+989533851+956169968+919715625+885106997+855976351+832505061
701+810831228+784889250+749752541+704609487+653672705+604931353+567967291
691+551052646+557255313+582272240+617254336+654439319+690080670+722985099
681+752109729+776302069+795263798+809816367+821447818+831495527+840399331
671+848300871+856597062+867568318+880024669+889926914+897502743+905076191
662+913287398+921157414+927791396+933283416+938340738+943496769+948547698
652+952974406+956752888+960140418+963023995+965123786+966540066+967757611
642+969407724+972004448+975510993+979219595+982413340+985086086+987711075
632+990410268+992785882+994516968+995685754+996436324+996353596+994025802
622+987801512+978216328+969630025+967754916+974393912+985665433+996227247
612+1003632356+1008286002+1011350892+1013713971+1015957408+1018359344
603+1020974368+1023836950+1026876833+1029710272+1031882387+1033315464
595+1034262889+1034906163+1035253370+1035412935+1035775748+1036799885
586+1038543757+1040445125+1041875946+1042953104+1044188699+1045363439
578+1045730325+1045447044+1045691405+1047059679+1048938297+1050652712
569+1052255821+1054175740+1056742444+1059944273+1063168791+1065441308
561+1066348936+1066518654+1066948589+1068056269+1069325644+1069713589
552+1068632483+1066577190+1064569403+1063119655+1061956949+1060695971
544+1059748107+1060399654+1063436529+1067700036+1070724251+1070930570
535+1068469283+1063704142+1055543011+1041870055+1021276952+993170693+956747248
526+912447269+863941754+815416498+768458125+723768697+684506110+656845204
516+645650958+649368209+660628011+671171587+676149377+674993188+669872880
506+664639448+663687072+669261131+678930860+687098133+690173301+688614439
496+684944318+681681445+680468851+682045386+686433425+693499035+703835602
486+718722469+738687339+762037670+785304646+805325670+820638649+831227601
476+837248329+837972514+832763962+823739012+815302246+810163449+808732190
466+811236283+818380359+830394741+846013250+863141924+880478922+897009258
456+910787692+920385096+925731340+927369921+926497641+924156058+920148757
446+914072187+906492597+898332845+890829716+886002028+884846654+885787185
436+886207469+885261172+884094517+883340626+882324637+880543287+878359828
426+876356115+875114628+875403112+877868222+883005577+891142454+900949123
416+910473262+919666114+928505240+936228601+942937853+949553409+955652542
407+959534058+960685170+960487688+960847242+963002623+966794079+970771611
397+974473005+978737390+982555106+984453592+985138543+985903152+986302001
387+985532003+985378016+988664329+994105145+998451381+1001603762+1005818134
377+1012450487+1018389678+1017426145
##END=
