##TITLE=NR- 187
##JCAMP-DX=5.0
##DATA TYPE=LINK
##BLOCKS=1


$$ === CHEMSPECTRA SPECTRUM ORIG ===
##TITLE=NR- 187
##JCAMP-DX=5.00
##DATA TYPE=INFRARED SPECTRUM
##DATA CLASS=XYDATA
##$CSCATEGORY=SPECTRUM
##ORIGIN=Fabienne
##OWNER=
##XUNITS=1/CM
##YUNITS=TRANSMITTANCE
##XFACTOR=1
##YFACTOR=9.3364649e-010
##FIRSTX=3997.453
##LASTX=373.96442
##MAXX=3997.453
##MAXY=1.0024952842101513
##MINX=373.96442
##MINY=0.6335838407150957
##NPOINTS=2559
##XYDATA= (X++(Y..Y))
2559A069411253A068912210A068657294A068648037A068658507A068505417A068395994
2552A068678489A069245076A069559746A069352456A069024059A069155954A069684619
2545A069858776A069199876A068179000A067566704A067418529A067284656A067164890
2538A067540338A068503885A069486138A069958304A069945089A069742522A069511355
2531A069337262A069394591A069829984A070536509A071069196A070892102A069940046
2524A068856797A068332664A068428872A068789700A069042637A068926957A068487414
2517A068064661A067846134A067671977A067457855A067434298A067665529A067842304
2510A067861967A067964431A068191704A068244628A068026484A067903272A068270739
2503A069132205A070102392A070781338A071060450A071033381A070783573A070304257
2496A069533636A068493607A067482242A066978348A067086111A067428489A067815746
2489A068259248A068491436A068272080A067880672A067890057A068411699A068869309
2482A068918786A068828324A068867841A068923319A068805469A068631758A068628630
2475A068724966A068638334A068333494A068098688A068134120A068276676A068401740
2468A068639100A068872693A068768824A068403528A068269526A068508418A068751459
2461A068750438A068583878A068524314A068902698A069611649A069960602A069911509
2454A069787275A069511228A068968071A068427340A068258482A068348880A068236840
2447A067706259A067014609A066643248A066854561A067524633A068214176A068417828
2440A068023101A067482689A067379587A067779676A068253055A068565619A068955750
2433A069534274A069970944A069990990A069672617A069287083A068972859A068724263
2426A068477008A068164955A067915976A068027634A068543275A069155188A069563322
2419A069860755A070201729A070336752A069897655A069000630A068244947A068153464
2412A068718964A069409465A069709261A069625439A069591156A069875311A070249418
2405A070275465A069827814A069176958A068589815A068232562A068227646A068475412
2398A068627991A068590645A068696748A069085665A069402315A069299276A068890377
2391A068618160A068808405A069364905A070031912A070644272A070932194A070442408
2384A069230456A068105008A067537401A067478604A067748714A068099646A068283699
2377A068183150A067867202A067656272A067925361A068555277A068956324A068861840
2370A068609222A068712644A069304511A069934555A070148805A070144336A070304512
2363A070542766A070584709A070390761A070017165A069409529A068550680A067799212
2356A067699429A068125118A068403464A068190044A067745905A067643823A068224774
2349A069169297A069834134A069914126A069539445A068959069A068256630A067529165
2342A067357625A068416551A070100413A071069196A070899444A070005291A068969348
2335A068185256A067710728A067318874A066861775A066676381A067104497A067911890
2328A068674084A069205367A069661189A070077048A070185960A069823217A069232754
2321A068842369A068771250A068763972A068563959A068229179A067969411A067867393
2314A067906847A068032230A068167828A068325897A068605073A069032742A069406720
2307A069349966A068733967A067932256A067370138A067014290A066536187A065843643
2300A065288995A065411506A066141652A066602518A066422678A065885204A065303487
2293A064876584A064796528A065084130A065376649A065324810A064900971A064204406
2286A063346387A062665015A062687040A063429316A064183147A064377159A064101303
2279A063820787A063872115A064197447A064532738A064738944A064896822A065067723
2272A065103921A064849899A064414888A064028141A063639352A063094280A062472152
2265A061904161A061359409A060805208A060374602A060144903A059952998A059643371
2258A059287970A059018306A058809739A058490344A057885581A056964679A055867130
2251A054854999A054182118A053900644A053876832A053937544A053861446A053386216
2244A052482934A051470038A050608124A049845994A049103910A048499338A048077670
2237A047682177A047206564A046657726A046028193A045426749A045185495A045449604
2230A045812794A045640935A044650638A043043768A041203687A039417041A037728519
2223A035922721A033863347A031862580A030357088A029177951A027529584A024733170
2216A020652728A015554793A009970838A004397545I98803440I92747256I86112803
2209I79440556I73462641I68631879I65064397I62627214I61191118I60867828I61837122
2201I64091337I67495706I71839172I76764418I81898231I87037088I92001597I96450208
2193A000132412A003261628A006371436A009766612A013205136A016215735A018632233
2186A020667028A022520834A024132812A025371960A026348850A027403499A028767455
2179A030323189A031728834A032753860A033447808A033995944A034538846A035205023
2172A036128096A037258906A038358116A039322110A040196855A040836475A041063046
2165A041176044A041706305A042646487A043432877A043679493A043554238A043471692
2158A043656894A044000293A044269445A044448135A044747676A045264913A045853461
2151A046421579A047085203A047868337A048530493A048916920A049234464A049711801
2144A050203566A050437670A050461482A050558456A050889151A051428541A052118531
2137A052917753A053716273A054272900A054361894A054073653A053835144A053992128
2130A054453569A054871151A055051628A055052969A054971891A054847530A054814077
2123A055076846A055563695A055863171A055746279A055505919A055523794A055749088
2116A055861895A055751578A055603148A055610362A055812482A056200761A056792820
2109A057505729A058102448A058390242A058389412A058216467A057917437A057562930
2102A057420565A057791097A058609407A059414502A059825891A059871410A059812995
2095A059896818A060262753A060819891A061214490A061154352A060754390A060405820
2088A060355322A060495963A060561464A060475662A060424015A060557059A060795376
2081A061001582A061193040A061496666A061953383A062382647A062467619A062076340
2074A061469725A061069125A061055591A061271947A061470300A061551058A061565423
2067A061587001A061674016A061904353A062280055A062609856A062664823A062454149
2060A062198084A062055464A062033950A062124667A062334129A062552528A062580681
2053A062389798A062210341A062251710A062487665A062776800A062977707A062906397
2046A062479175A061930208A061629519A061694764A061970173A062271501A062519394
2039A062764862A063114453A063490092A063610049A063371284A063000179A062666100
2032A062257264A061666993A061013520A060523415A060393754A060683591A061204595
2025A061653267A061904800A062060380A062250689A062516713A062798953A063005733
2018A063159525A063383287A063620199A063550102A062972089A062128434A061499986
2011A061356217A061606345A062021756A062469279A062861070A063030694A062888266
2004A062628370A062516202A062498391A062314274A061999667A061989516A062563253
1997A063351941A063639160A063169101A062446807A062130987A062330809A062658631
1990A062764670A062627285A062444701A062413993A062578894A062816317A062989326
1983A063085980A063147970A063150651A063079852A063031269A063070595A063117390
1976A063150268A063391522A064023417A064792570A065170571A064931360A064373328
1969A063937679A063774183A063716088A063539186A063227005A063067977A063396565
1962A064109794A064603729A064391267A063624158A062845939A062432315A062437678
1955A062745199A063167122A063509500A063698085A063799081A063866433A063828448
1948A063630797A063429571A063454788A063710342A063978090A064071234A063927592
1941A063542569A063011351A062569637A062436146A062611006A062858835A062914760
1934A062749157A062586874A062626008A062846578A063154992A063525651A063911888
1927A064181423A064230325A064076724A063853282A063753690A063884372A064111900
1920A064185317A064003946A063599707A062956128A062095747A061232110A060539758
1913A059818230A058622877A056706124A054287711A051998894A050562670A050324416
1906A051040326A052135960A053035156A053218826A052232296A049806349A045923813
1899A040952602A036001819A032920739A033316360A037252842A043059855A048538473
1892A052331632A054313311A055091082A055359532A055531838A055645858A055478978
1885A054820078A053730318A052543774A051626447A051189777A051260512A051669093
1878A052119170A052435373A052681543A052917562A053027495A052923307A052675414
1871A052294668A051615211A050487721A048832331A046364888A042468882A036671444
1864A029530351A022993447A019329246A019233740A021119403A022333079A020835504
1857A015990378A008686491A001193253I96275731I95510154I98101192A001414205
1850A002743624A000637647I94883238I85936539I74690936I62244553I49383717
1843I36487576I24265594I14378584I08822784I08364918I11491453I14867860I14870222
1835I09123346H97551325H82641202H68207523H56906251H48574912H40957567H31888485
1827H20974471H09834141H00968392G96015822G94734539G95451470G96270099G95956195
1819G94264608G91821360G89426121G87030882G83485616G77729803G70243012G62802507
1811G56673736G51620872G47004360G43383379G42654318G46754423G56306269G70184790
1803G86060759H01460923H14661136H24882415H32009336H36518596H39560158H42425456
1795H45478063H47849234H48539735H47748494H46909499H47535649H50269180H54917868
1787H60882952H67307050H73211612H77963914H81603919H84637310H87729178H91606224
1779H96772597I02990361I09216298I14276822I17580515I19169957I19238585I17696066
1771I14111156I07979576H99082034H87710345H74656902H60944558H47349426H33966755
1763H20328275H06339629G93466535G85086613G85280370G96358519H16736023H41230933
1755H63898595H80880412H91031083H94718905H92536128H84999222H73284646H60130908
1747H49455722H44316546H45006727H49358492H54923039H60699729H66969588H73989830
1739H81191252H87672935H93321304H99140512I06318632I15152398I24989292I34916967
1731I44232857I52484651I59478208I65304182I70208553I74428231I78198727I81811217
1723I85524830I89441521I93452185I97252047A000532501A003340343A006118818
1716A009161785A012196772A014781618A016928517A019016363A021220335A023341762
1709A025158030A026681205A028037373A029275244A030379816A031378029A032326638
1702A033252456A034148715A034981453A035683956A036244095A036811383A037571407
1695A038480562A039258525A039718306A039983436A040282530A040636462A040873184
1688A040897316A040822750A040869673A041169596A041631803A041995184A042078432
1681A041966456A041905999A042050279A042331688A042549896A042604224A042624270
1674A042804493A043165767A043596564A044038661A044449604A044657788A044484588
1667A044030936A043656383A043572369A043579072A043351544A042879569A042432621
1660A042184536A042095733A042101990A042219137A042459306A042769827A043098479
1653A043463073A043881230A044263508A044498506A044596437A044611950A044541023
1646A044440091A044442517A044540640A044591649A044564517A044514210A044394701
1639A044202668A044161107A044483758A045049068A045497549A045612270A045539620
1632A045605950A045921770A046275256A046454202A046502529A046578372A046731589
1625A046927516A047145213A047322946A047295622A046948584A046403576A045883146
1618A045448136A045061964A044824348A044903319A045309027A045906448A046518425
1611A046936582A047033109A046941881A046932368A047060944A047123316A046960586
1604A046629636A046237271A045802196A045379316A045143807A045221310A045568029
1597A046074286A046637041A047132381A047467034A047619230A047584820A047446350
1590A047473610A047869231A048440222A048787132A048773023A048567392A048284067
1583A047821350A047141957A046575882A046615527A047332650A048194244A048628105
1576A048631552A048648789A048982421A049524428A050016321A050361125A050626383
1569A050863551A051011534A050988743A050864764A050842867A050936712A050802455
1562A050196735A049504255A049404855A050010895A050718122A050968569A050843058
1555A050808520A051133789A051685883A052163986A052368404A052256172A051853465
1548A051251128A050684286A050468249A050792305A051616999A052725976A053774304
1541A054393175A054440162A054137174A053891898A054014026A054526730A055125875
1534A055409583A055281327A055019389A054921585A055060119A055362596A055710528
1527A055940610A055912584A055575633A054954527A054168839A053491234A053222975
1520A053418136A053810118A054086740A054175606A054230254A054449483A054937545
1513A055574420A056007196A055998322A055807247A055948782A056501259A056947123
1506A056858065A056461423A056258920A056295437A056192781A055797671A055366746
1499A055094912A054838145A054421521A054042690A054195652A055128301A056444058
1492A057435887A057766454A057605129A057221063A056778839A056439653A056339359
1485A056419735A056448846A056279157A056065100A056142730A056672608A057454465
1478A058090829A058278137A058011156A057496344A056816888A055876450A054806991
1471A054101551A054084506A054500492A054788732A054622108A054178607A053969018
1464A054299393A054928097A055405753A055596509A055671649A055758856A055798565
1457A055644772A055245002A054785604A054637175A055017091A055667436A056012367
1450A055768304A055275518A055072185A055299267A055677203A055904413A055917500
1443A055873258A055974765A056292819A056711423A056996152A056940866A056585529
1436A056245003A056153902A056230958A056348616A056561014A056879260A057134942
1429A057237279A057282031A057280307A057063504A056580486A056089104A055894070
1422A056012431A056219849A056348488A056404924A056429566A056363427A056107937
1415A055718508A055492832A055777178A056643305A057804950A058797290A059195720
1408A058875878A058255219A057980384A058139284A058159904A057721510A057195463
1401A056920118A056738172A056458486A056102063A055664308A055199547A054975722
1394A055221955A055752089A055980511A055602510A055053927A054963911A055461422
1387A056106979A056418713A056404221A056405051A056550353A056652306A056547671
1380A056225723A055704527A055074356A054613554A054624534A055081953A055586741
1373A055737724A055499152A055181097A055105957A055337507A055735809A056157541
1366A056517347A056780243A057012432A057300034A057514666A057347659A056734150
1359A056042053A055647645A055500237A055296266A054932821A054623832A054676501
1352A055182119A055792755A055895539A055240661A054289881A053753875A053938119
1345A054607744A055269644A055619300A055865597A056372812A056978788A057204784
1338A057117258A057301822A058002346A058808079A059147137A058812995A058147647
1331A057672991A057446995A057130409A056702932A056470680A056344466A055874727
1324A055042499A054337889A054047797A054085463A054504641A055552395A057081316
1317A058371089A058746154A058187420A057380090A057285734A058375494A060077041
1310A061303548A061601876A061306804A060694636A059838659A059268434A059760008
1303A061189146A062401417A062499604A061672675A060668780A060035097A059912268
1296A060092043A060151990A059720554A058804440A057934547A057744812A058272711
1289A059055972A059975725A061208298A062350408A062658120A062240219A062075829
1282A062884499A064575639A066479241A067766014A068003055A067466985A066859030
1275A066756374A067192342A067691959A067934809A068142164A068468773A068535678
1268A067889546A066448215A064545443A063051123A063155694A065375372A068721263
1261A071069196A071010016A069237542A067593198A067142163A067806298A068878566
1254A069400272A068814470A067574045A066437426A065364902A063984602A062712129
1247A062384690A063034461A063811466A064080491A064033504A063995263A063638522
1240A062474387A060858451A059821997A059874091A060493282A060810889A060401479
1233A059463659A058522711A057927205A057628494A057574102A057996089A058845170
1226A059335020A058741940A057407350A056372556A056297033A057124217A058403137
1219A059611003A060458999A060970363A061173951A061095555A061129455A061719087
1212A062555783A062837129A062337704A061455234A060347087A058944953A057692527
1205A057277434A057645285A058107044A058403967A058882007A059631879A060148159
1198A059980960A059381688A059194060A060052653A061596385A062709512A062748327
1191A062136222A061640627A061526161A061528842A061367261A061178101A061437167
1184A062238559A062824106A062337257A060832914A058996856A057673885A058084189
1177A061051250A065419103A068539061A068916807A067321364A065146120A063080745
1170A061638073A061701659A063822766A067080238A069253375A068898101A066884374
1163A065081896A064410356A064902184A066365349A068184299A069575962A070357245
1156A070647337A070303491A069470050A068775272A068282613A067392865A066088281
1149A065178742A065185190A065671976A065792251A065128627A063973877A063049719
1142A063018118A063971004A065187105A065667315A065224325A064698788A064893694
1135A065954790A067747118A069677277A070249354A068427085A065159526A062427719
1128A061527437A062656077A064798763A065948917A064993413A063053294A061893628
1121A061918079A062368475A062572318A062368475A062017159A062056805A062679954
1114A063271948A063105899A062395543A062089619A062666739A063565999A063862666
1107A063320084A062563827A062352068A062904226A063724834A064100920A063805848
1100A063144969A062489708A062030502A061749667A061405949A060742708A059824678
1093A059044864A058825508A059302461A060072827A060569061A060757391A060927782
1086A061100599A061177016A061340831A061694764A061918015A061750561A061372624
1079A061074935A060945338A060976875A061216469A061727131A062419356A062966598
1072A063077936A062872944A062770927A062933912A063121859A063072702A062813189
1065A062637308A062735623A062852770A062563253A061877157A061221257A060869240
1058A060800228A060998326A061446104A061894713A062074935A061979047A061766904
1051A061664440A061865985A062315359A062716790A062917824A063121540A063577043
1044A064214812A064716153A064872754A064752861A064482879A064044038A063494625
1037A063122178A063061785A063139160A063160227A063172995A063332852A063614198
1030A063824873A063794995A063537590A063244752A063081256A063048953A063034716
1023A063000689A063080490A063407163A063860623A064083300A063805274A063053869
1016A062094151A061314082A061039056A061290078A061766138A062131179A062326212
1009A062545633A062865794A063084831A063062551A062912334A062784588A062743028
1002A062844216A063135776A063546016A063908887A064035419A063831895A063452873
995A063179571A063127349A063191318A063228664A063198532A063176379A063288994
988A063518182A063591343A063342045A062906460A062445084A061959894A061441891
981A061075190A061077041A061310443A061400203A061134370A060595810A059995644
974A059421460A058689718A057442718A055639218A053703696A052073396A050949864
967A050389853A050449161A051076587A051943416A052741361A053486191A054276858
960A054860106A054935055A054583676A054114192A053863617A053969529A054222338
953A054215379A053745512A052993149A052395281A052241872A052137556A051573843
946A050666539A049864827A049541602A049836929A050662517A051650771A052341846
939A052711611A053216464A054189524A055277752A056159201A056946867A057530180
932A057713275A057641199A057570463A057531137A057362917A057129643A057342552
925A058201401A059039310A059468830A059574550A059474193A059209062A058860492
918A058617898A058673631A059108450A059702168A060053164A060108003A060122240
911A060307889A060582595A060691699A060594789A060429314A060313123A060387370
904A060804505A061228471A061296909A061156970A060980067A060810953A060708425
897A060797100A061068231A061325701A061397905A061356727A061414886A061544611
890A061532225A061411503A061309038A061230131A061111324A061004518A061055144
883A061212192A061152437A060726875A060168907A059823082A059821103A059919482
876A059962063A060094661A060408182A060761604A060954914A060948721A060812677
869A060612919A060410481A060276479A060273606A060409523A060599896A060726364
862A060770351A060804505A060851939A060858451A060790588A060685889A060639924
855A060753305A061014350A061256625A061326850A061263520A061268755A061436273
848A061595300A061642925A061664950A061801569A062117709A062550612A062958554
841A063178549A063176123A063129775A063289632A063544165A063516586A063351877
834A063236389A063118348A062935380A062775459A062730771A062721131A062611389
827A062400778A062258924A062400331A062779162A062971003A062851621A062641968
820A062524118A062510520A062485686A062414057A062381371A062483197A062697318
813A062855005A062788866A062481984A062122241A061944445A062030055A062222918
806A062235942A061967108A061541929A061111260A060744048A060479109A060330424
799A060194635A059977258A059657096A059291928A059030372A058951721A058838723
792A058382070A057501260A056303545A054988745A053630726A051996340A049928604
785A047407854A044110418A039469008A033219642A025511707A016556517A006368180
778I93965273I76979497I55466011I34333846I17019163I03344550H92532872
771H83784526H75607298H67144064H59385887H55569171H61154083H75726042
764H88986393H96386360H99574501I00035814H99026429H98613315I00507214
757I04612873I10129092I16817810I24768786I34232084I45292932I55860611
750I62075950I63411050I62134109I59918326I57812285I57259807I60113167
743I67559547I78522782I90082481A000501603A009815641A017514638A022679415
736A025866151A028170800A030104662A031708022A032920229A033797655A034499711
729A035062595A035284633A034960386A034047975A032553464A030431144A027474234
722A023268536A017659429A011212476A004463939I96785563I86296983I71549463
715I53742632I35657264I19484564I07265965I01359615I02900154I10343916
708I20181449I29018406I35303778I39031883I40475960I40883519I43576894
701I52189196I67649243I86646703A003214066A013882868A019334417A021089207
694A019584290A014708073A006964388I98164395I91165986I88596589I91248404
687I97552481A004651886A010058938A012501675A011796235A008594624A004140778
680I99937634I97640135I98460232A001759967A004577129A003520438I97610002
673I89467057I83797492I84139551I90242083I98143646A002988134A002898885
666A000632412A000785311A005370797A012464264A018924432A023305245A025795798
659A026827783A026395199A023939758A018748743A011081794A002804081I96542522
652I94430416I97479129A005123158A014992739A023965996A030117303A033543378
645A035360220A036355178A036612647A035867498A033867689A030444359A025424373
638A018727420A010655721A001890776I92991574I84077625I75568490I69355832
631I68314846I73592173I82545831I90247318I93067545I90472739I84029298
624I75804701I67950762I62919477I62926372I68626772I78432575I89462652
617I99237748A006558553A011245673A013541193A013820049A012651254A010876482
610A009452324A009177937A010439493A013003144A016107142A018979208A021275941
603A022961207A023905794A023772495A022348209A019876680A016735143A012694218
596A007072407A000140392I93950972I90975677I91725805I94067290I95036711
589I93048392I88191839I80967562I71700510I61579014I53648531I51743141
582I57787706I70115473I84607503I97372961A006260736A010391612A009311172
575A003308870I94321312I85607248I79993991I78608903I81244566I87143575
568I95031987A003079618A009563279A013619653A015330456A015324455A014293939
561A012452964A009127630A003151630I94300245I84478098I76737477I72330937
554I68965255I63021686I53932430I45569554I42679613I46640226I55324923
547I66008792I77034847I87315115I95926842A002575404A007693960A011696771
540A014269424A014507230A011897167A007401633A003550634A002997710A006535698
533A012502760A018107654A020922072A019139958A011717520I99649648I86737676
526I77443683I73281908I72181485I71849578I72543590I75611519I80440621
519I84204987I84095245I78832090I68555142I54350842I37729405I19383440
512H98047878H71587441H39793241H04893573G68866479G32739858G00270351
505F79694812F78612138F97571804G29902266G66353773G98784465H21825340
498H34441411H40590802H46772178H57345028H71323587H83503754H89516910
491H90663105H93434813I03551393I20711454I39500921I54550089I64070142
484I69287842I71699488I70880476I64652496I51986055I36121705I23649978
477I19354648I22738205I30228059I38824465I46001564I48399931I44191489
470I36689249I32592336I34894687I38673099I35575867I22307280I03852019
463H89140760H84761033H91756122I05512005I16868116I14995860H94070730
456H60503036H31211263H20805676H31039085H54008394H81719279I09301717
449I32757492I48348476I53718755I48438938I35186758I20800129I13219940
442I15116966I21080390I22359566I15036974I04058863H99445351I07964892
435I27766043I50555513I67978405I75554892I72912334I63691056I55142594
428I54447561I63485042I77839495I91097165I99309697A001908269A000287481
421I96274774I90983210I84656788I78223433I74686020I77434809I86615868
414I98099213A006573108A009499438A008466879A007283975A008478179A011161595
407A012226649A009265335A001998795I91828078I81334773I73674209I70488813
400I70137689I69778522I69698721I73669868I84060197I98137709A010098392
393A015614930A014192304A008737819A003367731A000250006I97744770I91785368
386I78823855I57792366I31446587I07328528H95423515I01732891I23458264
379I51288021I76227326I94063843A005049167A011433237A015292982A017188348
372A015679537A007795530I90960865I66422544I41284502I25392382I24858993
365I38821464I61768365I87221652A009709219A026084103A036391439A042708221
358A046785088A049167623A050043645A049871530A049099122A047903577A046287705
351A043881294A039459240A030851407A015353886I91006703I59784069I30417411
344I14838557I18446705I35131536I54102374I69898478I83751718I97687249
337A010847435A021081099A027580273A031458532A034593876A038002906A041138761
330A042848096A042851416A042028190A041414681A041122354A040218370A037812086
323A034360858A031547398A030490069A030087553A027451507A020553136A010542915
316A000526692I91851060I83473181I75913038I73370135I79645740I93318630
309A008865053A021703992A030754305A037062596A041787446A045594523A048832012
302A051642727A054056735A056180779A058205614A060113174A061523862A062048441
295A061729940A060920057A059743984A057880729A054767027A049851867A043137741
288A036128032A031776778A032416909A037632502A044744165A051236700A056163223
281A059627347A061963023A063571808A064868796A066029803A066978539A067679766
274A068238436A068717305A069073025A069306171A069551639A069994310A070630419
267A071069196A070881185A070035168A069210283A068889802A068697195A067729242
260A065255543A061012818A055360617A049663410A046189773A046740974A051013577
253A056704528A061452297A064431615A066176062A067531144A068950770A070294234
246A071069196A071086687A070344285A069114521A067721071A066743095A066867457
239A068281336A070367459A072160233A073090902A073290214A073271572A073423769
232A073706838A073741823A073263145A072448666A071624738A070749609A069466731
225A067539444A064891587A061282161A056475978A051135448A047208224A046668515
218A049660409A054375300A058845043A062281013A064780249A066495584A067403463
211A067476178A066505224A063734474A058384624A049870828A036178530A015565773
204I92036964I76891525I79425107I97312504A019359251A035740264A043690474
197A045427707A044702094A045180963A048741741A054208229A058934675A061528140
190A062296399A061708873A059521243A055163477A048344269A039783232A031765670
183A027184397A027430312A031402352A036559595A040575622A042072559A040382887
176A035094451A025600063A010563344I89075969I64862788I48231137I49400826
169I68906585I96726383A021341058A037928276A047862208A053657411A056414947
162A056706379A055703889A054622619A053656645A052271941A050319500A048288919
155A046782087A046063050A045854035A045549770A044804686A043693219A042263826
148A040371204A038109711A036046252A034763820A034249775A033892267A033120625
141A031760626A029748559A027151647A024466571A022018344A019168240A015125911
134A010314748A006046040A003178188A001823041A001853557A002950787A004447979
127A005548274A005619201A004383947A002082490I99034607I94810013I88831140
120I82443176I79138015I81455049I88230016I95913627A001950914A005904696
113A008270505A009759334A011496312A014555941A018731186A022297392A023826951
106A023737510A022966953A020998936A016559645A010518847A006525483A007497330
99A012843414A019624637A025411988A029674248A032984899A035916592A038714347
92A041161871A042658106A042815473A041404019A037619734A030814316A022324396
85A015205201A011484948A010648571A011425065A013729778A017851972A023071205
78A028345085A033415505A037963708A040764080A041014655A039620821A037984711
71A036392014A034324022A031108877A025475637A016340608A005486029I97981108
64I98159415A005503202A015423153A023948440A030510115A036361434A042000866
57A046939710A050522897A052590442A053701270A054474764A055161371A055918138
50A056654605A056704464A055580932A053453057A050176753A045024744A038039040
43A030873113A026276072A027054609A033940786A044025127A052857232A057634368
36A057740279A053558011A045747038A035904973A027607470A023840038A024912434
29A030201892A038189129A046291344A052217931A054905050A055205357A055980319
22A059383348A064189786A066593899A062322829A049965951A035975453A029480492
15A032470535A041914872A053739766A063556423A068219411A067913103A065249542
8A062053485A058690165A056269454A056326463A059085658A063832725A069022782
1A071069196
$$ === CHEMSPECTRA ===
##$OBSERVEDINTEGRALS= (X Y Z)
##$OBSERVEDMULTIPLETS=
##$OBSERVEDMULTIPLETSPEAKS=
##END=


$$ === CHEMSPECTRA PEAK TABLE EDIT ===
##TITLE=NR- 187
##JCAMP-DX=5.00
##DATA TYPE=INFRAREDPEAKTABLE
##DATA CLASS=PEAKTABLE
##$CSCATEGORY=EDIT_PEAK
##$CSTHRESHOLD=0.93
##MAXX=3997.453
##MAXY=1.0024952842101513
##MINX=373.96442
##MINY=0.6335838407150957
##$CSSOLVENTNAME=
##$CSSOLVENTVALUE=0
##$CSSOLVENTX=0
##NPOINTS=0
##PEAKTABLE= (XY..XY)
##END=


$$ === CHEMSPECTRA PEAK TABLE AUTO ===
##TITLE=NR- 187
##JCAMP-DX=5.00
##DATA TYPE=INFRAREDPEAKTABLE
##DATA CLASS=PEAKTABLE
##$CSCATEGORY=AUTO_PEAK
##$CSTHRESHOLD=0.93
##MAXX=3997.453
##MAXY=1.0024952842101513
##MINX=373.96442
##MINY=0.6335838407150957
##NPOINTS=41
##PEAKTABLE= (XY..XY)
3493.167646411259, 0.8971108749661237
2997.381484175137, 0.9294545610414595
2977.5500376856917, 0.8480917173298379
2954.8855274120406, 0.7420011128191182
2932.2210171383895, 0.6933765972840439
2909.556506864738, 0.7907140810890085
2865.6440182095384, 0.7329933605734384
2845.8125717200937, 0.7882931796218235
1459.0278493510555, 0.7987991534563599
1447.6955942142295, 0.8389871674170144
1427.8641477247847, 0.8937422588236275
1379.7020633932757, 0.8415512407725014
1348.5383617670054, 0.9229997353458227
1334.373042845973, 0.9314432103258762
1324.4573196012507, 0.9185190752766031
1296.1266817591868, 0.9284464674476399
1266.3795120250193, 0.9040637571827906
1253.6307249960905, 0.8990263898536858
1212.5513001250974, 0.9252209625064238
1198.3859812040655, 0.8885916429762252
1181.3875984988272, 0.9136747673687006
1151.6404287646596, 0.8801295118720084
1113.394067677873, 0.9073639473076813
1086.4799617279123, 0.6335838407150957
1048.2336006411256, 0.8583522401703856
1036.9013455043, 0.8707115611073007
1026.9856222595777, 0.8260540329492242
1015.6533671227521, 0.7663423383694773
1000.0715163096165, 0.8526245915790106
991.5723249569974, 0.839763994907968
978.8235379280686, 0.8911166152167109
963.2416871149335, 0.9100121814250699
936.3275811649723, 0.9053558072191393
913.6630708913212, 0.8360090218432124
890.9985606176697, 0.8634913525593846
859.8348589913994, 0.854135807659715
814.5058384440968, 0.9087836100135762
660.1038622048472, 0.9120713434269974
614.7748416575446, 0.8853126727687591
541.115183268178, 0.9141687709303175
464.62246109460466, 0.931761558570511
##END=

##END=

