##TITLE=SG-X14313
##JCAMP-DX=5.0
##DATA TYPE=LINK
##BLOCKS=1


$$ === CHEMSPECTRA SPECTRUM ORIG ===
##TITLE=SG-X14313
##JCAMP-DX=5.00
##DATA TYPE=INFRARED SPECTRUM
##DATA CLASS=XYDATA
##$CSCATEGORY=SPECTRUM
##ORIGIN=Angelika Moesle
##OWNER=
##XUNITS=1/CM
##YUNITS=TRANSMITTANCE
##XFACTOR=1.0
##YFACTOR=9.0340663e-10
##FIRSTX=3997.453
##LASTX=373.96442
##MAXX=3997.453
##MAXY=0.9700254818064864
##MINX=373.96442
##MINY=0.14036288886850895
##NPOINTS=2559
##XYDATA= (X++(Y..Y))
2559A011073680A011782345A012643420A013052943A012834821A012365192A012134732
2552A012210672A012229410A011923076A011481883A011270029A011358373A011521140
2545A011630003A011855317A012392045A013049050A013362378A013215380A013036910
2538A013237416A013777312A014397699A014863304A014883889A014300118A013486878
2531A013087449A013232798A013402888A013141485A012581863A012161255A012040582
2524A011987800A011830113A011755624A011925781A012060243A011833940A011489075
2517A011488547A011860595A012310826A012678322A012975353A013215776A013394311
2510A013422352A013151975A012708144A012573615A012965852A013449799A013532996
2503A013353933A013481534A014088990A014802472A015305750A015540102A015457037
2496A015035637A014495280A014169285A014146391A014225894A014269901A014341289
2489A014490398A014607244A014525696A014222793A013900954A013783382A013793212
2482A013753890A013739308A013785625A013548567A012811135A012037283A011928948
2475A012565236A013413049A014052504A014236978A013775992A012898423A012357143
2468A012622241A013290001A013898183A014519692A015199064A015534428A015277050
2461A014672628A014044455A013608475A013751580A014641949A015234098A014818637
2454A013965480A013353801A013195653A013249029A013150590A012852635A012703855
2447A013014148A013607089A013983030A013934998A013657892A013481996A013597193
2440A013923650A014303153A014602890A014599195A014144807A013513335A013200337
2433A013250282A013468602A013933085A014492377A014583954A014043136A013298248
2426A012992178A013579379A014685428A015246700A014906981A014415381A014573662
2419A015067505A015115998A014729963A014593983A015069682A015665064A015696733
2412A015086770A014270890A013589407A013172165A013232600A014064380A015739355
2405A017740127A019013166A018971006A018036763A016904718A015969353A015504738
2398A015788508A016673466A017508216A017745867A017338653A016624379A016043512
2391A015915647A016143600A016204233A015773004A015099042A014772057A015139882
2384A015739619A015918748A015791345A015884308A016365483A016687982A016466032
2377A015956949A015669485A016115691A017424820A018985521A020029222A020333181
2370A019948003A018964540A017769157A017039510A017106214A017583628A017922951
2363A017896296A017533881A017005532A016588751A016559589A016998340A017635684
2356A018131441A018530209A018898101A019041272A018900674A018670148A018379385
2349A017870103A017332253A017168827A017387411A017566078A017324270A016708896
2342A016318573A016803442A017804455A018365001A018306809A018142261A018299353
2335A018729264A019188402A019760495A020585875A020925594A020001643A018618488
2328A018328912A019478704A020559946A020488624A019649784A018841756A018523348
2321A018658140A018874547A018771424A018257062A017729241A017701200A018343955
2314A019409494A020297421A020520491A020035819A018990074A017741908A016856818
2307A016687916A017088268A017777338A018731837A019859791A020573801A020224383
2300A018904699A017678174A017658777A018540568A019422293A020022756A020448312
2293A020861266A021185414A020965115A020035951A018960516A018341315A018176239
2286A018134014A018176569A018464958A018929902A019371622A019760297A020168236
2279A020520161A020537381A020074086A019409823A018950553A018729462A018519851
2272A018329439A018409338A018870456A019471842A019933092A020300654A020675539
2265A020838833A020423372A019475999A018559240A018205467A018551124A019428231
2258A020503403A021405251A021964082A022274969A022325706A021867095A020929223
2251A020039646A019748025A019979342A020071777A019570149A018811406A018624426
2244A019379408A020541802A021377607A021684865A021647191A021356626A020810991
2237A020146398A019544352A019100784A018931683A019145319A019558075A019738458
2230A019493879A019122029A019064958A019378088A019690756A019748223A019820600
2223A020347102A021230213A021829818A021712443A021088493A020422250A019915674
2216A019508460A019088644A018587610A018095087A017932121A018410856A019445517
2209A020475165A020920910A020710573A020252952A019967796A019924845A019941405
2202A019862892A019614816A019151191A018506721A017828867A017290621A017003091
2195A016968189A017088268A017280725A017522005A017746989A017899397A018143053
2188A018754995A019669379A020374549A020392165A019759967A019005512A018687434
2181A018947980A019465970A019835973A019923921A019819611A019610791A019381519
2174A019326758A019602082A019993726A020004875A019448090A018769906A018562208
2167A018955567A019562628A019824955A019482927A018854951A018522754A018703137
2160A019137996A019536962A019810440A019988579A020178199A020449037A020672504
2153A020716115A020746794A021011629A021426298A021725309A021864522A021965336
2146A021969492A021672197A021146949A020839229A020997114A021237668A021014862
2139A020368479A019867115A019912243A020381542A020885809A021162916A021198411
2132A021078464A020884028A020774373A021002128A021654185A022399205A022676641
2125A022241386A021436129A020815279A020634830A020815675A021180598A021530609
2118A021678333A021612817A021517347A021594541A021999380A022781809A023685043
2111A024203232A024088562A023661687A023462105A023681480A024029512A024133229
2104A023950405A023667361A023342949A022994653A022901756A023334570A024054188
2097A024562810A024729931A024737321A024648977A024472090A024370749A024443456
2090A024521376A024389091A024027599A023635758A023558564A024049108A024953265
2083A025797779A026291754A026613461A027138379A027947661A028669522A028861847
2076A028491647A027867564A027146494A026178140A024900219A023647898A022869823
2069A022588627A022297137A021419107A019785500A017694207A015649295A014057915
2062A013124859A013023055A013950503A015814042A018106567A020337337A022286383
2055A023695863A024209038A023876642A023322892A023192916A023632591A024294545
2048A024685594A024559907A024073256A023561929A023225443A023065909A023031666
2041A023114270A023334966A023702659A024166878A024557268A024640267A024403276
2034A024216097A024469517A025062129A025512294A025580713A025481944A025435165
2027A025339894A025062261A024786804A024817681A025132659A025352034A025194018
2020A024832790A024710402A025044447A025591071A025867518A025559270A024784825
2013A024032151A023767317A024066592A024676225A025342666A025902684A026129317
2006A025772246A024864064A023889706A023483547A023882316A024754541A025630658
1999A026344800A026949221A027444449A027770181A027911175A027902862A027838732
1992A027919950A028353951A029103919A029811068A030123142A030094640A030112058
1985A030413708A030823693A030951161A030550347A029757560A029043418A028807746
1978A028970315A029053578A028664442A027879176A027196571A027046340A027291249
1971A027422809A027320873A027435147A028006513A028545550A028423228A027701103
1964A027043305A026960174A027386389A027917377A028256964A028356722A028243901
1957A027930837A027520720A027180209A026947572A026745350A026574204A026498792
1950A026502948A026526832A026543459A026477481A026203278A025764856A025450935
1943A025505168A025844887A026203674A026394943A026275194A025697097A024808642
1936A024178490A024276731A024938948A025517176A025493952A024911436A024231206
1929A023759796A023384779A022990166A022761686A022862302A023193576A023621441
1922A024044093A024267428A024226983A024180799A024344490A024557795A024565449
1915A024419572A024411391A024743391A025371366A026098571A026734332A027185817
1908A027476185A027676295A027747617A027533189A027031759A026556918A026440138
1901A026661295A026921247A026980693A026791139A026412097A026010028A025837432
1894A025977898A026197736A026265957A026288653A026536531A027093646A027817553
1887A028467301A028805700A028740119A028406536A028047220A027835433A027805941
1880A027903720A028138798A028615619A029257185A029654437A029462640A028841592
1873A028304732A028221930A028532355A028858285A028871084A028568775A028169874
1866A027818609A027516365A027265848A027121885A027077746A027009855A026788170
1859A026389995A025821795A024956828A023605474A021751898A019535313A016862031
1852A013133700A007552980I99830824I90721488I82031968I76096883I74696243
1845I77833547I83542988I89262855I93507329I96163457I97538299I97631987I96218680
1837I93068511I87907608I80454113I70607806I58481774I44504806I30085325I18074358
1829I11508658I11080001I14066809I16110599I13730323I05104142H89439860H66455425
1821H36411117H00666934G62751163G28952596G06903393G02212910G15375517G41376055
1813G72312380H00887564H22417192H34966141H38800564H36040917H30054633H23783853
1805H18092159H12487028H07779457H06929137H12523184H24346444H40103754H57566586
1797H75259152H91886905I06211774I17552144I25985803I32059442I36499737I40073879
1789I43352638I46462296I49149962I51075454I52002176I51920627I51149151I50131973
1781I49003425I47483432I45169068I41705506I36771565I30337359I23123957I16636507
1773I12497663I11526340I13267952I16331162I19151641I20463540I19307744I15083459
1765I07944281H99146492H90813911H85145243H83569961H86304602H92372897I00031252
1757I07529612I13814049I18704576I22581621I25992071I29329880I32646445I35774313
1749I38703919I41765150I45384551I49698170I54407919I58941705I62709226I65241910
1741I66251896I65771579I64377207I63227283I63629549I66291285I70912557I76539461
1733I82231946I87349503I91492635I94522395I96605969I98044282I99052024I99794471
1725A000539028A001561154A002866456A004178356A005289815A006309565A007468661
1718A008785509A010024041A010938689A011454503A011636667A011665961A011870558
1711A012532643A013550151A014491124A015059851A015344017A015584175A015868539
1704A016092995A016170387A016200341A016343380A016595679A016844415A017048351
1697A017208875A017297747A017336476A017446659A017757083A018303246A018965200
1690A019510241A019742878A019597332A019170325A018772809A018757634A019134433
1683A019552731A019731596A019645562A019273778A018473469A017238367A015931878
1676A015074960A014861720A015064931A015484549A016179492A017115847A017975403
1669A018538786A018973513A019565531A020318666A020921503A021089812A020912069
1662A020773318A020909891A021148796A021178024A021015192A021062366A021613345
1655A022417876A022916535A022881171A022655066A022751261A023317548A024018692
1648A024411127A024375301A024124784A023871166A023636615A023392696A023250052
1641A023395929A023818252A024218406A024326148A024204287A024100438A024107432
1634A024120430A024044027A023917284A023817724A023731293A023624805A023594654
1627A023749305A023979633A024103539A024191553A024483900A025016604A025573125
1620A025977964A026253685A026505917A026789028A027111262A027478230A027868224
1613A028238754A028622085A029109132A029649686A030016852A030108561A030127628
1606A030299632A030558792A030685272A030650897A030652745A030843948A031159651
1599A031376453A031280852A030867832A030436206A030363433A030704999A031143420
1592A031391826A031502867A031711686A032146676A032787451A033523102A034124620
1585A034304607A034016879A033630118A033569814A033796316A033856289A033464910
1578A032824993A032368097A032396666A032938540A033721299A034314108A034509402
1571A034499967A034551232A034639642A034563240A034259215A033895414A033748350
1564A034014900A034615296A035213516A035545317A035624160A035550463A035343294
1557A035041248A034705224A034262646A033643775A033073399A032879094A032992444
1550A032996732A032718241A032442190A032420154A032430908A032085845A031452987
1543A031091958A031430093A032355694A033461479A034422180A035026931A035052926
1536A034360754A033174938A032128269A031840738A032447073A033604387A034777799
1529A035436321A035363417A035005488A035109733A035835223A036641668A037085433
1522A037179583A037010021A036619829A036313759A036576020A037574592A038937492
1515A040038263A040467052A040290232A039894036A039646290A039710552A039981984
1508A040127135A039913697A039519613A039292254A039285986A039277937A039119788
1501A038875209A038682950A038552908A038340394A038036831A037964915A038409275
1494A039166434A039726123A039793222A039486228A039148884A039047015A039165181
1487A039296145A039278860A039067336A038700368A038315521A038044682A037859879
1480A037679760A037563309A037627242A037877825A038276726A038846443A039559067
1473A040231116A040712225A041095819A041517086A041844203A041878907A041772617
1466A041833251A042019044A042007894A041640926A040967954A040070922A039156868
1459A038566236A038412112A038393638A038169512A037786380A037607580A037891086
1452A038525989A039181344A039658034A040002899A040265226A040310619A040060563
1445A039767227A039803778A040260146A040948227A041677147A042344710A042912909
1438A043447592A044049506A044670620A045091623A045077372A044530351A043600066
1431A042648537A041972530A041573827A041293686A041078137A041005561A041126630
1424A041372727A041597315A041697997A041714623A041790761A042007432A042262370
1417A042351769A042165448A041741674A041168196A040636812A040589902A041377873
1410A042655002A043659512A044216561A044758370A045355798A045584278A045317399
1403A044981440A045146846A046045132A047111067A047216895A045940887A044214120
1396A043208555A043216670A043767386A044193997A044206335A044225930A044824018
1389A045908426A046817928A047112848A047107306A047411463A048021163A048349929
1382A048161035A047730861A047069435A045935345A044658942A044074380A044480208
1375A045255709A045672226A045527010A044971940A044291842A043861008A043948692
1368A044507787A045242448A045777065A045795209A045346165A044973457A045084629
1361A045243833A044696351A043569255A042815724A042902749A043291291A043360567
1354A043206642A043282450A043736640A044356104A044879703A045231430A045623601
1347A046378979A047472690A048420195A048824704A048782347A048600116A048444211
1340A048380939A048419931A048486965A048630862A049120878A049998315A050724663
1333A050756068A050414436A050654594A051833219A053186157A053756600A053350572
1326A052403662A051506564A051192180A051577886A052166736A052505136A052869464
1319A053783452A055116927A056146574A056336853A055749454A054862847A054135575
1312A053630582A053137927A052745360A052871641A053501992A053953411A053672940
1305A052689807A051105288A048867194A046268664A043968090A042173036A040147060
1298A036804039A031764666A025683638A019539601A013723936A007850144A001418115
1291I94815929I89701870I87958213I90069167I94775287A000192844A004994367
1284A009006204A013138054A018224667A023671914A028000179A030745311A032815822
1277A035062955A037440393A039314224A039966809A039279058A038274680A038357614
1270A039820867A041531139A042147568A041650031A041613611A043503673A046827363
1263A050040738A052938543A056269952A059351108A060535341A059405408A056643254
1256A053246130A050695237A050326883A051800692A053252794A053519938A053232143
1249A053296537A053484904A053154223A052566297A052636959A053545933A054300585
1242A053892975A052408148A050703484A049424441A048750611A048800623A049642167
1235A050891322A051879338A052366582A052645668A052906675A052950485A052538256
1228A051618330A050338627A049234821A049086636A050059014A051311402A051931988
1221A051842192A051391301A050678676A049793850A049203020A049352460A050129544
1214A051009092A051481690A051247931A050449932A049900338A050609730A052763834
1207A055409999A057293661A057773913A056996894A055596056A054334366A053834321
1200A054426207A055901995A057405427A058162719A058412510A058968372A059968791
1193A060823927A061198284A061311964A061509171A062026502A062869300A063535081
1186A063309503A062238686A061333869A061303453A061607544A061600088A061693579
1179A062398154A063392371A064240514A064914476A065394661A065718677A066064598
1172A066161189A065546805A064774273A065149950A067035921A069195171A070072871
1165A069569660A069273685A070557610A072749321A073741823A072347517A069583120
1158A067578191A067562884A068995523A070258071A069885627A067581292A064685071
1151A063221489A063892152A065458593A066431236A066668821A066772406A066723583
1144A065954349A064418324A062918850A062315286A062794944A063765871A064098002
1137A062984629A061072795A060189156A061231272A062758986A062887444A062092677
1130A062115242A062947616A063039589A061919552A060772531A060525972A060970662
1123A061872048A063513308A065811837A067729214A067970956A066201436A063546363
1116A061686849A061281020A061573895A061626084A061373719A061294678A061619420
1109A062162614A062552872A062494745A062097758A061932286A062490523A063566684
1102A064474471A064865586A064944759A064928925A064804755A064596595A064405128
1095A064128880A063507502A062525227A061457313A060405694A059035669A057025264
1088A054459196A051433988A047805152A043979438A041535824A041975895A045040424
1081A049033524A052419562A054680682A056144595A057422648A058807914A060032064
1074A060723047A061008005A061367517A061964945A062376315A062181022A061595602
1067A061239520A061506466A062286718A063111108A063478472A063258633A062780362
1060A062440710A062430153A062845021A063626724A064315464A064456986A064287028
1053A064393846A064955118A065554063A065612849A064963365A063967036A063180253
1046A062955599A063199848A063517597A063701279A063893339A064242229A064782124
1039A065579794A066529806A067274430A067659212A067765370A067626355A067307353
1032A067040275A066953845A066852107A066485337A065989383A065734182A065724417
1025A065641417A065496926A065737613A066547752A067554043A068226158A068284944
1018A067809971A067190638A066884568A067047269A067457056A067825871A068017734
1011A068026641A067905176A067764776A067779753A067990024A068160774A068085625
1004A067779159A067234909A066369613A065369127A064560044A063975746A063466134
997A062991887A062734904A062922676A063468509A063961758A064152764A064125317
990A063980430A063784212A063685708A063705567A063701476A063653379A063595846
983A063507502A063408998A063350343A063387357A063681023A064357360A065265543
976A066090395A066662751A066991584A067134228A067045290A066588988A065871085
969A065162617A064451708A063508558A062297010A061022718A059984692A059530238
962A059950647A061085793A062088059A062407457A062277745A062137938A062266463
955A062680670A063256853A063791338A064094241A064260175A064629848A065286655
948A065979223A066599941A067054131A067254109A067333348A067364489A067179356
941A066735788A066150633A065353227A064298706A063259756A062463604A061807390
934A061037365A059885989A058435800A056929135A055396276A053869157A052370541
927A050347798A046946914A042403694A037311209A031392486A024204947A014582041
920A000624733I82730803I63660822I42926290I16316977H82456390H45510820
913H07140265G63556025G11517936F52874363E90643256E25908692D62690262
906D09366632C80936270D00469348D57709412E14987940E70757922F37559895
899G09778897G67045385H06165974H36339729H62279040H84694418I05312829
892I26712481I46753983I60659103I69111895I75057141I79683032I82934608
885I84766808I85011849I82633157I76161079I64492932I45328668I14725332
878H75041360H40483324H21085565H16233767H23566391H40114706H59375627
871H72743755H73296646H57315541H24804131G80335922G31826252F87626704
864F55290399F41108173F47779041F72605507G09315206G51109407G92500881
857H30146276H62643830H89823256I12063926I29700741I43376522I54732463
850I65238545I73781925I78623761I80779976I82166431I83819699I85892254
843I88497580I92057338I96432580A000870566A005470066A011698752A019093659
836A024206530A027132507A029528222A031784261A033815119A035600738A036989634
829A037831443A038154799A038069094A037819831A037731091A037695397A037336412
822A036864078A036789128A037467246A038684995A039651370A039982182A039733446
815A038718446A036556688A032686506A025726655A014562775A000902235I87334130
808I74585335I62784771I51065359I36931561I19039743H98819968H77561838
801H53803551H27960502H03868236G80337770G53069010G20051815F85552828
794F62313455F62633381F83998989G16272219G55352034H00557016H46457270
787H85206207I14635339I36638488I53006817I64661109I72234155I76967590
780I80599264I84140086I87121682I87667053I82927945I70882141I52029226
773I29733466I11418664I05700382I11539008I18032198I17442622I08635595
766H95503140H86554856H86170272H92234541I03360682I18220168I32678708
759I40459914I36955775I21682939H96113104H61956145H21213892G73457752
752G16206374F57553036F20124048F15514586F38920816F83455135G39452608
745G93616101H38300651H73407556I00211833I19686060I34403496I47101158
738I57328617I63406874I66638393I69632063I73573304I77537241I79164646
731I76083357I66332257I48302347I22634403H93000410H63589818H38928692
724H24702790H24453592H36750968H56115474H75939448H92469092I04890044
717I11929529I10414485H97685417H73981033H42219064H08259180G81088001
710G70003888G80628335H12536643H57520798I01874272I36076161I59252789
703I73552983I79777776I76936119I61879689I32122648H93761264H60879588
696H41947500H32419140H21254864H04350994G91148075G94640602H16585560
689H46021026H71029391H87786196H97652890I00336267H92111427H68082896
682H25498018G66896011G00010577F33517247E71675144E12167198D50980582
675C90737975C42366000C17547221C20607265C47303603C89147485D37462356
668D84489508E23953412E52279826E67959348E70720051E64879974E62276628
661E76314626F11313525F59624141G09303990G52369844G85972525H09715241
654H24073363H30189623H29823645H24954890H17007751H06417084G93232903
647G78366885G64145073G53132348G46459897G44061081G45686177G49735555
640G52475871G52232611G53755639G63766362G81477467G97074122H00037772
633G86134236G56561206G14673713F65857907F18085669E78975504E50985147
626E30620651E14272280E04647032E09389308E33079407E72195971F18172100
619F63575740G04601367G39340446G65303707G78211640G72121375G41298927
612F84387333F09032810E32365232D74524178D48984296D57022815D89696167
605E34434060E81099061F24566521F64059488G00933670G36532702G71131710
598H04005997H33788176H58499378H75483410H81635760H73671334H47919730
591H00343248G29116550F40159349E50134761D80702985D47201415D52043680
584D87034959E39613833E98026814F54488176G05778409G51063025G89327488
577H18830713H38013582H46254125H44045259H32408253H11357689G79699502
570G39464483G01375456F80968636F84465319F99949019G05482565F84885267
563F35678411E67580901D98009747D46164907D25499750D38528093D77780076
556E31261030E87719192F39104762F80649502G10068539G26924179G32138062
549G27068934G12948991F92550484F72449272F60716401F60223020F65554739
542F67671500F60333202F41838282F12991469E75057818E29207311D77143293
535D21599647C65636548C11986790B64246650B28444407B11821504B18887611
528B48333633B93615578C46556109D01049424D54505273E06745451E57698175
521F05719676F47540730F79345915F98176662G03365672F97026473F82472332
514F62410575F40216617F22710570F18695698F32738249F61102700F94381627
507G23201060G41331784G45285890G33026122G03834311F59519302F05716839
500E51087313E03232966D64203526D31261579D03706575C87842150C92690715
493D20300811D61132002D98371139E15951708E05043426D68602255D23196966
486C93649041C99325791D41140841E01704924E59858811F06185742F44932370
479F82382009G15757330G33780906G25636097F88572428F29421882E60031144
472D88923239D16345517C39407793B62234612A98278189A61334352A55370665
465A73210823B03313735B36751751B69138794B98861493C25546384C50023564
458C74179004C99727891D27004140D54974341D82175672E07580794E30900297
451E52353556E72209958E90565204F07482137F23116333F37642697F51233697
444F64130084F76548133F88492727F99823794G10528997G20779087G30679890
437G40125580G48929968G56880010G63389299G66998343G65691523G58814211
430G49108899G41608494G39302641G40414167G40584851G36956344G29734101
423G21021884G13160450G07732930G05317555G05778870G08664733G13399091
416G19136705G24399346G27501483G28433154G30131682G36336814G47461569
409G58747640G61400601G45039662G03551069F44529114E91408135E69032607
402E84551539F24357504F67659228F99497798G14470370G15638372G11668893
395G11628647G20120828G36483944G57317442G79046851G99026004H15580522
388H27113547H30588458H22310440H03102104G82004233G69625309G65219651
381G54872970G27491521F89255362F54481579F23614134E81736207E23220037
374D67901308D44741010D64480467E14010514E72320867F25480774F69091867
367G03522435G29786685G48442063G60151446G65924292G66139446G59852765
360G46621146G28876128G09623058F86149662F48530593E88631266E13519409
353D49373894D26251500D52639986E06388743E55948052E88673163F13237301
346F38888553F63009190F79892408F91871970G06071151G24303151G40752236
339G48408942G45792797G38551618G35747898G43594619G61734778G85038413
332H07483613H23662190H28079064H13542736G70143695F91117185E87772106
325D96506611D58519452D86597527E56536968F31620192F88898093G22438820
318G33467908G27016350G14880553G12369378G27508279G55286716G84217585
311H06541122H21225042H30908713H38889436H47361823H56586686H65710537
304H73995285H81014119H86651777H91233924H95175891H98671981I01839699
297I04810211I07729920I10729462I13705846I16381899I18646648I20499102
290I21952788I23301107I24970473I27006807I29130958I31086469I32755704
283I34276159I35882385I37455952I38681354I39588613I40489076I41551646
276I42609532I43164470I42469725I39606493I33958410I25208851I10081099
269H80345831H33179004G85932146G68002061G90490740H33171483H66178451
262H75336676H64165011H41217523H10382935G71371209G28916572F97939802
255F93304740G15742749G52672946G90299009H21199574H43802263H59629245
248H71176587H80512227H88853979H96712247I04136249I11077164I17561513
241I23553010I28892779I33471693I37353752I40563235I42775070I43408059
234I41950679I38096265I32019195I24813249I18267738I13955373I12342681
227I12166983I10584047I04401282H91315341H70166602H39779012G97140231
220G40197496F77843010F33608626F29432901F64936331G18666284G68865510
213H06891200H33347643H51424331H65320939H78888583H91319366H99230745
206I03742759I07581932I11837359I16129073I19898046I23186174I26192181
199I28791041I30861815I32627971I34183922I34863492I33387506I28620753
192I20659230I12026582I07221760I09407864I17242709I25906828I31014950
185I30666390I24722067I14383369I03194748H96658607H98741785I08391082
178I20272337I29184730I33249876I33574486I32629093I32958717I35931604
171I41161652I47347848I53313151I58259760I61849538I64306875I66019721
164I66986689I66962014I65996497I64358404I61909313I57851094I50920274
157I39406449I21314982H95874660H66245418H40346486H27140994H30766927
150H47575921H69142958H88459828I02762793I12087414I17457401I20240272
143I21869524I23451272I25226401I26036078I23534008I16317703I07011555
136I01896704I05180346I13523681I17243699I06868648H79582470H42860762
129H12335411H01213427H08639608H19896384H18902431H00937377G75874184
122G60558858G66169333G90841675H23117413H50883314H68123472H76338811
115H80430151H82046339H76422932H56967905H24477080G91547438G76078846
108G87325462H17655585H51706188H80146513I01561406I17688982I30277056
101I40058770I46961813I51199426I53790236I55717509I56983818I57025384
94I55767454I53441808I49207428I40698159I25991214I06656266H88785296
87H80089970H84232179H98036880I14824167I29210263I38440338I41040451
80I36027074I23348281I04145024H80700593H57471842H41905010H40634544
73H52458993H67776759H76941450H78446005H78357265H82506533H91711801
66I03219886I14386141I24452615I33460147I41434800I48866588I56138908
59I62320420I66237711I68172967I69309894I69705430I66948884I58077925
52I44082153I31407253I26910414I31815918I41932271I53081636I63584618
45I72045855I76630444I77392156I76396949I74845023I72066638I67826981
38I64285828I64601993I69385043I75527958I79571266I81032275I81810217
31I82251146I80131746I72761053I58926134I41335701I26151473I18583045
24I19929913I28407051I40630334I52203935I58835679I57114322I44498670
17I20204446H84668093H38113209G84753126G37474731G12971094G20057687
10G54382295H02598166H49986480H88005242I15411830I34066614I46963463
3I55730111I57974538I54152651
$$ === CHEMSPECTRA INTEGRALS AND MULTIPLETS ===
##$OBSERVEDINTEGRALS= (X Y Z)
##$OBSERVEDMULTIPLETS=
##$OBSERVEDMULTIPLETSPEAKS=
$$ === CHEMSPECTRA SIMULATION ===
##$CSSIMULATIONPEAKS=
##END=


$$ === CHEMSPECTRA PEAK TABLE EDIT ===
##TITLE=SG-X14313
##JCAMP-DX=5.00
##DATA TYPE=INFRAREDPEAKTABLE
##DATA CLASS=PEAKTABLE
##$CSCATEGORY=EDIT_PEAK
##$CSTHRESHOLD=0.93
##MAXX=3997.453
##MAXY=0.9700254818064864
##MINX=373.96442
##MINY=0.14036288886850895
##$CSSOLVENTNAME=
##$CSSOLVENTVALUE=0
##$CSSOLVENTX=0
##NPOINTS=0
##PEAKTABLE= (XY..XY)
##END=


$$ === CHEMSPECTRA PEAK TABLE AUTO ===
##TITLE=SG-X14313
##JCAMP-DX=5.00
##DATA TYPE=INFRAREDPEAKTABLE
##DATA CLASS=PEAKTABLE
##$CSCATEGORY=AUTO_PEAK
##$CSTHRESHOLD=0.93
##MAXX=3997.453
##MAXY=0.9700254818064864
##MINX=373.96442
##MINY=0.14036288886850895
##NPOINTS=60
##PEAKTABLE= (XY..XY)
2198.4574970289286, 0.8925279997871521
2987.465760930414, 0.880547048162291
426.3761000078184, 0.8711422102302396
2834.480316583268, 0.8701859136590863
619.0244373338542, 0.8425433059470866
443.37448271305675, 0.8373770134236448
407.96118541047645, 0.8298540130585883
2882.6424009147768, 0.8234789389756342
2961.9681868725565, 0.8230757133638066
641.6889476075057, 0.8195901528642687
1464.6939769194682, 0.8182157298923326
565.1962254339323, 0.8147794619687475
628.9401605785765, 0.8100473304103644
1454.7782536747459, 0.8005720990337033
2867.0605501016416, 0.7982229608362414
495.7861627208754, 0.795079113894501
470.2885886630179, 0.7935137767096669
477.37124812353386, 0.7594348204566267
587.8607357075839, 0.7472446579243902
1396.700446098514, 0.7448168411401149
1612.0132936982013, 0.7373909967376752
2925.1383576778735, 0.7289851323059783
553.8639702971068, 0.723821521996821
1352.787957443315, 0.7147284162667372
526.9498643471461, 0.701114774879149
1378.2855315011725, 0.6956266175449775
749.3453714073494, 0.6938181537610644
545.3647789444876, 0.6870939148224285
1277.7117671618448, 0.6795719280796109
1283.3778947302576, 0.672189713700367
978.8235379280686, 0.6678909074559098
848.5026038545734, 0.6646795290617638
389.5462708131349, 0.6441028133179532
818.7554341204063, 0.6435592190941761
932.0779854886628, 0.6428900377977296
967.4912827912431, 0.6371885554423896
2944.969804167318, 0.6343837985655932
733.7635205942138, 0.6263360987264261
1177.1380028225171, 0.6151915805844567
1497.2742104378417, 0.5983383663852067
1143.1412374120405, 0.5964498535466226
1595.014910992963, 0.5791813740353869
679.935308694292, 0.5686338559035337
1096.3956849726346, 0.5589337955256777
1433.5302752931975, 0.5560599578541051
943.4102406254883, 0.5140678298499843
1310.2920006802187, 0.5079644336292436
1256.463788780297, 0.4559014745186221
831.5042211493351, 0.41422951292076676
1233.7992785066458, 0.40561538977228245
1202.635576880375, 0.4040047232563814
900.914283862392, 0.4017819770668963
871.167114128225, 0.385078431147445
1164.3892157935884, 0.3843992952133425
1060.9823876700543, 0.3556251535325418
1073.7311746989835, 0.3503791697034545
1654.5092504612976, 0.3441403519254701
1325.8738514933539, 0.2868742647894752
1123.3097909225953, 0.1913609510901715
1032.6517498279904, 0.14036288886850895
##END=

##END=

