##TITLE=JPK-001
##JCAMP-DX=4.24
##DATA TYPE=INFRARED SPECTRUM
##DATE=19/10/2018
##SAMPLING PROCEDURE=Diamant-ATR
##ORIGIN=Angelika Moesle
##XUNITS=1/CM
##YUNITS=TRANSMITTANCE
##RESOLUTION=4
##FIRSTX=3997.453
##LASTX=373.96442
##DELTAX=-1.4165319
##MAXY=0.84750527
##MINY=0.077715382
##XFACTOR=1
##YFACTOR=7.8930079e-010
##NPOINTS=2559
##FIRSTY=0.60509908
##XYDATA=(X++(Y..Y))
3997+766626726+767029602+767423644+767489040+767214994+766658291+765912347
3988+765162400+764506999+763879689+763277527+762865060+762822544+763219380
3978+763943576+764709532+765340542+766031511+767054070+768258017+769146385
3968+769431079+769341366+769379577+769844603+770597420+771271624+771664910
3958+771795704+771672915+771283858+770781376+770493737+770736520+771538271
3948+772369321+772469908+771778033+771097787+771071583+771302057+771059425
3938+770343309+769669935+769457509+769953950+771191578+772567022+773100918
3928+772552070+771638782+771124520+770994482+770725872+770261073+770112156
3918+770597344+771327733+771599287+771195505+770493132+769907583+769418921
3908+768735730+767913439+767569540+768243896+769513542+770366493+770319371
3898+769414616+767730162+765446943+763216963+762204372+762886431+763701095
3888+763202011+762296728+762522294+763232746+762915429+762599018+763950221
3878+765685573+765838492+764900813+764188398+764078069+764908969+767231758
3869+769619717+770050686+769227488+769102132+769922535+770331529+769762593
3859+768524588+766850706+765386455+766098493+769932050+772495357+771094011
3849+767672317+764115525+761405038+760104128+760213777+761052304+762235787
3839+764296536+767219600+769510824+770356978+770598250+771056480+771383010
3829+770955062+770005829+769011966+767993637+767560629+769280274+772521410
3819+773808501+773123648+773504474+775412757+776326347+775248133+773206565
3809+771709842+772071940+773599926+773668948+772031539+771422958+773065426
3799+774537379+774702003+774842236+775516818+776159608+776598279+776925338
3789+776777780+775922715+774952942+774564338+774549159+774453481+774763020
3779+776190494+778043953+778851443+778198382+776611419+774938669+774228670
3769+774912088+776094060+776928585+777409394+777287058+776229611+775034877
3759+775176469+776639133+777514738+776636566+774621579+773216155+774349647
3750+777112844+778229042+777598787+777964963+780595479+782417448+781151728
3740+778016918+774833400+773031141+773628849+776333747+779231211+780605296
3730+780202193+778901661+778082088+778759616+780605598+782310215+782989480
3720+782665819+781777603+780522984+778863374+777236387+776861603+778471447
3710+780590268+781381598+780714190+779105327+777393913+776889166+778096663
3700+779601239+780022617+779592101+778916613+777946613+776502148+775294122
3690+775969384+778949764+781802523+782688021+782075663+780880476+779539995
3680+777984295+776063099+774670740+775851428+778963810+780140119+779217619
3670+779324775+781520094+783132506+782731744+781378804+780188600+779413431
3660+778796316+778374259+778752895+779896958+780158243+778488967+776217529
3650+776117470+779740867+783939392+785163956+783994066+782188710+780921707
3640+780580225+780724989+780658988+780227264+779664219+778746249+777071461
3631+775693298+777303521+781693780+784255199+783533722+781341650+779385641
3621+778820028+779984330+781344444+781092222+779691027+778576263+778027943
3611+777482493+777156416+777692578+778568787+778691802+778112672+777732148
3601+777919578+777974554+777246733+776302257+776243808+777053564+777427291
3591+776620632+775461541+775483214+776993227+778484210+778984728+778771925
3581+778270425+777751329+777467390+777563673+777982483+778363233+777989808
3571+776393631+774293538+773600304+775416156+777693862+777969117+776705965
3561+775628883+775561976+776044522+776279603+776160514+776306637+777083090
3551+777676493+776946331+775182510+774006956+774484367+775911086+777041632
3541+777506885+777521233+777348302+777173936+776911065+776254380+775220419
3531+774334317+774129594+774593940+775207203+775600867+775976482+776629543
3521+777359402+777712288+777531201+776963851+776254380+775683406+775434430
3512+775510173+775888658+776455101+776751199+776458197+776105237+776537791
3502+777578323+778141066+777790371+777124624+776750594+776626296+776436298
3492+776119660+775813444+775541361+775192931+774792622+774614556+774870403
3482+775358235+775616121+775492426+775334599+775526484+775988036+776215792
3472+775865323+775220268+774960569+775439490+776234444+776545645+776120038
3462+775569906+775529203+775762773+775610760+775069689+774773290+774962381
3452+775141731+774914202+774626110+774851675+775536679+776152359+776588085
3442+777132100+777651724+777627634+777058397+776576153+776560295+776718878
3432+776623652+776212243+775701983+775324706+775202295+775299786+775490765
3422+775733322+776074955+776437204+776592087+776399220+775883900+775195272
3412+774705401+774869875+775665584+776456310+776706191+776523821+776311999
3403+776229385+776202803+776174862+776108786+775917882+775601849+775402185
3393+775579647+776046108+776448985+776635735+776815765+777237293+777839381
3383+778299196+778433765+778422136+778515171+778699127+778848875+779012820
3373+779269498+779438200+779231740+778713929+778361648+778490553+778813383
3363+778863676+778637431+778425005+778301310+778196948+778176709+778275937
3353+778343146+778303954+778284319+778337256+778365801+778437012+778782799
3343+779292681+779449074+779079123+778717704+778861562+779324171+779663992
3333+779800751+779900734+780047084+780234740+780445278+780636635+780752703
3323+780760481+780702032+780700673+780806093+780892256+780844379+780747115
3313+780745378+780813493+780783287+780590193+780405330+780424662+780587097
3303+780687306+780688137+780665709+780560968+780308519+780079555+780104249
3293+780406463+780901922+781507785+782013816+782158580+781988820+781838544
3284+781832805+781727385+781348447+780893011+780673034+780785628+781074702
3274+781256997+781138135+780839546+780689345+780838489+781181557+781639107
3264+782217255+782775770+783047778+782915248+782503536+782071359+781881663
3254+781978399+782035111+781691062+781117293+780939378+781460059+782224731
3244+782577012+782462908+782357111+782522868+782754172+782858762+782998239
3234+783387825+783939996+784411441+784728230+784965349+785083833+784885152
3224+784240549+783245856+782143703+781205042+780659139+780597065+780948591
3214+781601575+782426736+783162486+783545653+783655906+783840542+784199846
3204+784461508+784427677+784239039+784131504+784192370+784379725+784551070
3194+784497152+784168431+783814640+783682563+783702122+783717376+783794251
3184+783939015+783813658+783208551+782528456+782334531+782617489+782899918
3174+782822741+782317616+781468894+780563385+780077063+780270535+780843397
3165+781256015+781340971+781337421+781376463+781287883+780941870+780479713
3155+780167380+780233834+780786081+781615470+782161223+782003319+781411427
3145+781070926+781189410+781224903+780649095+779648058+778855294+778636978
3135+778819349+778926581+778583513+777847310+777197874+777041104+777200819
3125+777093965+776455856+775630922+775031403+774604512+774023418+773196521
3115+772362449+771737255+771225484+770554829+769649999+768764652+768255752
3105+768326510+768919007+769700519+770236001+770325336+770070622+769558927
3095+768684228+767344428+765648495+763888147+762325575+760905728+759208209
3085+756918043+754329891+752162061+750891433+750390310+750103275+749455954
3075+748210472+746551391+744790892+742952084+740623782+737172486+732109532
3065+725422838+717792122+710658753+705900052+704876587+707438686+711938065
3055+716198891+718417091+717692366+714509226+710706555+708455128+708996953
3046+712185606+716791236+721050023+723352574+722942599+720079948+715436559
3036+709398697+702250602+695068601+689900378+688525388+691151070+696551882
3026+703103477+709449746+714621442+717992164+719298511+718719909+716886990
3016+714718782+713109013+712577306+713114450+714370126+716007232+717894295
3006+720069980+722612897+725503565+728559914+731547695+734352425+736950620
2996+739218660+740976441+742307406+743583547+745013739+746415161+747525922
2986+748205639+748237205+747406909+746019685+744946757+744864520+745663099
2976+746761552+747751563+748539419+749111753+749471359+749694583+749843274
2966+749925360+750054718+750455405+751177713+752016542+752823428+753654554
2956+754465065+754960977+755004096+754872850+754816515+754649021+754137326
2946+753500804+753149278+753169818+753376505+753660822+754075479+754696898
2936+755479468+756188787+756569387+756649282+756719134+756982533+757393415
2927+757825893+758216914+758559906+758922080+759440949+760152911+760854755
2917+761294558+761485009+761685957+762113074+762801626+763676023+764543699
2907+765110218+765282470+765436447+766101136+767322679+768558872+769295981
2897+769632328+770124616+771110549+772313515+773172658+773442702+773352914
2887+773292048+773476080+773859625+774262124+774569020+774743159+774641213
2877+774047961+773001237+771876657+771059199+770700499+770784321+771208720
2867+771801443+772407985+772958344+773425787+773812805+774196878+774650124
2857+775076486+775269957+775205014+775129196+775273355+775610911+776003064
2847+776421799+776897019+777383945+777803435+778134723+778413225+778701846
2837+779067720+779509034+779914176+780153183+780196529+780118522+780048443
2827+780134833+780456908+780923066+781348145+781664103+781969715+782370477
2817+782845547+783242684+783383898+783252727+783070659+783101922+783389411
2808+783734669+783901861+783811469+783546861+783204020+782839581+782587887
2798+782621114+782906790+783200999+783346745+783407535+783506989+783667762
2788+783755360+783521488+782847736+781988292+781424944+781441105+781894048
2778+782400004+782706673+782876810+783103735+783432757+783762308+784043755
2768+784325429+784617524+784838785+784933557+784966029+785030217+785113738
2758+785146285+785158216+785262051+785448726+785522127+785315440+784922230
2748+784631268+784644860+784934312+785353349+785747843+785934216+785741500
2738+785179890+784480085+783918399+783651828+783667989+783817359+783930783
2728+783938033+783845677+783695778+783650091+783965294+784720150+785667797
2718+786485179+787094742+787679159+788418458+789222172+789733792+789692635
2708+789281226+788974934+789013296+789154888+789065779+788814916+788736908
2698+788852749+788803815+788436582+788064516+788004028+788187606+788364842
2689+788436506+788503413+788713951+789077031+789402957+789484136+789297159
2679+788970629+788651953+788486875+788599998+788966098+789368144+789597259
2669+789654425+789656312+789617120+789477265+789272315+789083525+788887411
2659+788631564+788406527+788386666+788603094+788874120+788997437+788980371
2649+789006122+789164101+789334464+789381964+789336126+789314453+789369579
2639+789472129+789588575+789710684+789804172+789816255+789780083+789802662
2629+789886409+789902267+789809232+789727373+789700716+789536695+789008840
2619+788167670+787393332+787138919+787639513+788809101+790320473+791801337
2609+793050821+794088710+794988027+795738804+796277005+796553393+796583675
2599+796468211+796287728+796001297+795563834+795065581+794609617+794183935
2589+793810434+793687419+794030487+794824686+795779130+796518202+796849339
2580+796831215+796531644+795879868+794951704+794209459+794118840+794614601
2570+795240098+795684735+795897387+795881152+795741372+795765461+796132317
2560+796654131+796971372+796888154+796462623+795900106+795362660+794880870
2550+794491964+794325603+794446654+794775450+795195242+795544653+795635650
2540+795561040+795787965+796651639+797951340+799198332+800017149+800258120
2530+800019264+799599925+799223781+798802705+798096406+797077774+796083760
2520+795572896+795690625+796167507+796745882+797544159+798793643+800337940
2510+801623370+802166554+801898096+801089322+800117057+799355178+799089136
2500+799300580+799633454+799793094+799833042+799822470+799532036+798812749
2490+798029197+797743068+798130162+798917413+799693564+800126270+800098480
2480+799819676+799682388+799833873+800010655+799996987+800052038+800510192
2470+801164536+801530712+801543021+801520744+801693826+802161419+802936211
2461+803706925+804034059+803989429+804093716+804527932+804905209+804826597
2451+804223075+803197042+801892357+800495240+799180057+798110603+797561226
2441+797879978+799139203+800837779+802190342+802838947+803123037+803533163
2431+804126415+804649437+805013196+805359511+805736864+805988784+806038851
2421+806038927+806063771+805932752+805565518+805194510+804968415+804727067
2411+804423116+804331062+804570372+804823954+804773207+804510110+804322454
2401+804298968+804334914+804372445+804430894+804474693+804447432+804349564
2391+804107158+803562312+802798395+802200838+801972403+801871892+801595127
2381+801139389+800738098+800717936+801372506+802616326+803835981+804479526
2371+804629576+804594084+804322605+803768319+803369747+803623404+804624743
2361+806230057+808048552+809376043+809778240+809499134+808969013+808368512
2351+807739919+807096449+806454188+805872717+805314202+804477487+803144181
2342+801633564+800421310+799586105+798910013+798227502+797579274+797151704
2332+797032842+797060255+797033295+796983984+797191652+798018247+799518066
2322+801035630+801611740+800942822+799507418+797933217+796706312+796221954
2312+796716356+798175622+800309546+802538620+804251997+805247371+805717909
2302+805753326+805127225+803701488+801912746+800686295+800729338+801880123
2292+803253075+804036022+804118259+804027263+804317394+805016217+805741470
2282+806301193+806854195+807417467+807656550+807360830+806780793+806290168
2272+805976022+805734523+805585530+805718589+806255732+807043513+807688342
2262+807818153+807415126+806926539+806922914+807583677+808653886+809889626
2252+811310606+813010768+814961340+816911610+818283127+818510354+817827540
2242+817279145+817555834+818219089+818405613+817864014+816924296+815869870
2232+814829867+814061494+813854279+814196516+814929321+816167704+818019048
2223+819846378+820467722+819349258+817172667+815169914+814339316+815009519
2213+816430876+817110896+816317829+814943442+814458405+815569392+818097962
2203+821258221+823796154+824767287+824341680+823183797+821519505+819711130
2193+818886044+819698669+821025028+821155368+820015836+819087747+819427794
2183+820819927+822454088+823528451+823642555+823119382+822474327+821705652
2173+820744563+819952931+819354922+818384695+817075328+816410865+817033794
2163+818428721+819520377+819619755+819140004+819385581+820927009+822807578
2153+823780749+823629567+823174735+823225557+823624885+823516142+822488146
2143+821061804+820161128+820446729+821901011+823766854+825085737+825390065
2133+824712387+823231901+821353673+819815794+819173533+819239534+819441010
2123+819644147+820127070+820835106+821325883+821436589+821410385+821464152
2113+821687754+822087233+822380914+822153309+821444669+820805202+820710127
2104+821166771+821780412+822089800+822009376+821914830+822154442+822673235
2094+823246853+823775765+824107581+823838821+822678823+820985987+819598838
2084+819068793+819325697+820056614+820998069+821844374+822340437+822532549
2074+822558904+822316952+821775881+821359714+821479860+821973506+822562000
2064+823443647+824813578+826273222+827330141+827948010+828066193+827176013
2054+825071766+822612143+821143135+821450182+823473627+826591748+829755782
2044+831540824+830871603+828103724+824873689+822602250+821669404+821888853
2034+822808106+823673743+824110073+824457748+824757545+824487274+824121099
2024+825447080+829156489+833260317+835052986+834136527+832756778+833139190
2014+834982530+836156497+835243436+832770220+830597556+830471218+832400948
2004+834362545+834352200+832362359+829873209+828153866+827447945+827242618
1994+826936855+826299804+825214340+823187271+819810055+815579587+811542439
1985+808198602+805289282+802677116+800885354+800424934+800934062+801668679
1975+802577511+803890579+805332250+806691836+808295035+810188593+811482329
1965+811015339+808333246+803999473+799223856+794692005+789656237+782902183
1955+774563809+766368084+760017814+755719381+752614551+750336316+749372886
1945+750062798+752280998+755938528+760863061+766505674+772198958+777300727
1935+781360680+784455165+786868271+788509153+789365350+790180618+791766223
1925+793976720+796037394+797542196+798733457+800096063+801990376+804314373
1915+806556436+808491225+810431376+812772515+815530502+818306008+820609163
1905+822191973+823108659+823554957+823759303+823985774+824474059+825248851
1895+826006198+826383475+826503470+826971969+828108632+829412487+830177613
1885+830213106+829595311+828448076+827127305+826074465+825380324+824682030
1875+823428695+821234131+818169324+814759108+811673912+809307777+807542823
1866+806178102+805351733+805286488+805938944+806992238+808072641+808903390
1856+809354672+809422561+809145569+808461699+807062316+804545301+800900533
1846+796609350+792174385+787831701+783869767+780868469+779384433+779438427
1836+780385923+781579223+783088254+785587599+789361725+793430741+796784622
1826+799711386+802659068+805305065+807366418+809123972+810852301+812457539
1816+813688371+814465352+814965871+815380528+815658199+815690822+815643322
1806+815822521+816462442+817770375+819809225+822060274+823507533+823572552
1796+822547501+821099562+819694592+818241442+816366839+814297028+812806196
1786+812466752+813116641+814028342+814802228+815581248+816426345+817120184
1776+817577356+818127338+819344803+821163600+822359316+822189934+821074642
1766+819408916+817276653+814887108+812603209+810631266+809073150+808193920
1756+807998485+807845037+807241817+806467781+806017480+805807018+805297740
1747+804332573+803155886+802024132+801156758+800759998+800707817+800463976
1737+799940727+799966101+801160836+802169802+801774099+800730773+799823905
1727+799199842+799025779+799510665+800335901+801093626+802291306+805209462
1717+810016417+814469128+817149031+818668333+819816096+821018307+822593943
1707+824791452+827189606+828750063+829436804+830594234+832971847+835134014
1697+836408040+837674893+838574436+838395464+837708346+837262426+836911202
1687+836356992+836471323+838437149+840574320+840563748+839122152+837566150
1677+836711010+836906293+837606853+837906273+838064705+839179620+841080351
1667+842042346+841691878+841238934+841814591+843197209+844048875+843602200
1657+841962149+839647364+837494863+835911373+833375403+829171743+824040372
1647+818649831+813974122+810454786+807503328+804650721+801721087+798860928
1638+796986476+797514859+799819223+801330066+801872420+802961735+805842888
1628+810442401+815657972+821351634+828063550+834486240+838201540+836544195
1618+823261276+793941227+762348381+746782922+750453970+767367384+788070255
1608+804601182+814842327+820636802+824163538+826818748+829276635+831826198
1598+834675029+837870554+841190906+844258281+846774466+848777521+850650538
1588+852829923+855592969+859015418+862909690+866767941+869892406+872046568
1578+873804273+873505306+863125439+837656165+802889769+771034580+758837578
1568+770817473+790865697+806428437+815403937+819051802+820419996+825033102
1558+835022628+842371142+845717472+848465188+851823071+856008532+860928232
1548+865790918+869719626+872515445+874324274+875178659+875281512+875616500
1538+876651896+877936570+880344541+885649296+893283788+899612386+903472072
1528+906682246+910591999+915035346+919635917+925289932+932955461+941046143
1519+947965501+955060735+963225121+971095221+978292326+986130257+995840073
1509+1010643351+1036418992+1063936480+1073741823+1060460339+1012141206
1500+904156773+722043584+504493985+342861272+280287729+283870140+318779298
1490+371260407+429106796+476618703+509554371+533213117+553688006+574630828
1480+596066163+616712624+636657920+656381880+676144051+696308796+713998588
1470+724011373+724321365+711692035+678933981+628136987+582726117+562128666
1460+564372541+581913756+609740216+637369052+655264171+667126790+678394874
1451+690857239+704399630+718176120+730458078+739971024+747309569+753402180
1441+758186708+761857981+765899585+771419258+777059831+781446768+785368981
1431+790243221+796398208+802836983+809113928+815863526+822813845+827011842
1421+821172964+793514639+742740413+690868943+656562287+642660139+647969652
1411+669823231+700399258+729253526+750611118+765099948+775463882+783479954
1401+790551627+797899914+805445071+812275093+818084596+822457109+823945222
1391+820762837+810912034+793200795+771535325+754987105+748753129+750411228
1381+753947706+753226682+743673939+721712749+683903974+632302889+580938092
1371+546226105+533734629+538680949+551188548+562926339+570966954+574232558
1361+569933257+556649432+537441848+518219426+505534554+504384374+515994355
1351+537764527+564889748+592043779+615477073+634390409+650042182+664120584
1341+677971457+692022447+705258621+716259379+724836232+731741241+737625882
1332+742808075+747435530+751563900+755231550+758525698+761533868+764303408
1322+766919803+769538840+772245400+774923491+777386739+779608488+781731614
1312+783888268+786065463+788119567+789833774+790932529+791156131+790532069
1302+789709173+789831811+791727407+795085593+798566567+800727451+800356668
1292+795531212+783625700+764531692+743757837+729338632+724825056+727772889
1282+734697910+744176119+755196963+765832753+774561619+781224299+786240961
1272+789797678+791884480+792429931+790914178+786255083+778321171+769800578
1262+765003817+766022147+771112060+777130514+782304023+786512969+790288832
1252+794034187+797751224+801247905+804421002+807250426+809735196+811956568
1242+814062627+816133873+818097811+819819117+821336380+822902954+824704005
1232+826711742+828866962+831163094+833557774+835965292+838254703+840244769
1222+841909741+843623344+846079494+849852714+854831619+859808787+861973370
1213+856428022+838282568+808465852+776112033+749794113+725956433+692525457
1203+647029405+605489963+588708626+602797902+636260481+672753394+702638980
1193+724350212+740070856+752154132+761912730+769838335+776215716+781449562
1183+785989720+790118544+793872735+797231373+800314833+803259418+806023748
1173+808526793+810880468+813343792+816112049+819195735+822479537+825870874
1163+829326097+832807298+836355481+840084298+844008852+848058989+852208126
1153+856409898+860641197+865216923+870837787+878124756+886997857+896348822
1143+903922901+905306349+892674149+857759591+799434092+726726618+652176559
1133+585001217+531716131+497114699+480725175+476757464+480712790+493112590
1123+515531065+546053401+579975606+613342733+644720209+673897910+699946994
1113+721314857+737121890+747266601+751551516+749476569+741016313+727864942
1103+714195911+705551018+705997996+715801603+731589606+748775708+764121566
1094+776480626+785974315+793177990+798777181+803332367+807225959+810747561
1084+814015052+816960770+819542125+821808655+823819942+825724147+827784292
1074+830165229+832761989+835299318+837617878+839871571+842370236+845270569
1064+848531189+852029456+855575223+858987100+862348533+866174916+871168320
1054+877622198+885064729+892678001+899986944+906942323+913526919+919619152
1044+925273772+931036002+937914732+946953514+958546013+971448258+981300420
1034+978401673+945608126+862111489+719918797+543658947+386804532+296065217
1024+277969773+304586377+346932176+394384312+446580802+500115506+547512101
1014+582906901+604879947+616376767+623827831+634185157+650560371+670830536
1004+690698353+707412406+720703481+731533573+740808569+748952792+756051651
994+762067085+767024618+771290277+775621936+780653853+786340944+792106874
984+797508969+802607415+807689701+812787392+817610583+821842411+825067009
975+826105275+822798893+813571019+800106560+787874443+782426585+784724832
965+790567108+794009418+790437070+777337503+754018767+720339722+673967611
955+609604137+524921185+430025558+348556822+304326829+304820494+338597917
945+387429991+438065154+484060290+522468471+552289983+574658353+592246086
935+607779790+622819205+637482552+651124775+663237276+673792415+683062427
925+691360173+698915525+705886082+712371299+718384694+723922416+729082181
915+733979604+738570207+742698955+746315404+749583273+752782347+756099075
905+759528018+762957793+766233968+769187012+771789889+774170976+776261554
895+777570620+777322853+774303808+766093283+748766419+718690835+675953525
885+625506886+573497714+523297408+477309068+441636219+424972157+430654303
875+450475640+467677223+466990973+442672144+399511303+350504713+313690273
866+304204248+323727921+359764870+397863625+432558244+466231360+501696390
856+538273692+572941805+602985785+627390853+646595114+661725677+674104521
846+684862194+694643674+703755707+712439868+719900900+722226332+713723711
836+694465381+675437224+670584883+683011076+703358117+721222879+733444726
826+742054050+749236429+755534368+760589619+764307713+767243765+770051969
816+772960912+775764963+778101722+779964243+781861878+784090801+786128216
806+787057362+786280758+783887890+780762142+777966851+775437904+771749790
796+766328514+762126667+764592785+776522763+794693138+812876350+827320701
786+838222684+847252556+855262059+861811314+865648345+864717160+854784950
776+828665259+779632200+707971827+624243734+545135582+485018208+449613703
766+434665397+428726083+419098995+398062874+364055562+317875526+261275071
756+200488060+147106219+111882631+98461046+104098911+124109198+153812858
747+188411298+223682044+257128727+288084089+316822572+343698478+368980737
737+392948267+415594989+436494993+455348219+472378720+488116204+503174045
727+518066998+532816848+546968048+560232088+572810105+584997970+596795230
717+608006903+618503895+628266383+637280699+645526264+653072176+660089628
707+666689403+672724849+677812345+681721418+684744238+687420290+689891090
697+691872246+693303496+694586811+696038148+697451274+698393786+698847334
687+699481364+701155020+704066681+707589717+711066538+714509226+718227093
677+722072355+725507114+728169271+730026883+731260810+732299227+733813998
667+736033859+738386099+740683288+743044515+745235227+747034314+748801987
657+750995116+753518626+756083745+758731101+761667606+764936683+768327869
647+771360431+773548349+774950374+776103500+776897624+775804458+771200640
637+763943576+758068676+757994671+764590444+774463071+783246007+788933476
628+792094112+794025050+795589434+797290049+799430165+802042180+804976042
618+808030202+810906823+813094666+813550101+809759739+796448124+765987183
608+713348700+644066620+576422099+531095806+516756950+527064134+549934193
598+576757767+603931809+630083368+654461817+676745987+696557847+713136727
588+725948277+735323180+742380203+748370717+753845835+758447539+761741234
578+764070216+766263269+768814342+771744353+774892831+777870418+780130302
568+781573484+782687719+783818038+784891042+785969482+787381702+789134196
558+790785197+792093432+793269968+794501781+795881001+797711351+800098178
548+802576076+804858993+807117367+809141114+810203621+808105566+796312498
538+767195964+724957510+690737622+684519730+703722707+728277938+743789251
528+751863622+760425070+771962971+782979436+790759900+795929482+800006653
518+803725955+806967619+809122462+809977828+810299752+811136618+812807706
509+814675588+815573244+814841043+813272430+812206072+811548707+809635289
499+804924390+797045680+787746519+781510201+782656606+790323041+798090818
489+800002499+795579466+789603753+788553782+795322864+806831691+817945345
479+825809555+829948800+831023239+830334384+828932358+826397974+821641161
469+815639245+812141657+814571150+822215610+830794275+836807368+840298461
459+843373840+846916662+849679104+850943162+851777158+853199950+854786687
449+855652324+856244066+857963106+861171620+864702812+867361948+868902998
439+869646677+870270966+871935937+875584859+880954180+886572401+890390553
429+891091717+889680403+889100593+891716459+897015022+902639133+907634878
419+912778633+917791596+921285785+923026121+922072508+914403355+892684873
409+849078074+781790818+701327951+626367275+568772580+523142072+471479668
399+399251567+317180063+258283854+228375009+207882601+195646519+208487312
390+255459584+326703317+405651754+479850740+538915198+579145122+608038922
380+632967390+655110119+674178905+691208311+706258375
##END=
