##TITLE=X9492
##JCAMP-DX=4.24
##DATA TYPE=INFRARED SPECTRUM
##DATE=5/11/2018
##SAMPLING PROCEDURE=ATR platinum Diamond 1 Refl
##ORIGIN=ComPlat
##XUNITS=1/CM
##YUNITS=TRANSMITTANCE
##RESOLUTION=4
##FIRSTX=3997.453
##LASTX=373.96442
##DELTAX=-1.4165319
##MAXY=0.9345178
##MINY=0.49160236
##XFACTOR=1
##YFACTOR=8.7033753e-010
##NPOINTS=2559
##FIRSTY=0.84924394
##XYDATA=(X++(Y..Y))
3997+975763901+975663777+975116860+974489678+974100549+974118561+974517689
3988+975033240+975307178+975225476+975005778+974820938+974530906+973985838
3978+973384955+973055750+973009180+973005208+973017261+973296815+973947829
3968+974739031+975338886+975503866+975205136+974804981+974768684+975038856
3958+975190754+975140898+975012421+974445985+972856323+970518330+968863470
3948+969059883+970374307+971049633+970674132+970584143+971758242+973432346
3938+974352230+973945706+972186202+969508594+967113554+966450966+967668210
3928+969332589+970016338+969659123+969472023+970191042+970958891+970667900
3918+969694940+969735346+971619150+974219644+976075095+976765967+976430598
3908+974757042+971087368+965564845+959983220+956659803+956216366+957958954
3898+961257374+965107916+967947284+968702189+967844763+967475152+968766153
3888+969928130+968745677+965399797+962349360+960846535+960417480+961768268
3878+965361651+968717118+968945720+965715374+961242650+957919439+957156590
3869+959082237+961401876+961560692+959968358+959840018+962677195+966098887
3859+967521173+966315435+962468865+955826689+950039199+951765968+959202017
3849+966815030+971777349+973191554+971144826+966427818+960385429+954690873
3839+951395535+952133730+955931402+960123476+963357452+965732495+967435568
3829+968154655+967687043+966458910+964611266+961096846+955607607+951499426
3819+951810209+954545960+957858967+962428254+967929820+972240921+973823461
3809+972465276+969365461+966734355+965044979+962314980+958143041+956060358
3799+958355274+962649596+966814208+970584760+973838391+976222405+977752897
3789+978544852+978296938+976800483+974780532+973250177+972136208+970998543
3779+970719332+972594575+975860533+978439317+979022189+977320486+974010835
3769+970964301+969791778+970227818+971377400+972634090+972931382+971193861
3759+968118290+966172302+966130458+965795021+962816219+956752052+950530302
3750+948808532+950946688+952874184+953316868+954405430+957814794+961464334
3740+962656102+959971372+953893028+948339756+948609790+954925706+962657334
3730+967926191+969375118+967588083+964733922+963357041+964420468+967338251
3720+971168590+974904078+977400544+977516557+974377158+968306554+962718765
3710+962397641+967144577+972991854+977022167+978082787+976714124+975369704
3700+976224460+978527252+980323053+980644450+979090400+975071934+968650004
3690+962466468+961386125+966517738+973725391+979526920+982535924+982329854
3680+979205796+973639238+965875353+958502927+957158233+961221351+964479228
3670+965237694+967619449+973966662+981038099+985793596+987910178+988428469
3660+987928669+986052536+982795481+979587597+977467317+974641029+968291967
3650+958276311+950900803+953846254+963766373+973328044+979710869+983159681
3640+984930143+986043427+986531927+985841192+983881713+981246292+978067378
3631+973638005+969104878+969063445+974120067+979458367+981859982+980500359
3621+975935797+970624412+967942559+968186637+969169527+970094821+971428147
3611+972596081+972615805+972549444+974356681+977428623+979420564+979381801
3601+978350425+977586000+977054424+976351430+976158646+977523269+979775793
3591+980540422+978031766+973455973+971377194+974191154+979002260+982651526
3581+984379938+984856454+984873301+984842140+985013420+985490346+985711140
3571+984294949+979902969+973057462+967914891+968871072+974290183+979713472
3561+983334180+985931181+988394158+990196054+990270703+988637073+986691770
3551+985777091+985524999+984484925+982386902+981106721+982572837+986101091
3541+989285005+990580321+990236460+989506689+989315207+989536069+989426288
3531+988514623+987072407+985846260+985210998+984884875+984814267+985604373
3521+987541663+989917802+991805441+992921396+993512349+993729513+993382639
3512+992450770+991665801+991949806+993008577+993370380+992205938+990565802
3502+990312957+991805441+993663768+994733222+995259800+996073259+997204280
3492+997904329+997760580+997205513+996944656+997125934+997195651+996662294
3482+995950466+996093941+997341797+998755866+999490842+999711019+999949071
3472+1000208902+1000175481+999841277+999532412+999533644+999821827+1000124392
3462+1000292316+1000545092+1001178300+1002154204+1003127575+1003781054
3454+1004057184+1004018284+1003531565+1002409378+1000964628+1000026048
3445+1000190205+1001409093+1003202428+1004844550+1005775803+1006148906
3437+1006501670+1006953462+1007275134+1007502571+1007878140+1008391021
3428+1008833020+1009111615+1009194002+1008948348+1008386501+1008009836
3420+1008454780+1009663189+1010845711+1011363728+1011307913+1011247442
3411+1011663485+1012607407+1013792395+1014944989+1015936782+1016584919
3403+1016657102+1016167643+1015443899+1014901844+1014837605+1015266387
3394+1015916168+1016525543+1017074104+1017582670+1017844829+1017625336
3386+1017150054+1017077118+1017736144+1018656165+1019181167+1019277730
3377+1019391483+1019791090+1020368757+1020861983+1021023332+1020745217
3369+1020174809+1019638986+1019396277+1019524069+1020000722+1020729054
3360+1021487178+1022111688+1022741883+1023588283+1024495908+1025084533
3352+1025230816+1025100010+1024910308+1024899556+1025253142+1025873269
3343+1026421350+1026638583+1026541883+1026366220+1026342730+1026442718
3335+1026407517+1026083722+1025540503+1024772997+1023489802+1021307543
3326+1017994262+1013339986+1006864980+997879401+985904952+970999365+953715448
3316+934835157+915269268+896334737+879823325+867164373+858325899+851772684
3306+845583601+838735971+831757194+826351848+824176985+825831228+830889084
3296+838459499+847597662+857576678+867980709+878441993+888353072+896991367
3286+903892003+908989854+912433529+914441632+915389116+915757014+915794407
3276+915480816+914995535+914920065+915761124+917511245+919786027+922186546
3267+924504610+926732822+928922478+931056113+933073393+934913298+936489401
3257+937738558+938734597+939699270+940851111+942199982+943479067+944346972
3247+944699119+944742196+944753153+944834718+944947992+945098247+945290620
3237+945318630+944873823+943974416+943005702+942211145+941416588+940412057
3227+939281651+938096869+936582060+934470203+932019074+929785314+927983487
3217+926468472+925251091+924561178+924415923+924562137+924899355+925569955
3207+926498195+927155577+926992927+925965933+924476395+922914948+921437600
3197+920083935+918836900+917517409+915819541+913529829+910634578+907233911
3187+903476782+899552687+895609007+891660943+887595085+883225499+878439253
3177+873386192+868343334+863265139+857750149+851639824+845396022+839639898
3167+834467948+829481864+824492767+819934574+816400705+813963067+812232463
3157+810981388+810377492+810615681+811627540+813192616+815113059+817290250
3148+819794661+822727373+825850130+828611289+830763689+832656121+834698603
3138+836877027+838932590+840691136+842145199+843437913+844691042+845774741
3128+846476228+846869398+847208191+847548970+847776955+847837632+847697718
3118+847250377+846437466+845357465+844154398+842849151+841358723+839694001
3108+838017911+836449205+834985348+833710372+832848220+832526686+832681255
3098+833214955+834058479+835103484+836235122+837387100+838481346+839418762
3088+840185857+840877687+841579654+842348324+843341486+844806918+846817418
3078+849131578+851430535+853584510+855583916+857320546+858547446+859012114
3068+858609288+857514015+856226985+855330181+855048367+855135684+855256697
3058+855346137+855562754+856070704+856939156+858137977+859585466+861190264
3048+862766640+863938068+864298707+863677553+862230270+860450083+859090049
3038+858736463+859317897+860202306+860779562+860806545+860361875+859773524
3029+859511297+859921656+861052404+862755888+864836585+867038225+869050779
3019+870678519+871927883+872847356+873425091+873780183+874295461+875348342
3009+876941839+878754556+880534537+882332393+884292420+886307440+888086667
2999+889576685+891015682+892493304+893792386+894802533+895718308+896608949
2989+897055605+896444244+894518596+891453846+887403123+882176317+875492502
2979+867425436+858472113+849318884+840673398+833197765+827436368+823754230
2969+822240448+822559586+823952629+825592354+827088399+828622589+830528239
2959+832813704+835155601+837241981+838992035+840502529+841868795+843037552
2949+843814235+844076462+844011060+844071052+844608929+845614282+846883437
2939+848256278+849547964+850550235+851324727+852194754+853323173+854652732
2929+856247462+858238512+860439810+862412781+863928001+865111345+866178265
2919+867234228+868331829+869517365+870733239+871873848+873019868+874375930
2910+875923817+877444105+878894196+880447904+882192205+884029781+885770110
2900+887164797+888027771+888459565+888854721+889579698+890621005+891598622
2890+892190054+892476251+892811072+893465510+894425663+895416428+896165169
2880+896701472+897223392+897709495+898001787+898211966+898654787+899413664
2870+900276500+901040240+901660504+902138115+902438214+902577923+902720918
2860+903047452+903493629+903761677+903681345+903445690+903409462+903762157
2850+904466315+905358257+906205205+906838276+907357388+908008608+908748377
2840+909222016+909333783+909508967+910174020+911226216+912194929+912749448
2830+912918674+912948327+913067354+913340949+913671661+913937175+914136534
2820+914376367+914707215+915029709+915197633+915165240+914996220+914783918
2810+914620103+914600859+914781521+915098056+915392951+915551013+915582379
2800+915566696+915581557+915686201+915881451+916048211+915986506+915571832
2791+914883563+914147560+913523323+913019962+912666377+912624190+912988459
2781+913577769+914076884+914381229+914701120+915280568+916066427+916788597
2771+917357155+917963449+918745747+919601050+920378761+921042855+921593470
2761+922020540+922360976+922687237+923031782+923392970+923794563+924226906
2751+924533853+924549879+924419415+924551248+925126176+925879300+926475526
2741+926852328+927120513+927372536+927651131+927960407+928269889+928530267
2731+928671756+928630118+928398366+928010607+927519573+927045865+926734877
2721+926611399+926597839+926666392+926822880+926994296+927089627+927127773
2711+927234266+927559020+928196611+929089786+930007889+930708828+931144390
2701+931475033+931900390+932507300+933252411+934033272+934755441+935340847
2691+935716347+935876670+935978369+936226489+936616576+936942768+937110418
2681+937229855+937386137+937550089+937728833+937990376+938342660+938746445
2672+939200703+939689956+940100315+940290360+940243790+940115998+940102849
2662+940278170+940606416+941089095+941759216+942507546+943070968+943308609
2652+943389284+943577137+943901411+944187882+944375872+944594064+944886630
2642+945113176+945229806+945429164+945844797+946347952+946794814+947236333
2632+947711000+948092458+948321471+948552948+948875853+949103084+949043434
2622+948825380+948757169+948968444+949354286+949780054+950166443+950437300
2612+950548313+950545300+950495991+950430177+950396620+950483458+950732468
2602+951090094+951452788+951741382+951947246+952086681+952131881+952102227
2592+952151193+952356304+952558745+952644076+952776388+953117167+953598066
2582+954144230+954751619+955238681+955331683+955077674+954871946+955054663
2572+955635754+956325325+956778350+956938261+957083791+957418885+957807535
2563+958051682+958175502+958308431+958493681+958670303+958700573+958515802
2553+958328154+958474163+958960198+959457327+959815433+960221340+960761889
2543+961171084+961137663+960673680+960095260+959734004+959696269+959890286
2533+960231339+960705594+961239910+961611918+961513369+960787433+959770507
2523+959228178+959565669+960252501+960439258+959946169+959225301+958667084
2513+958421362+958543059+958816243+958783508+958377737+958195500+958757484
2503+959799750+960576432+960681145+960396729+960306740+960676694+961321065
2493+962020497+962745406+963381558+963676316+963607352+963430182+963314101
2483+963282735+963430730+963833008+964299867+964479502+964203852+963657277
2473+963198979+963031739+963105086+963379367+964019081+965105656+966205517
2463+966576977+966037045+965307137+965129146+965386169+965553956+965611688
2453+965927059+966540681+967051164+967049863+966469183+965676543+965256938
2444+965500812+966122993+966620944+966901936+967340785+968101922+968731500
2434+968776768+968474752+968350521+968463109+968523307+968420649+968239028
2424+968081651+968178008+968796629+969768287+970413343+970244186+969533180
2414+968936474+968768893+968870866+968952568+968850732+968608981+968431675
2404+968488791+968754853+969053240+969181170+969054336+968822105+968730062
2394+968826283+968937981+968934283+968867990+968872304+968997905+969142339
2384+969133093+968908122+968622815+968586587+969030983+969869713+970800965
2374+971749544+972993908+974725813+976747818+978638265+979953921+980436531
2364+980361335+980490155+981382029+982765073+983604351+982921150+980725742
2354+977938011+975475034+973846746+973328729+973958376+975375868+976829383
2344+977600382+977680098+977646678+977861788+978258450+978680314+979050610
2334+979246134+979075744+978518828+977801110+977090104+976357114+975666174
2325+975296563+975467089+976037497+976497850+976367318+975746575+975242529
2315+975112614+974839977+973929064+972760513+972171888+972500066+973406527
2305+974367160+975097752+975670899+976313627+977015250+977447525+977400065
2295+977087365+976843491+976761652+976818357+977035248+977270972+977169204
2285+976573114+975808553+975417438+975692883+976448678+977201186+977677222
2275+978060940+978601968+979202646+979534248+979326055+978547181+977594082
2265+977134824+977429582+977984649+978141752+977879593+977907809+978924393
2255+980713551+982154876+982421418+981900662+981508656+981394013+980918525
2245+979867083+979005137+979143407+980166086+981400862+982493053+983386913
2235+983886987+983885823+983742279+983823913+983908491+983642976+983338837
2225+983553947+984088400+984331383+984379527+984624360+984545465+983478682
2215+982281093+982522570+984282690+986220186+987422021+987837037+987438594
2206+986295930+985163675+984903092+985388304+985777159+985890638+986521175
2196+988072829+989789599+990870284+991443500+991785443+991549514+990588676
2186+989652424+989364995+989241860+988585846+987739241+987565701+988140423
2176+988721651+988876974+989070169+989879177+990951987+991245237+990429039
2166+989599075+990152087+992293598+995166113+998081567+1000853409+1002824051
2156+1002780221+1000511329+997420007+995058661+993757455+993084457+992759978
2146+992602121+992515830+992916670+994220068+995781446+996273644+995331092
2136+994115766+993944897+994841291+995799252+996026004+995387797+994064745
2126+992480287+991376864+991275850+991867419+992467549+992988579+993841074
2116+994926691+995488401+995171934+994530303+994136174+993844430+993326550
2106+992749637+992545416+992907493+993726568+994688365+995338625+995371566
2096+994952852+994584611+994623236+995085575+995916361+997183735+998804284
2087+1000213901+1000680144+1000066522+999048158+998396390+998287226+998471929
2077+998734499+998885507+998767782+998635949+999049390+999967973+1000365183
2067+999196974+996722834+994535918+994006464+994984903+996487316+998125603
2057+1000008995+1001694262+1002478410+1002520049+1002514227+1002566550
2048+1002486149+1002760498+1003977331+1005707729+1007089610+1007899097
2040+1008261654+1008183992+1008034627+1008400472+1008882877+1008303840
2031+1006709110+1005705195+1006340389+1007983538+1009456160+1010119912
2023+1009798035+1008672013+1007290201+1006048782+1004888449+1003840636
2014+1003398226+1004026982+1005764366+1008388898+1011443033+1013910804
2006+1014487102+1012825256+1010251745+1008607569+1008588599+1009645863
1997+1010977476+1011977555+1012256972+1011902153+1011250318+1010340364
1989+1009475062+1009858302+1012310595+1015813852+1018447835+1019331080
1980+1018947978+1018247929+1018066445+1018965441+1020968613+1023083621
1972+1023427961+1020816646+1016328924+1012499955+1010775720+1010536024
1963+1010720522+1011024319+1011295792+1011111363+1010561980+1010639915
1955+1012160477+1014607908+1016422063+1016302284+1014107149+1010680253
1946+1006904153+1003101619+999648013+997623543+997807013+999597609+1001899510
1936+1004183538+1006361962+1008282610+1009680653+1010557186+1011321679
1928+1012145342+1012384832+1011479262+1010291261+1010312833+1011432829
1919+1012231016+1012312307+1012678562+1013788286+1014842879+1014995120
1911+1014264801+1013559342+1013869782+1015250635+1016870226+1017954473
1902+1018261557+1017892426+1017030959+1015856039+1014681735+1014057293
1894+1014169539+1014330067+1013971893+1013790340+1014762341+1016410763
1885+1017505420+1017632458+1017096773+1016202433+1015250704+1014666873
1877+1014602840+1014727003+1014527576+1013530578+1011427213+1008799052
1868+1007752266+1009896174+1013820062+1016987608+1018350930+1018449547
1860+1018334356+1018702666+1019680077+1020982173+1022204485+1022978223
1851+1022994317+1022191952+1020806099+1019003998+1017086363+1016452676
1843+1018528510+1022105525+1024827099+1025959970+1026431897+1027280831
1834+1028128875+1027471560+1024614934+1021319254+1020409163+1021927602
1826+1023865508+1025633368+1027906643+1030451390+1032196513+1032739869
1817+1032614679+1032238905+1031260192+1029337079+1027198170+1026318007
1809+1027157011+1028541015+1029050813+1027978551+1025353814+1022124769
1800+1019923745+1019480513+1019743288+1019139871+1016780237+1013250545
1792+1011423584+1013753016+1018378186+1022075118+1023777848+1024194850
1783+1024112189+1023781615+1023697927+1024307850+1024715881+1023190456
1775+1018890724+1012993043+1008901915+1009146747+1012208622+1015420819
1766+1017292159+1016882553+1013804790+1009347613+1006075422+1004631495
1758+1003597379+1002280627+1000474074+996968283+990582718+982536198+976821645
1748+975740274+977365343+979095331+979871877+979683613+979040132+978904875
1738+979526030+979676833+978685382+978920079+983167557+989681941+996306996
1728+1002476835+1007353754+1010319682+1011917357+1012725406+1011964611
1720+1008303087+1002607572+1000541052+1006668909+1017273189+1027398624
1711+1035067658+1039655230+1041077105+1040371441+1039856437+1040686675
1703+1041140522+1039272744+1036353044+1036198542+1040439241+1048656355
1694+1058078044+1064620096+1066979045+1066497599+1064825824+1061673961
1686+1055766692+1050253140+1052357190+1060319474+1067848045+1072462464
1677+1073741823+1072443973+1070533255+1068752178+1066004785+1063322383
1669+1064651531+1069732465+1073435697+1072839129+1069332721+1066867005
1660+1066617927+1065786662+1061811615+1053179347+1038229382+1020670706
1652+1011463579+1006505094+995142554+973221003+947140661+927410819+912749585
1642+898172177+882955259+868152263+854342976+844457236+844059615+850902314
1632+858024087+862948467+866643686+870820214+875891903+881653232+889189131
1622+898865925+908126744+914899177+920487788+928473836+939331029+949487967
1612+956996267+962577345+968214031+975251226+982687617+987521392+986063562
1602+975151102+954045612+926067701+897962956+877154210+868049604+869412241
1592+875719596+881574064+885072938+888390054+895354792+907742545+923883661
1582+940161814+953160587+961298670+965756122+970797199+979984260+989888970
1572+995821920+997738117+999262377+1003393980+1008284390+1011155193+1011300380
1562+1008080580+999349284+984959249+976996006+983159270+992102869+997961582
1553+1000407370+1000395317+999380171+997669564+993426401+984465407+970794596
1543+954483365+937117198+922851599+916292426+911576103+900576531+879934887
1533+854536034+833242691+816294691+799036456+781148094+766757032+757733238
1523+752825980+752566081+757225973+764293028+773163074+784666623+797003972
1513+807070511+813035787+814272754+811915106+811339699+816751277+819969365
1503+813868969+797053692+770135647+736981265+706287601+687027221+678124028
1493+670637164+657946640+641127596+630310330+632798030+643444085+655147747
1483+665789693+676230089+687117483+697859554+707629829+716151700+724429081
1473+735628011+751590862+768261157+781319169+790441991+797551848+805140823
1463+813455049+819795140+822053417+820644690+820222346+827258720+837847042
1453+843191231+838332392+820522719+791517541+762261982+747658755+751924313
1443+767583435+785780250+801231247+812505648+821228521+830318197+840310088
1434+849005224+855462013+860731828+866213397+871651616+875489968+877323572
1424+878354127+879171490+878915084+878111692+880140751+886090275+892817509
1414+897757708+900582489+902296246+903727367+904610611+904617597+904625062
1404+905595898+906597484+905886615+903251262+900250065+898372014+898097049
1394+899546387+901916636+903323650+902524505+900344232+899326346+900751372
1384+903040741+904317292+904312156+903736064+902851518+901305206+899512624
1374+899226496+901402454+904569795+906901350+908019565+908321787+907964367
1364+907341021+907962381+911173894+915923843+919953335+922243388+923334004
1354+924234576+925375048+926620234+927926302+929504048+931481196+933628939
1344+935239969+935333177+933588739+931414356+931219586+933657977+937010636
1334+939544153+940729003+940705376+939659001+937626860+934475682+929967278
1324+923909685+916348858+907730013+898968720+891226545+885228055+880772589
1315+877233789+874192665+871135928+867126365+861734373+856187059+852731946
1305+852430683+853893786+854303598+851321302+843924427+831891492+815114908
1295+793557215+767657535+738726936+708961442+680891487+656599961+637253838
1285+623210677+614501570+611107135+612752954+618669880+627668814+638305486
1275+649044612+658609502+666352772+672271136+676667979+679879286+682329594
1265+684670121+687612626+691566374+696505204+702147643+708242080+714778037
1255+721935559+729739028+737815407+745618738+752829747+759441516+765514997
1245+770915686+775270411+778244351+779958450+781131179+782739127+785396257
1235+788885818+792223137+794188779+793773215+790179285+782676600+770764404
1225+754623356+735375714+714858233+695300561+679303195+669495732+667297722
1215+671848860+680561529+690837220+701210570+711199721+720663528+729551312
1205+737998260+746270711+754511727+762664808+770669347+778555682+786275188
1196+793574199+800163368+805962089+811124315+815883578+820428005+824857241
1186+829168958+833312203+837273073+841044995+844532569+847592389+850143780
1176+852150924+853520683+853988363+853051564+850387721+846816733+844510243
1166+845437250+849537418+854945708+859887962+863822877+867016241+869742610
1156+871795981+872288590+870344247+866690803+864078804+865161133+870074555
1146+876680160+882805963+887623986+891264006+894048929+896313301+898422556
1136+900595707+902806524+905007616+907318147+909873578+912649119+915577106
1126+918684385+921971847+925281019+928414323+931312793+934015466+936491729
1116+938603860+940236394+941453090+942599863+944242807+946823714+950338545
1106+954478366+958966156+963538525+967823259+971597988+975047416+978528073
1096+982213568+986103146+990201191+994556669+999174306+1003886794+1008217618
1086+1011309899+1012055901+1009482938+1003101003+992601231+976888623+953796739
1077+921962670+883605862+844510312+810356467+783793583+765563689+756694944
1067+757886986+767621718+782405059+798747725+814413764+828405356+840540196
1057+851041201+860222920+868345252+875610500+882272263+888687619+895102427
1047+901400605+907219529+912305052+916687788+920614553+924408526+928328649
1037+932380330+936184028+939168446+940908296+940952811+938258013+931375662
1027+919726240+904667385+889306445+877368566+871740920+873129923+879738542
1017+888619888+897604714+905892368+913318966+919880467+925641727+929995219
1007+931318614+928871662+924901820+923148411+925024682+928608476+931335941
997+932252948+931634191+929863250+927163316+923732858+919742813+915198181
987+909718529+902529093+892826960+880142463+864522035+846694214+827941236
977+809499452+792224917+776984784+764969449+757078732+752837349+750281780
967+747621568+745225295+745389109+749887720+758282347+768736919+779699784
958+790460140+800785619+810626364+820009291+828933440+837370801+845344933
948+852923635+860178405+867227996+874258685+881419083+888683099+895797134
938+902401096+908342333+913894441+919483394+925146927+930426809+934778589
928+937797660+938904233+936907910+929857223+915316727+891470213+859065258
918+822501032+788156594+761254644+744790007+740832424+750669334+772637934
908+801057023+828331187+847729563+854273464+844756924+818863408+780918603
898+739950617+706585303+688227206+686090969+696163398+712628719+730843272
888+748396949+764586895+779367839+792702323+804508985+814794332+823662118
878+831285883+837926690+843879569+849286627+854086707+858291451+862188768
868+866077045+869949844+873619313+876939169+879794904+882188849+884460001
858+887101518+890207564+893348264+896135173+898701356+901434505+904387694
849+907096668+908692700+908030523+904226961+897565061+889724132+883043125
839+879669030+880874220+886374212+894278558+902159208+908406982+912767117
829+915822349+918116511+919917791+921576692+923440703+925417029+927236595
819+928955282+930664519+932189532+933496490+934791259+936054387+937212392
809+938749047+941364129+945025105+948893316+952129689+954394883+955731016
799+956497084+957450731+959310085+962036933+964987794+967799700+970671530
789+973865237+977376506+980930236+983858771+984871315+981938397+972804137
779+956733766+936459815+917835451+906638917+905258133+911971259+922691551
769+933507516+942516244+949800668+955831072+960361665+963057284+964437247
759+965544162+967008978+968700956+969783628+968783206+963995248+954339548
749+940042172+922324954+901886434+877559433+847040061+809279342+766119030
739+722069926+683144970+655443600+643176516+646656283+662218773+684446176
730+708593954+731704328+752561835+771087924+787738565+803292905+818801087
720+835087459+852027446+868650830+884098745+898234566+911395441+923814560
710+935345230+945678448+954658959+962048233+966909744+967422898+960842289
700+942888525+908234949+854505011+787201989+718691037+660496250+617702604
690+590746756+579396749+583161685+599638101+624736649+654362572+685296754
680+715437543+743736784+769655091+792789024+812659053+828684088+840951925
670+850377038+857215080+860686081+861821417+862687130+863978885+865449795
660+866462133+866103206+863424092+857806375+848918729+836308948+819393889
650+798088630+773546998+748193277+724882174+706081257+693437440+687632007
640+688648044+695940549+708462258+724988325+744150704+764284399+783960754
630+802317549+818366416+830498174+836945991+836490843+828920085+814838368
620+794390603+766434470+730585976+690362828+652264617+621336050+599366902
611+586692952+583488493+589044505+601129557+616867230+634052050+651597441
601+669247407+687052149+704790598+721749145+737100360+750375467+761611859
591+771295638+780155959+788726317+797041707+804795935+811637127+817244914
581+821500747+824824985+827933908+831162405+834453634+837801774+841123410
571+844009553+846167158+847824620+849393874+851147557+853347965+856085907
561+858945478+861371748+863328419+865135520+866788393+867915649+868375796
551+868425310+868193559+867395714+865825433+863960599+862807389+862967231
541+863790073+863608657+861050761+856102206+849719450+842508852+834020812
531+823538709+811307785+798268676+784817974+770762554+756200486+741337223
521+725815961+709155732+691605822+674197468+657996771+643536265+631056880
511+620904530+613336032+608192160+605111589+603890647+604573095+607507177
501+613054149+620511565+627546021+631353007+630582145+625882943+618100294
492+607042852+593255481+579542826+569398078+564841050+565917421+571331396
482+579073844+587036402+594084829+600562916+607167700+613762211+619792136
472+625144406+630150624+635329012+641142526+647495013+653947966+660309699
462+665939468+669534563+671480482+675154402+682804191+692421198+701648870
452+709983573+717037958+722218469+725986076+729619317+733630181+737278694
442+739607167+739862409+736818067+728870986+715712782+699551053+683750784
432+671484660+665983435+668735965+676901579+685443037+691960914+697747376
422+704016175+709887900+715845505+724996475+735396397+741059039+740423297
412+738047569+740120116+747959813+758189003+767474613+774261086+778134844
402+779975571+781952308+786222866+792813336+799368879+805570221+813555516
392+823847437+834361386+841890779+844111115+841339410+837513728+837749315
382+841927829+845825146+848275590+851357805+855925585+858464511+855950787
##END=
