##TITLE=X8888
##JCAMP-DX=5.0
##DATA TYPE=LINK
##BLOCKS=1


$$ === CHEMSPECTRA SPECTRUM ORIG ===
##TITLE=X8888
##JCAMP-DX=5.00
##DATA TYPE=INFRARED SPECTRUM
##DATA CLASS=XYDATA
##ORIGIN=ComPlat
##OWNER=
##XUNITS=1/CM
##YUNITS=TRANSMITTANCE
##XFACTOR=1
##YFACTOR=1.0052207e-009
##FIRSTX=3997.453
##LASTX=373.96442
##MAXX=3997.453
##MAXY=1.0793475059301154
##MINX=373.96442
##MINY=0.2967598185936197
##NPOINTS=2559
##XYDATA= (X++(Y..Y))
2559I64638750I64838693I65026540I65412432I66140280I66962228I67467659I67563006
2551I67455800I67309164I67201602I67242812I67435166I67574153I67491437I67227040
2543I66898545I66608296I66482827I66553804I66662432I66719830I66913843I67371423
2535I67843472I68035232I68011514I67980977I67928026I67721857I67295526I66586357
2527I65611071I64736291I64617404I65550531I66966853I67950203I68093460I67633271
2519I67017313I66566018I66484665I66808417I67249631I67349306I66907617I66284485
2511I66102034I66543605I67249157I67773978I67904605I67560812I66698068I65580593
2503I64959181I65503688I66930505I68260316I68901770I68990594I68888429I68643362
2495I68024915I66961042I65829929I65202884I65202706I65466865I65682996I65787415
2487I65758538I65547210I65263483I65304456I65936364I66821699I67316813I67057634
2479I66447903I66104584I65999395I65996311I66301859I66827569I67065283I66756356
2471I66210544I65791032I65525034I65405969I65419074I65420200I65458090I65914425
2463I66930031I68076501I68890030I69210401I68958397I67904605I66342832I65563576
2455I65862719I66688759I67752928I68759996I69159822I68526077I67064038I65433067
2447I64311323I64202398I65044862I66256379I67348239I68098144I68451068I68447689
2439I68205765I68003687I68094290I68235471I67776527I66660060I65779647I65535292
2431I65751245I66434383I67467778I68459073I69163855I69510079I69444261I69049474
2423I68522638I67803863I66897834I66545087I67299973I68548312I69587044I70265616
2415I70681453I70865801I70919404I71077307I71406217I71714551I71861959I71808771
2407I71389436I70534698I69745954I69775128I70618837I71606100I72233680I72374921
2399I72099851I71547576I70877779I70318804I70187466I70539678I70948933I70972948
2391I70662597I70447059I70490108I70504161I70189422I69542809I68955492I68826643
2383I68895011I68715702I68316291I68197345I68575469I68861924I68537876I67543676
2375I66295929I65674102I66370404I68127969I70127815I71671147I72322978I71959558
2367I71007872I70348926I70528827I71374494I72424728I73289014I73685520I73435294
2359I72492206I71107429I70175844I70640539I72030950I73239858I73851427I73934974
2351I73620354I73255275I73368647I73999131I74716483I75198552I75220966I74349150
2343I72273289I69678358I68223375I68600848I70057550I71980134I73940489I75273739
2335I75463720I74501894I72564250I70211421I69045620I69685296I70784982I71358425
2327I71952384I73413355I75168253I76115017I75899242I75114768I74528933I74288669
2319I74118730I73860144I73507753I72937987I71979956I70716556I69780879I69890990
2311I70846530I72044588I73097668I73836307I74275921I74462523I74298512I73718132
2303I72983762I72467421I72066349I71255785I70108366I69842368I70786287I71841739
2295I72380376I72418977I72020988I71203368I70328114I69857014I69751469I69750046
2287I69803174I69946668I70074331I70155980I70380945I70781839I71110512I71243333
2279I71325872I71456321I71515616I71463318I71451993I71561451I71681761I71639839
2271I71266636I70540212I69845926I69582596I69586925I69507114I69202811I68766281
2263I68407486I68277334I68415017I68821425I69370676I69687252I69339724I68235412
2255I66979602I66560860I67154344I68017088I68447748I68416144I68440039I68778199
2247I69053388I68811108I68075019I67246963I66628753I66270077I66184870I66448258
2239I67010376I67575161I67797340I67591230I67246252I67131753I67230183I67225024
2231I67109517I67244473I67778603I68446265I68997710I69395876I69520099I69219118
2223I68745172I68567642I68706512I68725012I68426283I68106090I67967398I67743026
2215I67162705I66470850I66146683I66291956I66577225I66675358I66655672I66839309
2207I67253901I67577474I67651415I67670389I67708397I67471039I66738093I65733812
2199I64926272I64627543I64785446I65080973I65274927I65443740I65732329I66043807
2191I66223708I66291008I66265629I66043095I65647834I65327878I65291589I65561975
2183I66051811I66567856I66840080I66793474I66694155I66823774I67104596I67231902
2175I67116514I66969521I66927540I66836938I66518523I66063018I65744781I65725155
2167I65917093I66095512I66168208I66301918I66639722I67015653I67199112I67293688
2159I67582988I68031259I68270396I68128088I67879938I67836831I67901818I67753462
2151I67349721I66995196I66936020I67121732I67377056I67623783I67867783I68111900
2143I68406360I68805949I69109896I68874257I67995919I67062496I66764538I67120724
2135I67554942I67579371I67157131I66553804I66133401I66203547I66781971I67511360
2127I67975700I68078517I68002205I67897964I67797814I67733598I67741840I67770242
2119I67653253I67197392I66348939I65364285I64741746I64823454I65451923I66111403
2111I66389615I66225724I65846176I65626725I65858865I66385406I66598631I66052760
2103I64998553I64109838I63764326I63749739I63653918I63351928I62941310I62357846
2095I61447370I60404844I59736470I59681503I59971634I60216523I60255836I60061110
2087I59579338I58888550I58335031I58223556I58417214I58506690I58364560I58280538
2079I58525190I58957392I59123062I58683389I57688596I56443695I55245757I54320991
2071I53790477I53557388I53406186I53254153I53129574I52952816I52602323I52174983
2063I51942487I52048981I52418745I52915341I53408024I53716892I53738654I53638801
2055I53686652I53910491I54114169I54160360I54028132I53688193I53096013I52306618
2047I51574502I51243754I51375448I51594425I51562643I51423181I51491548I51739342
2039I51885623I51801127I51599465I51430652I51281584I51006514I50593227I50262598
2031I50155511I50094141I49832709I49347793I48735512I48041226I47354470I46876137
2023I46686986I46563593I46203316I45582200I44936417I44479370I44312988I44501132
2015I44968377I45383502I45388779I44915901I44155441I43296789I42413233I41555767
2007I40865987I40524092I40528480I40600405I40424773I39898351I39065077I38003873
1999I36922983I36160507I35881228I35852114I35619618I34881987I33717728I32513445
1991I31635344I31136850I30790092I30366607I29794943I29106112I28390895I27808024
1983I27452609I27181334I26727312I26043165I25387658I24985044I24763044I24519104
1975I24193396I23836973I23421196I22842001I22077095I21229472I20432486I19763223
1967I19231346I18838279I18612009I18524608I18423984I18169252I17763318I17260614
1959I16684266I16130628I15694809I15185642I14240775I12841767I11381566I10190387
1951I09312820I08688324I08195582I07580751I06658298I05556299I04586468I03904456
1943I03356985I02638032I01595861I00377051H99228802H98227486H97303431H96441577
1935H95700270H95077731H94489879H93825241H92924963H91665714H90220515H89037815
1927H88296389H87573641H86344632H84630293H82866916H81377424H80273824H79638417
1919H79429877H79291778H78748932H77624519H76132003H74588492H73179463H71971978
1911H70990704H70250642H69739222H69337794H68831651H68145192H67490456H67073374
1903H66779093H66394920H65976119H65702116H65545755H65390698H65305313H65401016
1895H65570481H65591886H65378483H65002968H64607054H64310579H64082649H63759313
1887H63274338H62715067H62144648H61573992H61025572H60406176H59503586H58305469
1879H57065965H55900639H54625735H53122545H51540256H50049103H48714252H47674039
1871H47064426H46648352H45919082H44744862H43535123H42611128H41797362H40799248
1863H39657403H38689055H38115493H37786050H37300067H36485353H35600670H34916642
1855H34333772H33546866H32376204H30913038H29464044H28258634H27189129H26025700
1847H24777064H23600353H22549111H21652451H21026710H20685111H20415081H19982464
1839H19341721H18603912H17892312H17256076H16697516H16301484H16286661H16771516
1831H17488335H17975029H18117871H18238536H18574976H18965375H19141600H19106142
1823H19113732H19356011H19736271H20029307H20227234H20525251H20971446H21377618
1815H21582957H21612604H21604540H21657787H21713287H21650257H21563745H21753786
1807H22365237H23260889H24265703H25313566H26376608H27415636H28388491H29235995
1799H29861855H30159516H30147776H30062154H30115223H30174221H29919549H29312189
1791H28664272H28267766H28154512H28178883H28178349H28042267H27694797H27089395
1783H26273850H25422966H24730043H24237894H23787963H23154158H22241606H21139607
1775H20023911H19070683H18365724H17791629H17134640H16387344H15756266H15339006
1767H15042768H14843418H14855277H15122342H15573756H16164453H16851743H17467048
1759H17843572H18070909H18425849H19049041H19815845H20489200H20924307H21176252
1751H21417701H21702673H21937304H22146023H22525630H23136429H23777112H24219631
1743H24378542H24322152H24294699H24587794H25264470H26153718H27102202H28041792
1735H28892321H29614654H30259013H30824688H31226472H31473851H31709193H32018891
1727H32358178H32657381H32895391H33111107H33411555H33925999H34734606H35835775
1719H37107240H38307609H39250579H39995148H40787745H41818886H43064083H44336615
1711H45493403H46578088H47711869H48906665H50106797H51329581H52617529H53932694
1703H55225623H56555909H58034194H59649215H61221424H62584677H63774077H64933474
1695H66097911H67207796H68276471H69361927H70430662H71415850H72362970H73370216
1687H74387423H75212514H75738876H76098560H76493703H76986089H77534450H78088444
1679H78548752H78812140H78982732H79340460H79958492H80556661H80895058H81113620
1671H81497200H82062341H82542928H82678832H82443668H82067618H81840459H81824271
1663H81838621H81736811H81534556H81280358H80998410H80745812H80569943H80444119
1655H80319006H80157072H79882180H79401059H78742765H78107656H77679664H77382417
1647H76946183H76228239H75297780H74224658H72998435H71623560H70090664H68347388
1639H66459551H64636880H62952425H61227828H59348944H57516726H55988573H54693450
1631H53362216H51973170H50753588H49765495H48856976H48021804H47452868H47231342
1623H47220728H47226835H47104154H46809694H46472661H46342212H46587278H47151649
1615H47838345H48554808H49402194H50465770H51645623H52816286H54019502H55354827
1607H56757571H58036507H59114610H60114977H61152641H62186629H63186819H64274468
1599H65543976H66931837H68354326H69732699H70826990H71365567H71474611H71724421
1591H72557517H73802833H74920604H75608249H75962004H76215134H76603102H77291518
1583H78121590H78654653H78705469H78528295H78338195H78022626H77439459H76662694
1575H75875848H75267184H75016247H75180672H75565735H75797578H75568047H74848086
1567H73917331H73169917H72814146H72722061H72613847H72358108H71979509H71426226
1559H70563957H69444229H68349523H67463892H66671887H65762241H64655321
1552H63329483H61733200H59949366H58299006H57089327H56310308H55656758
1545H54776345H53498536H51906996H50216197H48617957H47315185H46519682
1538H46220776H46119677H45992786H45926079H46035478H46252083H46534743
1531H47011120H47773002H48734650H49743556H50690973H51578324H52570805
1524H53836695H55278040H56604293H57655832H58471792H59186950H60079934
1517H61478705H63370100H65328201H67016154H68517269H70055976H71645381
1510H73112282H74308560H75259594H76178134H77307231H78699539H80132583
1503H81243120H81891216H82483929H83671432H85549189H87502309H89034020
1496H90282122H91488303H92519800H93183490H93536592H93733274H93969328
1489H94569987H95731637H97237317H98701965H99948051I00967452I01750029
1482I02334915I02894661I03662354I04777813I06166030I07495722I08360660
1475I08669409I08867870I09601587I11075129I12849060I14287440I15080749
1468I15389440I15670142I16322566I17348134I18378623I19076882I19442970
1461I19778580I20450038I21601015I22968537I24035434I24477301I24489278
1454I24601405I25132571I25955290I26842166I27757860I28648888I29349696
1447I29970990I30967978I32475970I33929886I34704220I34874931I35012732
1440I35396905I35806516I36007585I36105837I36368752I36939645I37777603
1433I38725968I39606500I40313001I40859168I41386657I42074303I42903722
1426I43598068I44002223I44349277I44890641I45493435I45899784I46147875
1419I46460597I46917466I47449224I48007250I48609392I49346548I50351363
1412I51570470I52615367I53130701I53304198I53722703I54677888I55796608
1405I56448913I56491428I56457155I56835992I57352037I57333181I56604148
1398I55628744I54952780I54798494I55099298I55654003I56223058I56668305
1391I57080465I57601847I58119849I58318724I58117418I57896603I58049703
1384I58450775I58693588I58691453I58660442I58709360I58855641I59225287
1377I59966594I61045883I62167568I62885750I62981156I62723697I62526007
1370I62468254I62422537I62425383I62614297I63009914I63547543I64096497
1363I64403705I64304385I63993738I63847398I64008859I64375539I64875160
1356I65445638I65821687I65734820I65367961I65300483I65903159I66975510
1349I68012403I68707342I69132428I69481854I69786216I70005074I70242966
1342I70618185I71036927I71335418I71548347I71857097I72341597I72931761
1335I73539179I74056707I74260267I74020063I73628419I73541018I73807490
1328I74138475I74366524I74413248I74105922I73451126I72790342I72438841
1321I72394606I72438603I72368991I72261133I72500033I73278222I74127090
1314I74314700I73694533I72784472I72047315I71552913I71383803I71785765
1307I72661909I73395152I73371730I72373082I70617236I68835834I67875550
1300I67686162I67219984I65779232I63812651I61967625I60173475I58219346
1293I56535010I55617122I55019842I53708354I51499315I49459624I48521813
1286I48346714I48037728I47292507I46139099I44244265I41363829I37993971
1279I34908077I32472235I30711941I29462238I28379332I27405351I26965441
1272I27082311I26816077I25359908I23158756I21204627I19822636I19026422
1265I19374603I21067893I22506213I21492267I18217222I15220626I13989127
1258I13845040I13609757I12544343I10570291I08519867I07461924I07365688
1251I07168058I06313378I05326234I04637284I03643380I01356309H97599551
1244H93185150H88969210H84919653H80078387H73309201H64253774H53668297
1237H42610001H31272248H18914263H04852493G89032387G71515611G51842273
1230G29252210G03574177F75736084F47194929F18936434E91270652E64423084
1223E38875856E15220675D94102642D76236026D62114724D51871943D45677444
1216D44001765D47264655D55440943D68084849D84608254E04516786E27366561
1209E52601897E79696726F08245708F37540207F66391357F93782247G19336293
1202G42885098G64046921G82477849G98184524H11475576H22832601H32812734
1195H41992917H50990709H60263156H69626620H78266685H85542192H91518721
1188H96611991I01216076I05684969I10098776I14197549I18120512I22787331
1181I28661755I34681392I39389896I42617979I45269240I48054093I51327241
1174I55426607I60057849I63982591I66340934I67592060I68611758I69694842
1167I70552960I70669179I69855057I68756675I68406834I69071651I69718738
1160I69114047I67890848I68524535I72198992I76781197I79330590I79641711
1153I79500826I79702429I79827660I79813548I80172461I81188957I82560926
1146I83739120I84471414I84949748I85266798I84967417I83777721I82642932
1139I83031789I84992796I86891721I87512007I87252176I86766608I85825892
1132I84440699I83880657I85327872I88125533I90057723I89317838I86263727
1125I83363545I82952393I84948265I87107674I87427511I86108018I84770202
1118I84237673I84022254I83378487I82036284I80270002I78665002I77536320
1111I76528007I75195291I73840399I73153939I73058118I72815602I72194308
1104I71683896I71789856I72594846I73889673I75359361I76636280I77377647
1097I77430064I77053243I76908445I77479812I78425925I78923529I78627943
1090I78100750I78067071I78507633I78883386I78816442I78359988I77891142
1083I77881121I78502830I79364803I79865016I79789059I79351995I78873306
1076I78643537I78767346I78936811I78727499I78185661I77852363I78130101
1069I78772267I79206841I79083270I78439740I77631845I77128785I77200947
1062I77686456I78125180I78185009I77932649I77670209I77594726I77686218
1055I77903120I78258238I78643715I78855102I78761179I78394142I77983642
1048I77842342I78056042I78399182I78602209I78513207I78095473I77499202
1041I76999641I76746273I76671798I76540934I76127766I75471666I74826772
1034I74401686I74248704I74294006I74253745I73738826I72781625I72005156
1027I71780962I71855377I71895460I71768095I71540520I71435271I71667234
1020I72236941I72882724I73302592I73459724I73669569I74332370I75506294
1013I76826202I77827281I78256459I78150677I77729326I77300326I77152029
1006I77336259I77661907I77918240I78024793I78147712I78599718I79340433
999I80021970I80488741I80874041I81305650I81758605I82167089I82386006
992I82212983I81616000I80757644I79931901I79521638I79582060I79753541
985I79878951I79960600I79754787I78946476I77637063I76438887I75745134
978I75261702I74523893I73372205I71773668I69491341I66436221I63209739
971I60323432I57331165I53682916I49390664I44662652I39564401I34411065
964I29848546I25863382I21486931I16146875I11120312I07102240I02962494
957H98064305H92539071H86058178H78137540H69295398H59927071H48310275
950H31352948H09463101G89311370G75221969G66219315G60418892G55905587
943G49659147G37258469G16630125F91522214F63347385F24771011E73165966
936E23696018D83714084D46781726D14823396C91553396C72780424C54506480
929C37748118C24023114C11907706C00947187B95218571B96919391C04120423
922C15712701C33479791C60467533C93945033D26296995D57428752D93472365
915E33059186E66766663E92879743F16950405F43009467F69283356F91374155
908G08452325G21888887G33067433G45370096G63209615G80306878G90178620
901G97183623H05928580H16937661H27021739H34921504H41575421H47571458
894H53013265H58481161H65447206H73760140H80734843H85656928H89447959
887H92572928H94959141H96437130H96674073H95220276H92036901H86810158
880H76638264H54383337H13723808G60590907G04664673F49310756F00959528
873E72304349E71964885E96540088F36056111F81477746G26199165G65949048
866G99429483H27486672H51311318H71503310H88102257I01276795I11735143
859I20198864I26972200I32163070I35755107I37477333I37000363I34156334
852I28521462I18598252I03087370H86062921H73954806H66592787H61220653
845H57388056H56228363H57794998H61481492H66659257H72354313H78805381
838H89343362I04779474I16796215I23988472I29566538I34197188I37550562
831I39820022I41453957I42687769I43575298I44126565I44574361I46054366
824I50192570I55615877I59775723I62495470I64497628I66117688I66848382
817I65917212I62520137I55778404I45995605I35193642I26148355I22451603
810I25805273I33795642I43780341I53525428I60539978I63958695I64637446
803I63869100I63228298I65391561I71268237I76870496I80228139I81637880
796I81196428I78798060I74761666I70340743I66761811I63942152I61308798
789I59230683I59138538I61296820I64235366I66893624I69146362I71193110
782I73053197I74409750I74889803I74334564I72786132I70657023I68911791
775I67887054I66738448I64640233I61410429I57743562I54701369I52286398
768I49449247I44871489I37754537I29627019I22094646I13747499I03476701
761H92538774H84008050H80400537H81099508H82902137H82778922H79239955
754H72189354H61007487H42571104H14864171G83181444G52450048G20396964
747F84851340F50001603F22745017F04810626E93583872E86608221E82686800
740E81500246E84260254E93019561F07251211F24995917F45774871F69434084
733F94693078G19410768G42077914G62933063G82720899H00584077H15221306
726H27060874H37161910H45531114H51531540H55107982H57059680H58545377
719H60409496H63197788H67370798H72763627H78323668H83142164H86954956
712H89760681H91679826H92902135H93670718H94478672H95914206H98024459
705I00350724I02576068I04588603I06335673I07861217I09191621I10195072
698I10671330I10396675I09025476I06175458I01681187H95763063H88862894
691H81251896H72968551H63927711H53559017H40469805H22791865G98510054
684G66301913G29448180F99438760F88551768F97702837G17516112G37237004
677G50147204G54184488G49981949G38850187G21835759F99695686F73407922
670F44576636F15755549E91035666E75626178E73732175E86681391F11762263
663F41680131F66938354F80141057F78367482F63239883F39432551F11996656
656E84315221E57868131E33054678E10102561D89582133D72290590D58825922
649D49424034D44021570D42230414D43287378D46192511D50080282D54553296
642D59593586D65154427D70945007D76537927D81526956D85671623D89054704
635D92095445D95360202D99288383E03983961E09201276E14515894E19519806
628E23962312E27800780E31061535E33590174E34960483E34598309E32022708
621E27197156E20829575E14337179E09432171E07501640E09042542E13522286
614E19860694E27168813E35186338E44210338E54690863E66833785E80498633
607E95318372F10794152F26356680F41501119F55913086F69459640F82059193
600F93532911G03645747G12473302G20702392G29254582G38483743G47930873
593G56869014G64826236G71561505G76847188G80442842G82114370G81629811
586G79152759G76010593G74748320G77673821G85002930G94503129H02817308
579H06773061H03576285G90837922G67928614G38123585G08766707F87926027
572F80133704F85044345F99351359G19243259G41535305G63865241G84774881
565H03708632H20728099H36044553H49666591H61398242H71127438H79009178
558H85343731H90415299H94484128H97804119I00615654I03211356I05989093
551I09371937I13665969I18952778I25059934I31624315I38159938I44054106
544I48604352I51122673I50925339I47122686I38395220I23144881I00460953
537H71760532H41759236H17248901H03828348H02802188H10730593H22013261
530H32338966H40376118H46936467H52965710H58116555H60542080H57619070
523H47367602H30261089H10210990G93395734G85424696G88908994H02805508
516H23380546H46020951H67057602H84744910H99022099I10618735I20362874
509I28917139I36689479I43807261I50228859I55890709I60739446I64771275
502I68154771I71150181I73736929I75473800I75878074I74808569I72351736
495I68493761I63105498I56258932I48465067I40540754I33302722I27483146
488I23821616I22902008I24664910I28114876I31636708I33723657I33498040
481I30612148I24857975I16348478I06430190H98143761H95040908H98957112
474I08766001I21300507I33450841I43521518I51173074I56738510I60745435
467I63783241I66451935I69098511I71516446I73061913I72866180I69451021
460I59937599I39383847I01739711H45767405G83982995G41793832G39504389
453G74083088H23197503H66088839H96130693I16176226I29802948I38880729
446I44806739I48804710I51486152I53009443I53619886I53748674I53610635
439I53067611I52001308I50500964I48632635I46318526I43465306I40108315
432I36481294I32872121I29368789I25960093I22840104I20249205I18032577
425I15669253I12733376I09182964I05291783I01396511H97686062H94224771
418H91091263H88352957H85932591H83637515H81278519H78654119H75519603
411H71776304H67658439H63542115H59616958H55905738H52493899H49492500
404H46819004H44191342H41323595H38064677H34417259H30456822H26200561
397H21624938H16891767H12424535H08597333H05421192H02666343H00189053
390G97980134G96007030G94207602G92620985G91422809G90813374G90842132
383G91248125G91405080G90437206G87494450G82041793G73912674G63122392
376G49970980G35752018G23270937G15993177G16061663G22971853G34173820
369G46912480G59566229G71615998G82925408G93418444H03213280H12449676
362H20802278H27561799H32343947H35379500H37042964H37395770H36198780
355H33140814H27939152H20067493H08289236G90692471G65480972G31847378
348F90228455F41961901E89347594E37369346D95888077D77964952D92373924
341E36089047E95090916F53359365G01114617G35968505G59244790G72687341
334G77475241G74788225G66972600G58062446G52582987G53536808G61525042
327G75269879G92261834H09187557H22981431H32327344H37990203H41487249
320H43809897H45358684H46208442H46083507H44573380H41501302H36892117
313H30737525H22718695H11896334G97208230G79105856G60710861G46856149
306G41475180G45449314G56668241G71815881G87859293H02507491H14445430
299H23403256H29704723H34032019H37665799H42093126H47670955H52724794
292H54388021H50378310H39449336H20702247G93893576G59191128G15237639
285F62527808F13594599E92743780F15838088F73224463G39361725G95520811
278H37790141H69192403H92635070I10256383I24011597I35172770I44055055
271I50586823I55001698I57871817I59834010I61596142I63721989I66170164
264I68558096I70847538I73307158I76010243I78671762I80813204I82060120
257I82341831I81761154I80472909I78714277I76583686I73799663I69933564
250I64670473I57680354I48409686I35820331I17944761H91650653H53404731
243H02079618G43410097F91191585F59367795F49789979F50168103F46547249
236F37310913F33845649F47750880F79046766G17387916G51936137G78238250
229G98136495H15758875H33760803H52341451H70447561H86918312I00850463
222I11729095I19399507I23868933I25309388I24322422I22195566I20867357
215I22254565I27216022I35023880I43793801I51893450I58910015I64665729
208I67954591I68515819I67717885I66544909I65584507I65502265I66753272
201I69153419I71947699I74302544I75718037I76030225I75309909I74016861
194I73062743I73307810I74975306I77705964I80979230I84195040I86577160
187I87587904I87538689I87237233I86782262I85245630I81877491I77129793
180I72299497I68672951I67044708I67596270I70105520I74172510I78898388
173I82485444I82878689I79000257I70718334I57592834I38681141I14569270
166H89833081H72586453H69909754H82617284I04709150I28006485I47008839
159I60230576I68600611I73478343I75702442I75670541I74069278I72170115
152I71006864I70652873I70510683I69928880I68461564I65934941I62536917
145I58742388I54961081I51154396I46955177I42173503I36472459I28466199
138I16300508H99514900H79149292H55994206H30035945H01480085G71437223
131G41746929G14508843F91478633F73561852F60867130F53298943F51081603
124F54584105F63653881F77417634F94774194G14718748G35990800G56702276
117G74755317G88809971G98931938H06365763H12401647H17424474H21405961
110H24963607H29254377H34964493H41899409H49552092H57532321H65457939
103H72706526H78275401H81354951H82069516H80893220H77739670H72575424
96H66555432H61480543H58024233H55146524H51147308H44702406H35098560
89H22125447H06607153G91305938G80323896G76951666G81950716G93322505
82H07940403H23703349H39959511H56608918H73479911H90241742I06227222
75I20290593I31516872I40309799I48040633I55267696I60954450I64251731
68I66105948I67973150I70074508I71739811I72818685I73600609I74000258
61I74268687I75633126I78317296I80886670I83095827I86067163I89483865
54I91567790I92147874I93065821I95194574I97233139I98236531I99531654
47A002893448A008048206A012601476A014300399A013338395A011676591A011063716
40A012356113A015629082A020416805A025937415A031143167A034624855A034556311
33A030365928A026045569A024947660A024193191A020989359A017223409A017478378
26A023326534A031876766A039583941A044766569A047229567A048028628A049213819
19A051732792A053516032A052823466A052518215A055421658A060870283A066196048
12A069067473A069861553A071223679A073741822A073432420A067325146A058031946
5A049465111A042691597A033936440A016800872I96445345
##END=


$$ === CHEMSPECTRA PEAK TABLE EDIT ===
##TITLE=X8888
##JCAMP-DX=5.00
##DATA TYPE=INFRAREDPEAKTABLE
##DATA CLASS=PEAKTABLE
##$CSTHRESHOLD=0.93
##MAXX=3997.453
##MAXY=1.0793475059301154
##MINX=373.96442
##MINY=0.2967598185936197
##$CSSOLVENTNAME=- - -
##$CSSOLVENTVALUE=0
##$CSSOLVENTX=0
##NPOINTS=35
##PEAKTABLE= (XY..XY)
492.953098936669, 0.7810078975626862
549.6143746207972, 0.654480704724782
604.8591184128222, 0.8744512918527078
678.5187768021888, 0.9256749292106898
705.4328827521499, 0.6371547669797343
711.0990103205627, 0.6531823375433653
773.4264135731037, 0.595838317452246
806.0066470914776, 0.745346199472226
840.0034125019542, 0.7565119970002309
858.4183270992962, 0.4804602636249064
900.914283862392, 0.7197311625791639
1015.6533671227521, 0.7433651195636523
1046.8170687490224, 0.8997136480683956
1062.3989195621575, 0.9277202025131656
1107.7279401094602, 0.7895251627104072
1127.5593865989053, 0.8069933773828916
1182.8041303909304, 0.6836844780284728
1199.8025130961687, 0.7787930485542239
1246.5480655355746, 0.5101511548171687
1289.0440222986708, 0.4445391663223698
1315.9581282486315, 0.5767274585660225
1337.2061066301794, 0.6921464902151976
1420.7814882642688, 0.5845360843342922
1447.6955942142295, 0.8849968440835159
1521.3552526035965, 0.9272674460837821
1568.1008050430023, 0.860698474414714
1607.7636980218917, 0.5749509420751195
1682.839888303362, 0.2967598185936197
2095.0506689053946, 0.4463197650145355
2165.877263510555, 0.9238243832413354
2175.7929867552775, 0.9318048494778287
2546.924342486317, 0.8503424052806353
2671.5791489913995, 0.8516438132546695
2874.1432095621576, 0.8190974710323526
2969.0508463330725, 0.8205482487710827
##END=


$$ === CHEMSPECTRA PEAK TABLE AUTO ===
##TITLE=X8888
##JCAMP-DX=5.00
##DATA TYPE=INFRAREDPEAKTABLE
##DATA CLASS=PEAKTABLE
##$CSTHRESHOLD=0.93
##MAXX=3997.453
##MAXY=1.0793475059301154
##MINX=373.96442
##MINY=0.2967598185936197
##NPOINTS=143
##PEAKTABLE= (XY..XY)
3983.287681078968, 0.9722510714035614
3971.9554259421425, 0.9715285438949189
3949.290915668491, 0.9696533820810628
3937.9586605316654, 0.9715303914905655
3929.459469179046, 0.9711457628889038
3918.1272140422207, 0.9699969433962466
3901.128831336982, 0.9702417397672142
3892.6296399843627, 0.9703028340656981
3879.880852955434, 0.9710394879408377
3868.5485978186084, 0.9704460639423583
3851.5502151133696, 0.9706044937612232
3837.3848961923377, 0.9692362094592386
3826.052641055512, 0.9730573438487209
3817.553449702893, 0.9705760620989444
3800.555066997654, 0.9715911289357009
3779.3070886161063, 0.9748087067020478
3765.1417696950743, 0.9752525237037462
3758.0591102345584, 0.9755134719609213
3749.5599188819388, 0.97388459625511
3743.893791313526, 0.9732520128790415
3735.394599960907, 0.9707155967843114
3724.0623448240813, 0.9754148266379682
3711.3135577951525, 0.9752408410287707
3701.39783455043, 0.9783363488141925
3688.649047521501, 0.9732781787738625
3674.483728600469, 0.974104716468334
3648.9861545426115, 0.9748438140349953
3627.738176161063, 0.9749056240506175
3613.572857240031, 0.9748128200651521
3595.1579426426897, 0.9765236524198551
3585.2422193979673, 0.9746444958589372
3576.7430280453477, 0.9733324194776137
3565.410772908522, 0.971606984281802
3559.7446453401094, 0.9734719541629808
3546.9958583111807, 0.971229031350809
3537.0801350664583, 0.9721808577428871
3532.8305393901483, 0.9721585056554019
3520.0817523612195, 0.9736242430885894
3507.3329653322908, 0.9711906449879381
3501.666837763878, 0.9717022912668104
3486.084986950743, 0.96966357401374
3467.670072353401, 0.9703310867986923
3459.1708810007817, 0.9717409751750085
3443.5890301876466, 0.9707669163167085
3423.7575836982014, 0.9728896167436016
3416.6749242376854, 0.971984102879614
3399.676541532447, 0.9718117256235366
3391.177350179828, 0.9711772936466007
3378.428563150899, 0.9727858447950786
3368.512839906177, 0.9697783732333422
3358.597116661454, 0.9706679724432075
3335.932606387803, 0.9646917122227121
3324.6003512509774, 0.9632261537188092
3318.934223682564, 0.9632834332047366
3294.85318151681, 0.9569122931418809
3284.9374582720875, 0.9586174630883807
3270.7721393510556, 0.9562099122665078
3265.106011782643, 0.9563902760010466
3229.6927144800625, 0.9492429628164516
3214.1108636669273, 0.9454342861271043
3059.708887427678, 0.8698228124475791
2969.0508463330725, 0.8205482487710827
2956.3020593041438, 0.8233824494355394
2940.7202084910086, 0.825893890821978
2935.054080922596, 0.8258528828435215
2916.6391663252543, 0.8343956594873878
2906.7234430805315, 0.8324780582607983
2874.1432095621576, 0.8190974710323526
2838.7299122595778, 0.8285980943350693
2729.656956567631, 0.8864280109716097
2671.5791489913995, 0.8516438132546695
2664.496489530883, 0.8507607107861884
2600.7525543862394, 0.8795844443207129
2546.924342486317, 0.8503424052806353
2359.942132728694, 0.9614505308691085
2350.0264094839717, 0.9597832104976258
2335.8610905629394, 0.9628974937952821
2328.7784311024234, 0.9636653205695493
2311.780048397185, 0.9674470563389159
2299.0312613682563, 0.9688793561107386
2287.6990062314308, 0.9703400272315981
2256.53530460516, 0.9786235835926725
2243.7865175762313, 0.9774711865195442
2239.5369218999217, 0.9773370166970531
2226.7881348709925, 0.9764551064203221
2175.7929867552775, 0.9318048494778287
2165.877263510555, 0.9238243832413354
2095.0506689053946, 0.4463197650145355
2019.9744786239248, 0.9734625955582638
2014.308351055512, 0.9729439157501536
2005.8091597028927, 0.9846145059622982
2001.559564026583, 0.9849288605900436
1987.3942451055511, 0.9877730159550924
1974.6454580766222, 0.9890172027459999
1964.7297348318998, 0.9880840925581351
1936.3990969898355, 0.9767567661158472
1923.6503099609067, 0.9820085909188114
1915.1511186082876, 0.9831732657575697
1906.6519272556684, 0.9829863449684046
1896.736204010946, 0.9837527413136159
1889.6535445504296, 0.982957436831514
1879.7378213057073, 0.9822300812478495
1869.822098060985, 0.9826984547860281
1857.0733110320562, 0.9829473635148794
1835.8253326505082, 0.9793349642089728
1827.3261412978886, 0.9768543388683134
1820.2434818373727, 0.9765068431193097
1798.9955034558247, 0.9822534465978003
1772.0813975058636, 0.9846354266155066
1682.839888303362, 0.2967598185936197
1607.7636980218917, 0.5749509420751195
1568.1008050430023, 0.860698474414714
1521.3552526035965, 0.9272674460837821
1508.6064655746677, 0.9682570239753686
1488.7750190852225, 0.9641459125653365
1447.6955942142295, 0.8849968440835159
1420.7814882642688, 0.5845360843342922
1337.2061066301794, 0.6921464902151976
1315.9581282486315, 0.5767274585660225
1289.0440222986708, 0.4445391663223698
1246.5480655355746, 0.510151153811948
1199.8025130961687, 0.7787930485542239
1182.8041303909304, 0.6836844780284728
1127.5593865989053, 0.8069933773828916
1107.7279401094602, 0.7895251627104072
1062.3989195621575, 0.9277202025131656
1046.8170687490224, 0.8997136480683956
1015.6533671227521, 0.7433651195636523
917.9126665676308, 0.7949419733816417
900.914283862392, 0.7197311625791639
858.4183270992962, 0.4804602636249064
840.0034125019542, 0.7565119970002309
806.0066470914776, 0.745346199472226
773.4264135731037, 0.595838317452246
711.0990103205627, 0.6531823375433653
705.4328827521499, 0.6371547669797343
678.5187768021888, 0.9256749292106898
660.1038622048472, 0.9705428626748854
647.3550751759185, 0.97814281166238
624.6905649022669, 0.9720933583070556
604.8591184128222, 0.8744512918527078
549.6143746207972, 0.654480704724782
492.953098936669, 0.7810078975626862
##END=

##END=

