##TITLE=MSB-NOS-09
##JCAMP-DX=4.24
##DATA TYPE=INFRARED SPECTRUM
##DATE=1/2/2019
##SAMPLING PROCEDURE=Diamant-ATR
##ORIGIN=Angelika Moesle
##XUNITS=1/CM
##YUNITS=TRANSMITTANCE
##RESOLUTION=4
##FIRSTX=3997.453
##LASTX=373.96442
##DELTAX=-1.4165319
##MAXY=1.0018367
##MINY=0.6579392
##XFACTOR=1
##YFACTOR=9.330331e-010
##NPOINTS=2559
##FIRSTY=1.00002
##XYDATA=(X++(Y..Y))
3997+1071794807+1072293731+1072693125+1072965393+1073219902+1073529733
3989+1073741823+1073517467+1072733627+1071760630+1071131194+1071015438
3980+1071175592+1071311151+1071295372+1071123528+1070786994+1070322823
3972+1069958308+1069983797+1070412769+1070913098+1071135474+1071063159
3963+1071010775+1071245735+1071643533+1071874533+1071773342+1071298503
3955+1070500097+1069769215+1069629632+1070083837+1070567685+1070557016
3946+1069917040+1068883674+1068044447+1068009887+1068773732+1069683293
3938+1070054196+1069626693+1068805865+1068476166+1069140163+1070198507
3929+1070597135+1070084540+1069305747+1068969979+1069089184+1069086437
3921+1068782100+1068787722+1069654482+1070855860+1071177956+1070220546
3912+1068806056+1067941277+1067759594+1067574398+1066841984+1065722759
3904+1064808087+1064650808+1065535647+1067216783+1068675863+1068837934
3895+1067686513+1066321851+1066145535+1067424338+1068542285+1068208370
3887+1067172193+1066713771+1066703997+1066461051+1066574124+1067502019
3878+1067930097+1066924328+1065447425+1064584370+1064346407+1064733217
3870+1066030929+1067215122+1066938574+1065910127+1065815964+1066917493
3861+1067887360+1067713279+1066273811+1063968541+1062093393+1063097373
3853+1067692134+1071503374+1071773342+1069984436+1067511602+1065187742
3844+1063836176+1063796569+1064377901+1064865071+1065498339+1066510177
3836+1067183053+1067038551+1066573101+1066298150+1066131992+1065940663
3827+1065861129+1065643417+1064714052+1063567294+1063795164+1065438290
3819+1066372638+1066451916+1067475253+1069156069+1069205451+1067127348
3810+1064326859+1062482247+1062761223+1064396555+1064973735+1064062576
3802+1063782004+1065148326+1066307350+1066343252+1066452108+1067140252
3793+1067468992+1066913596+1065987106+1065187103+1064541760+1064114385
3785+1064081166+1064235954+1064261507+1064441209+1065263379+1066431857
3776+1067075858+1066729806+1065626871+1064664032+1064860407+1066038595
3768+1066908933+1067113868+1067227835+1067093617+1066270553+1065394530
3759+1065509774+1066344785+1066515990+1065341060+1063381204+1062245051
3751+1063591058+1066136272+1066878461+1066250558+1067143574+1070157686
3742+1071742295+1070212753+1067514349+1065697781+1065668012+1067156734
3734+1069060820+1070218694+1069967571+1068434068+1066587731+1065638498
3725+1065987936+1066960230+1067942427+1068851541+1069375954+1069105474
3717+1068204920+1067195510+1066594502+1066957995+1068355492+1069644580
3708+1069673711+1068431896+1066487307+1064721718+1064229821+1065325409
3700+1066850927+1067591519+1067438712+1066752356+1065740199+1064622380
3691+1064108316+1065338122+1068340479+1071023999+1071773342+1070952578
3683+1069510299+1068000049+1066462648+1064965175+1064622125+1067032098
3674+1070575606+1071287259+1069196188+1067424530+1067571907+1068072492
3666+1067631637+1066799182+1066333094+1066253560+1066147898+1065947690
3657+1066142277+1066771777+1066681127+1065161422+1063350796+1063397941
3649+1066094045+1068811997+1069068359+1067630104+1066133205+1065264721
3640+1064861940+1064651830+1064627491+1064832554+1065047008+1064713413
3632+1063628685+1063118391+1065433818+1069642728+1071558058+1070150275
3623+1067226749+1064537480+1063459205+1064624105+1066604787+1067341099
3615+1066913916+1066554256+1066615711+1066828057+1067303983+1067915149
3606+1067814150+1066770307+1065681747+1065353454+1065645845+1065884574
3598+1065823566+1065796991+1066046644+1066282883+1066013809+1065265551
3589+1064781129+1065307777+1066355325+1066565372+1065808490+1065073264
3581+1064937577+1065156759+1065376771+1065713943+1066391802+1067020408
3572+1066667584+1064945243+1062846506+1062231763+1063923121+1066212356
3564+1066994216+1066164763+1064768416+1063723998+1063386570+1063540144
3555+1063772294+1063957042+1064253011+1064603599+1064667801+1064380840
3547+1064077333+1063977293+1063966689+1063956531+1063998758+1064071520
3538+1064103845+1064107805+1064078355+1063932384+1063722529+1063722721
3530+1064121732+1064734814+1065175604+1065260824+1065073903+1064744524
3521+1064362825+1063985470+1063604410+1063200991+1062844270+1062636715
3513+1062599088+1062687502+1062820186+1062863690+1062762947+1062673256
3504+1062771955+1062932939+1062783262+1062224161+1061693232+1061678795
3496+1062099654+1062398880+1062261213+1061907559+1061672790+1061680264
3488+1061912861+1062329184+1062894354+1063521618+1063887921+1063550301
3479+1062534503+1061477628+1060966375+1061054533+1061438404+1061737631
3471+1061650303+1061186962+1060697174+1060484764+1060551521+1060749621
3462+1060933667+1060970400+1060799003+1060464066+1060077320+1059800708
3454+1059766850+1059909436+1060021614+1060025511+1060022445+1060066843
3445+1060072273+1059978174+1059853411+1059753179+1059584976+1059270290
3437+1058962951+1058892871+1059022873+1059086244+1058958032+1058763445
3428+1058645390+1058637213+1058744280+1058964548+1059178363+1059133709
3420+1058689661+1058073448+1057670285+1057516072+1057281559+1056829589
3411+1056422401+1056300577+1056457281+1056772350+1056949177+1056554702
3403+1055567076+1054558305+1054013194+1053901399+1054026545+1054255628
3394+1054374386+1054206119+1053878721+1053669761+1053692311+1053847865
3386+1053929380+1053729171+1053212041+1052587716+1052096714+1051755836
3377+1051445110+1051178592+1051010069+1050720937+1050050616+1049268820
3369+1049001534+1049428654+1050113285+1050579245+1050645108+1050274141
3360+1049504930+1048538130+1047666706+1047084032+1046801288+1046678633
3352+1046489157+1046021855+1045277494+1044524318+1044017536+1043731150
3343+1043471340+1043101587+1042573405+1041904553+1041158148+1040387340
3335+1039693510+1039254253+1039089052+1038957837+1038643982+1038080089
3326+1037225914+1036194209+1035361562+1034969323+1034790387+1034401725
3318+1033585177+1032401942+1031068519+1029747362+1028432529+1027099170
3309+1025768685+1024322893+1022653575+1021077525+1020112897+1019736373
3301+1019331676+1018456994+1017255489+1016039099+1014903265+1013896283
3292+1013177794+1012742562+1012268552+1011527705+1010699211+1010040644
3284+1009462059+1008636631+1007445475+1006208898+1005371141+1004877839
3275+1004095084+1002594608+1000694354+998947099+997532609+996389429+995401228
3265+994254726+992633384+990645227+988614078+986524731+984173338+981762470
3255+979812707+978457372+977232422+975642063+973651543+971570629+969688134
3245+968054974+966458290+964623772+962539791+960481683+958629916+956846759
3235+954966309+953134729+951650224+950556808+949602720+948582386+947525895
3225+946535266+945635926+944854066+944280016+943992097+943992864+944231018
3216+944628752+945071075+945400518+945507522+945515379+945793397+946588800
3206+947666692+948519973+948956547+949318762+950097108+951474163+953283192
3196+955275118+957303904+959291294+961103070+962545860+963573732+964466429
3186+965623983+967138960+968742351+970205584+971561302+972926283+974353485
3176+975838566+977272796+978492124+979544911+980677103+981914702+983011440
3166+983931989+984957178+986141818+987105680+987612653+988040475+988956616
3156+990352453+991652657+992567393+993527549+995022531+996908028+998702748
3146+1000186487+1001350302+1002134078+1002588348+1003058141+1003922601
3138+1005228043+1006682716+1007948806+1008879705+1009534055+1010085171
3129+1010739074+1011594015+1012514245+1013254901+1013729677+1014042574
3121+1014321805+1014631061+1014963571+1015283048+1015635361+1016129940
3112+1016689105+1016969934+1016707759+1016016421+1015257303+1014742025
3104+1014610363+1014824434+1015177003+1015368523+1015140462+1014385113
3095+1013190571+1011757747+1010185658+1008411956+1006442517+1004540921
3087+1003129881+1002573527+1002952798+1003873220+1004670603+1005033840
3078+1005158156+1005135414+1004703886+1003787361+1002639198+1001239465
3070+999221731+996560443+993649885+990635836+987367088+984028324+981182926
3060+979218023+978260933+978442551+979727615+981660066+983704056+985697323
3050+987660948+989319726+990132888+989880424+989020052+988256015+987764438
3040+987065498+985625966+983342863+980524935+977707837+975393240+973671346
3030+972100408+970070408+967214150+963572710+959628658+956192026+954111687
3020+954000595+955946652+959165892+962124426+963495156+963109688+961800796
3010+960492607+959693882+959610387+960314374+961781887+963951598+966756686
3000+970092511+973819043+977715375+981399105+984517601+987105872+989486204
2990+991730658+993509151+994499205+994677757+994192887+993198617+991842708
2980+990235356+988407800+986405718+984413856+982687618+981366780+980426875
2970+979794308+979401558+979159443+978991367+978874143+978771547+978610754
2961+978423578+978362698+978447726+978463313+978260677+977972503+977730579
2951+977363573+976581521+975309490+973639405+971548972+968832362+965282594
2941+960880758+955793079+950211841+944249225+937983038+931398395+924271900
2931+916448765+908383514+901105808+895517991+891911431+890106107+889751367
2921+890520769+892299135+895169064+899084177+903664948+908397951+912949655
2911+917312905+921731414+926362077+930928730+934888753+938005652+940526015
2901+942694832+944363894+945239087+945274158+944595213+943244670+941279767
2891+939010143+936905784+935304182+934324285+934038538+934631625+936246515
2881+938658533+941366583+944114752+947018794+950119339+953258406+956406097
2871+959559729+962319588+964125678+964873489+964776451+963715105+961265332
2861+957344086+952343223+946556858+939941872+932641041+925375409+919072873
2851+914373025+911638975+911137879+912992712+917043768+922765164+929310582
2842+935834983+941886460+947422341+952515578+957189809+961418586+965126848
2832+968280416+971045832+973736507+976528371+979290338+981740750+983735422
2822+985366666+986785756+988017861+989012961+989788369+990408350+990899672
2812+991300919+991716412+992187738+992579722+992723075+992642583+992556022
2802+992668200+993028178+993573289+994248848+995064247+996037180+997111559
2792+998188365+999238340+1000295343+1001299068+1002069812+1002533983+1002868601
2782+1003317888+1003946813+1004634510+1005191055+1005448247+1005400463
2774+1005303872+1005465495+1005883927+1006289518+1006584336+1006995741
2765+1007681266+1008422177+1008929661+1009286701+1009848038+1010722847
2757+1011563288+1011916176+1011687731+1011170090+1010713584+1010511204
2748+1010640439+1011105952+1011803742+1012567779+1013263717+1013783402
2740+1014054009+1014163760+1014355983+1014737554+1015131263+1015394268
2731+1015703012+1016241479+1016816679+1017161582+1017403889+1017818679
2723+1018339131+1018727218+1019005363+1019346177+1019738864+1020020650
2714+1020089835+1019962709+1019748319+1019608799+1019638888+1019778216
2706+1019902531+1019988390+1020123821+1020357632+1020605496+1020751213
2697+1020761114+1020666632+1020550110+1020580838+1020915711+1021501962
2689+1022073712+1022398938+1022464610+1022392231+1022256097+1022084699
2680+1021990536+1022130056+1022507858+1022962831+1023367591+1023671353
2672+1023734533+1023349065+1022549510+1021739094+1021353115+1021481328
2663+1021898290+1022343935+1022671142+1022849758+1022933700+1022974649
2655+1022962831+1022903739+1022873459+1022941302+1023146557+1023569269
2646+1024231860+1024883527+1025115229+1024822072+1024356112+1024072345
2638+1023948860+1023845498+1023845625+1024031204+1024189506+1024090615
2629+1023864598+1023852716+1024197044+1024709255+1025143338+1025567008
2621+1026282046+1027256513+1027981773+1028149401+1028080407+1028198526
2612+1028482549+1028697450+1028848916+1029154083+1029699514+1030323903
2604+1030875913+1031439103+1032140598+1032871352+1033389441+1033584091
2595+1033497849+1033233567+1032932743+1032761729+1032872630+1033311120
2587+1033833553+1033983358+1033618971+1033198240+1033248068+1033729616
2578+1034187016+1034333051+1034259331+1034187910+1034196598+1034158843
2570+1033964257+1033784299+1033933082+1034461392+1035124749+1035703271
2561+1036091677+1036235541+1036285434+1036573161+1037167653+1037709442
2553+1037856883+1037616493+1037196273+1036813232+1036596031+1036483023
2544+1036310092+1036092572+1036026389+1036162523+1036286009+1036229536
2536+1036150002+1036321080+1036738298+1037105879+1037167845+1036902732
2527+1036506404+1036324785+1036644774+1037384152+1038113564+1038455272
2519+1038353827+1038003430+1037682356+1037624159+1037874132+1038210793
2510+1038282917+1037923130+1037339434+1036920491+1036844599+1036974536
2502+1037118591+1037283473+1037655142+1038378933+1039315964+1040016181
2493+1040077573+1039567661+1038915036+1038348908+1037742214+1037105304
2485+1036842235+1037262008+1038152852+1039076915+1039777963+1040127912
2476+1040035346+1039636718+1039305934+1039290474+1039480461+1039582738
2468+1039443026+1039223589+1039262685+1039690635+1040277589+1040785393
2459+1041272562+1041853255+1042383034+1042629047+1042615312+1042621572
2451+1042903934+1043440931+1043864282+1043738050+1043042878+1042259869
2442+1041841182+1041793270+1041915605+1042111661+1042243387+1042080294
2434+1041696615+1041511036+1041673234+1041837668+1041718271+1041413743
2425+1041084875+1040752813+1040442471+1040208788+1040088624+1040165922
2417+1040504564+1041003744+1041501837+1041897526+1042055444+1041904681
2408+1041703642+1041805791+1042102462+1042137980+1041800169+1041456097
2400+1041383079+1041463379+1041485930+1041417320+1041315363+1041209829
2391+1041150482+1041219923+1041412018+1041547641+1041397005+1040920313
2383+1040321030+1039801536+1039402588+1039192414+1039410893+1040165539
2374+1041127740+1041811859+1042109489+1042348602+1042866051+1043636476
2366+1044318615+1044631832+1044614456+1044527703+1044658854+1045200260
2357+1046025177+1046642028+1046664323+1046155689+1045309563+1044160314
2349+1042825039+1041737692+1041425050+1041892415+1042428710+1042415678
2340+1041903148+1041292813+1040927148+1040890160+1040993011+1041030894
2332+1040965606+1040734670+1040153465+1039241540+1038412471+1038171697
2323+1038701348+1039667893+1040432377+1040616359+1040411999+1040187898
2315+1039972550+1039557312+1038985818+1038636635+1038807585+1039394986
2306+1039962137+1040063710+1039634227+1039125018+1039140414+1039846573
2298+1040792675+1041356568+1041334528+1041067243+1041028019+1041351713
2289+1041800872+1042113066+1042250542+1042323112+1042416573+1042586948
2281+1042945074+1043576746+1044307564+1044704083+1044524062+1044083591
2272+1043918199+1044114766+1044278433+1044136422+1043821353+1043600830
2264+1043687774+1044183440+1044837790+1045081311+1044649655+1043932956
2255+1043490824+1043592717+1044287057+1045466204+1046873539+1048259921
2247+1049382020+1049964310+1050017524+1049896403+1049691851+1049100680
2238+1048090759+1046998877+1046097045+1045735086+1046279622+1047243356
2230+1047462154+1046730569+1046154092+1046646372+1048125448+1049929622
2221+1051026615+1050518492+1048846363+1047659935+1047892659+1048836142
2213+1049428398+1049512724+1049465706+1049388152+1049177531+1048924300
2204+1048831032+1048959180+1049189861+1049207620+1048626415+1047612981
2196+1047190141+1048185817+1050174356+1052126355+1053504368+1054048585
2187+1053423046+1051862839+1050389513+1049815847+1050050424+1050459337
2179+1050540276+1050465470+1051009558+1052463464+1053798484+1053592846
2170+1051655668+1049334172+1048362324+1049344073+1051203953+1052674341
2162+1054283162+1057664919+1062557820+1066191147+1066618330+1064530964
2153+1061721596+1059621326+1058753863+1058594476+1058314094+1057893747
2145+1057967212+1058663533+1059384449+1059615001+1059267927+1058549758
2136+1057973664+1057916808+1057950410+1057533640+1057216462+1057918533
2128+1059187946+1059394095+1057718069+1055106546+1053215874+1052898313
2119+1053627853+1054126905+1053635519+1052535460+1051630242+1051183639
2111+1050971420+1050893803+1051064689+1051517362+1052190493+1053016816
2102+1053844352+1054499341+1055009316+1055510092+1055974775+1056233053
2094+1056071685+1055278837+1054001248+1052957469+1052749020+1053141834
2085+1053512162+1053677490+1053817904+1053920244+1053744759+1053230567
2077+1052719059+1052654601+1053048502+1053532477+1054012810+1054789688
2068+1055886361+1056741175+1056794645+1056131990+1055308926+1054660708
2060+1054145367+1053867541+1054190788+1055110826+1056060058+1056550422
2051+1056621204+1056750886+1057506873+1058750796+1059363112+1058596967
2043+1057192506+1056408091+1056616540+1057418204+1058441477+1059638191
2034+1061028214+1062248117+1062806707+1063008960+1063646892+1064553131
2026+1064695718+1063795547+1062811562+1062938050+1064499151+1066526787
2017+1067750076+1068201024+1068880160+1070005901+1070966568+1071516151
2009+1071773342+1071559974+1070565193+1069058457+1067573249+1066239442
2000+1064721910+1062911730+1061482355+1061372094+1062737267+1064627363
1992+1065594675+1064844692+1063024483+1061548155+1061114200+1061308531
1983+1061655605+1062336020+1063586395+1065031804+1066030993+1066384137
1975+1066340505+1066106886+1065831360+1065934594+1066916535+1068634404
1966+1070018613+1069931030+1068371974+1066589008+1065852505+1066127967
1958+1066311949+1065735344+1064753531+1063773763+1062529840+1060872148
1949+1059602800+1059682078+1061034538+1062809390+1064242215+1064753020
1941+1064227266+1063647914+1064293768+1066118065+1067776779+1068305025
1932+1067938913+1067330175+1066798671+1066394549+1066181309+1066281030
1924+1066671736+1067092020+1067392013+1067682935+1067811659+1067239078
1915+1065948457+1064741138+1064214553+1064085510+1063798294+1063372963
1907+1063086769+1062754962+1061987092+1060744447+1059157090+1057226875
1898+1055124688+1053279693+1051818888+1050467258+1049321523+1049065289
1890+1050028512+1051533652+1052767162+1053737348+1054785855+1055862980
1881+1056660108+1057012868+1056990318+1056878587+1057010058+1057381791
1873+1057675843+1057780738+1057941275+1058261455+1058463197+1058410749
1864+1058332620+1058498204+1059096657+1060241179+1061755262+1063119732
1856+1063931681+1064222411+1064172646+1063830107+1063237212+1062567339
1847+1062055319+1061859263+1061801769+1061312939+1060096932+1058443712
1839+1056764556+1055373958+1054527833+1054351197+1054898799+1056291633
1830+1058307195+1060000916+1060710972+1060764123+1060492046+1059681695
1822+1058381555+1057289097+1056991021+1057326468+1057756910+1058187351
1813+1059019934+1060471284+1062146352+1063484438+1064411120+1065199944
1805+1066026969+1066897945+1067748159+1068477444+1068999365+1069304213
1796+1069472097+1069690895+1070200551+1070934819+1071347309+1071195971
1788+1070943890+1071022977+1071212005+1071036328+1070590555+1070318159
1779+1070254404+1070089331+1069732930+1069480721+1069783461+1070648241
1771+1071334021+1071430420+1071300738+1071170801+1070981708+1070949192
1762+1071335043+1071773342+1071842080+1071576520+1071253465+1070802134
1754+1070171804+1069607081+1069342224+1069205323+1068808101+1068101175
1745+1067314013+1066625869+1066175560+1066047411+1065944560+1065399449
1737+1064636882+1064590758+1065730872+1066937488+1067283285+1067306794
1728+1067567435+1068022663+1068477699+1068846494+1068975026+1068713235
1720+1068189333+1067704847+1067222213+1066327537+1065011873+1063569977
1711+1062083875+1060478248+1058713617+1056756827+1054489567+1051781708
1703+1048549820+1044681916+1040215495+1035404428+1030017074+1023626380
1694+1016729671+1010038600+1003320954+996181938+988992327+982321315+976109684
1684+970234459+965171310+961022961+957284419+953598517+949785233+945648127
1674+941034968+935957574+930377231+924359803+918832291+915055739+913425453
1664+914151735+917398892+922054661+926353453+929736040+932455270+935173478
1655+940052644+949232009+958167214+962900856+966435612+972134521+980020964
1645+986982642+991903268+995853198+999406991+1002598761+1006045039+1010824996
1635+1016174211+1019861199+1021765094+1023011190+1024206115+1025278258
1626+1026014634+1026497650+1026797132+1026477208+1024931822+1021705364
1618+1016071041+1007922742+999612118+993928157+991978075+993822112+998252950
1608+1002848797+1005851347+1007484379+1008917906+1010307738+1010095839
1599+1006312771+998335870+987399413+976016607+967041028+962714063+963867529
1589+969392868+976706156+983694537+990371681+998129273+1007326589+1016274251
1579+1023140744+1027807437+1030873485+1031654196+1029166413+1023363439
1571+1013734851+1000275603+986003768+974190010+965198396+958387098+953522816
1561+950995682+952073957+955474368+955168945+949166338+938608066+924327798
1551+906829632+887059287+867101383+848453329+830816538+814138753+799932781
1541+790428573+787819221+790502996+794564464+799991936+809012488+821516946
1531+834121508+845357064+856819659+869562016+882105314+892729002+902339702
1521+912363468+921412065+927854951+932538445+936356010+938931695+940027027
1511+940128090+940149554+942068462+948699291+957675318+961681719+958729701
1502+949216741+932679051+909064759+881331439+857681500+845884990+846234748
1492+854412688+864779631+871991921+875371825+878578479+884400363+893326432
1482+904188978+914866455+923937027+931674688+939164931+947491334+957348238
1472+967424196+974872340+978914580+980526084+980180160+977668293+973445713
1462+968775698+964107600+957179396+941643706+915249815+889497625+874236630
1452+870552325+875081159+881222903+882596316+879003108+876294227+879321179
1442+887354169+895432963+898945169+895988998+887327275+876452784+866816083
1432+859877275+856389026+856170547+857647770+859956042+863984228+870498599
1422+879101104+889789057+902811284+915265466+922526242+923625408+920022553
1412+913559032+907234009+904853741+908892275+919463899+934355524+949421868
1402+961466946+970455109+977505073+982646478+985248739+985192075+982867129
1392+978713094+972538643+962978154+948370679+929805353+912663333+902497173
1383+901355973+908261178+920397800+934377819+947880827+960152624+970760980
1373+978672273+983139780+983962589+980258416+970064211+950739512+919700584
1363+878341155+836376310+805870036+791438877+790130241+795281292+799366780
1353+797280947+788675377+777332753+768624204+766869794+773641549+787483837
1343+805345879+824658185+843778651+861148093+875609980+887346695+897311497
1333+906197257+914272154+921562956+927866834+932834158+936292255+938555810
1323+940342033+942244842+944301034+946223199+948082249+950555211+954303846
1313+959124879+963756628+966579092+966548301+963763975+959580810+956022865
1303+954622045+955649726+958282139+961201513+962999810+962072937+956023248
1293+941822641+918565772+891287553+870405842+864734402+874619862+892909981
1283+911836691+927601912+939761914+948929397+955729899+960764045+964561230
1273+967413144+969393060+970579489+971238630+971789618+972629292+973936779
1264+975595492+977327032+978861813+979933062+980265954+979720077+978360718
1254+976374541+974021104+971618413+969439311+967643633+966339724+965576326
1244+965214175+964930408+964408551+963404124+961571522+958336886+953063308
1234+945368257+935350049+923680858+911576370+900529331+891817715+886110566
1224+883499809+883958103+887742896+895139295+905662368+917684511+929062525
1214+938096046+943932558+946400218+945663651+941956412+935646976+927648291
1204+919560170+912969714+908344609+904590289+899874214+893249390+885757550
1194+879845273+877352954+877754457+878230766+875621798+868720681+858976657
1184+849093114+841193575+836468174+835956665+840693501+850783449+864754206
1174+880156190+894857125+907802565+918782271+927848563+935100843+940665790
1164+944485079+946198924+945508735+942659888+938446123+933718997+928957950
1154+924395002+920570666+918617709+919808674+924741757+932905771+942912799
1145+953155171+962473545+970509026+977527688+983865295+989566440+994565962
1135+998992137+1002985826+1006178937+1007386064+1004954370+998038879+988230526
1125+979665329+976548494+980074434+987880449+996388407+1003382090+1008594532
1115+1012614285+1015813402+1018268029+1020191409+1021972010+1023750696
1106+1025231496+1026013356+1025807781+1024126453+1020325307+1014774925
1098+1009778087+1008282849+1011387483+1017642171+1024699992+1030924911
1089+1035547142+1038252125+1038945955+1037414304+1033097944+1025684105
1081+1016056795+1006173826+997621790+990607472+984833118+980968089+980208907
1071+982120149+983740916+981442354+973469477+960696457+945692079+931561552
1061+921156406+916413246+917886636+924769418+935350241+947620249+959871476
1051+971099302+980982909+989560180+996984560+1003472356+1009276288+1014631317
1041+1019704623+1024566413+1029215794+1033584985+1037366839+1039837757
1033+1039841335+1035653315+1025242292+1008433548+989863431+977963240+978390615
1023+988379053+998694891+1000440485+989224860+965518384+935096244+908938462
1013+898225339+906477830+927267806+950295592+968690926+980702656+987358080
1003+990895583+994421204+1000530751+1009421174+1019027211+1027092398+1032527791
993+1035063103+1034778058+1032366423+1028969910+1025152856+1020486802
984+1014380833+1006762952+998063219+989678618+984539194+985602010+992875371
975+1002836085+1011519528+1017665552+1022560689+1027582761+1032573212
966+1036342672+1038086350+1037924343+1036282112+1033384011+1029702580
958+1026419777+1024624994+1024001627+1023148474+1021692843+1021410035
949+1024517799+1031155655+1038774175+1043264999+1040402991+1027540599
941+1005504911+979289124+956546127+944514849+946736305+961303214+982248808
931+1003326895+1020966944+1034479407+1044686707+1052715417+1059351741
922+1064806299+1068874922+1071285790+1071773342+1069905413+1064263040
914+1053463292+1036928668+1015406469+991030440+967253566+947788900+934226353
904+924897950+917338331+911901405+911861542+919817298+934870099+953449351
894+972021321+988681474+1002999688+1015236925+1025655741+1034092661+1040084153
884+1043384779+1044023094+1041811987+1036377808+1027898789+1017360448
875+1005897598+994221954+982803182+972454892+964724515+961555998+964181320
866+972167868+983633912+996323949+1008490148+1019175547+1028107749+1035348850
856+1040930854+1044735386+1046669881+1047064867+1046909058+1047360644
847+1048860290+1050946634+1052909812+1054271024+1054739284+1054186188
839+1052692164+1050403951+1047500036+1044406582+1041681794+1039570217
830+1038063927+1037409449+1038002855+1039663166+1041446387+1042257249
822+1041358612+1038270140+1032291681+1022008296+1005321568+980625614+948912532
812+915318489+888221313+875469565+879950296+897883119+921223483+942091907
802+956078379+963007029+965750406+968304052+973693450+982228749+991339185
792+997392387+997788715+991577659+978878359+960235352+936341445+908083521
782+876991187+846422116+822754609+813854411+823751178+848236447+877137286
772+901422219+917607021+926455410+930023385+930694472+931197101+933747936
762+938910231+945553964+951900260+956723594+959940278+962167611+963653777
752+963782117+961612598+956633711+949212141+940889252+933900999+929135671
742+923869567+912054915+887896214+850150692+803816591+758284602+723407156
732+705510682+705161691+717717702+736121341+753775827+765977992+770586168
722+768611108+763852616+760672920+761109111+764333333+769079304+775591184
713+784640483+795710839+807289317+818256311+827907449+834994784+837497196
703+833118741+820072878+798977351+775260655+758451591+756585259+770206067
693+792461830+815142286+833937909+848497472+859203952+865354895+866510468
683+864408473+862646525+864540391+871289850+881631368+892977186+903039856
673+910792338+916751441+922532950+928925433+933001148+931380316+924713329
663+914737987+903345854+892855873+884411542+877531187+872141151+870052187
653+873729082+883708960+897722391+912205358+924064601+931088181+931471094
643+924279183+911419601+898556570+892469063+896517691+908555422+922886732
633+934466872+942286366+949034739+957374750+967066900+975740123+981230008
623+982688257+980535092+975779155+968785855+959500062+949814300+943573665
613+941970530+940314436+931236325+911282956+884468653+860107508+847331230
603+850059595+865106519+884382220+899851472+907984694+910567854+912099441
594+916619651+925569166+937302240+949001073+959278964+968358864+976530096
584+983720857+990184952+996431719+1002376449+1006998360+1008684735+1005736933
574+997094566+983464879+968332991+957400686+955492894+963109369+976288683
564+989881190+1000873801+1009044586+1015283048+1019884069+1021689585+1017865505
554+1006006582+988507841+973368606+967992113+972575120+981171427+988454052
544+993719581+999108914+1006120229+1014247829+1021928506+1028047061+1032547467
534+1036157349+1039749280+1043601980+1047284560+1050400246+1052815777
526+1053809919+1052008045+1046849902+1039338770+1030711671+1019654539
517+1001167533+971631509+936248687+908313051+899456102+910954600+934711478
507+960528573+980661069+989885854+984495179+963516493+931807692+899842018
497+879047378+876206069+889713229+911411808+933159002+951631506+967556561
487+982150174+995491877+1006997274+1015732015+1020648298+1021245217+1017208471
477+1007586144+992039083+973011247+955094266+940985842+929149598+918087227
467+910507229+910320117+917677548+929398548+942627180+956402711+970550295
458+983613789+993066125+998784199+1003488966+1009402456+1016574117+1024208032
448+1031868522+1039019292+1045222044+1050907091+1056487242+1061250781
439+1064552301+1067106458+1069801604+1071773342+1071156939+1067620330
431+1062239429+1054496019+1041092349+1018475712+986953320+952898619+925038684
421+909684740+910423798+924082169+940587151+955410294+969990938+984253574
411+995277487+1001743691+1006255213+1012040300+1019585546+1027286921+1033884020
401+1039338834+1044011915+1047544435+1049076533+1049342029+1050638975
392+1054249432+1059253872+1063505456+1064793203+1060054450+1045344763
384+1022190489+1002318763+997200356+1007576754+1026380170+1046550931+1063328565
374+1071773342
##END=
