##TITLE=VLL-191,X19723
##JCAMP-DX=4.24
##DATA TYPE=INFRARED SPECTRUM
##DATE=11/10/2021
##SAMPLING PROCEDURE=Diamant-ATR
##ORIGIN=Angelika Moesle
##XUNITS=1/CM
##YUNITS=TRANSMITTANCE
##RESOLUTION=4
##FIRSTX=3997.453
##LASTX=373.96442
##DELTAX=-1.4165319
##MAXY=0.89712644
##MINY=0.40728283
##XFACTOR=1
##YFACTOR=8.355141e-010
##NPOINTS=2559
##FIRSTY=0.74008662
##XYDATA=(X++(Y..Y))
3997+885785904+885903256+886238050+886383938+886314097+886245540+886197101
3988+885989434+885601422+885197857+884880970+884685430+884682862+884857143
3978+885014659+884970857+884733584+884536189+884742359+885551556+886686771
3968+887521151+887663686+887285875+886761035+886190395+885544850+885093560
3958+885171961+885568249+885723696+885602420+885752589+886405696+887077994
3948+887280525+887134280+886982970+886944947+887029769+887211612+887346799
3938+887380613+887499464+887800015+887979789+887662259+887000448+886577480
3928+886665869+887018069+887278813+887387961+887582574+888024732+888626547
3918+889175856+889430608+889271879+888919393+888792553+889071702+889485753
3908+889587910+889161945+888304095+887295007+886451852+885917310+885611266
3898+885372424+885098982+884809774+884568292+884414200+884475837+885077223
3888+886405696+888106915+889245626+889098311+888152928+887288016+886792924
3878+886563712+886463695+886379372+886238050+886055850+885842690+885614120
3869+885636164+886198029+887099467+887709200+887555822+886951938+886615432
3859+886881527+887628017+888515258+889016628+888568620+887582574+886969987
3849+886917481+887192635+887453094+887499607+887524575+887876918+888472384
3839+888732129+888341049+887911589+888229403+889193120+889982129+890062456
3829+889826610+889962653+890581375+891195888+891236195+890388903+889101949
3819+888485938+888614205+888566765+888044850+887816708+888362593+889422332
3809+890653427+891802126+892426769+892239933+891570061+890904398+890506469
3799+890402029+890462525+890463452+890206489+889759551+889379172+889248123
3789+889396722+889722598+890049615+890279326+890500620+890813084+891088095
3779+891080462+890808304+890548203+890379771+890153841+889867772+889740932
3769+889848154+889931977+889840878+889746996+889834814+890110753+890540355
3759+891122623+891755114+892216034+892385464+892300214+891921476+891028813
3750+889828322+889130984+889190909+889546391+889632354+889450796+889506869
3740+890122167+891298688+892631940+893212282+892452594+891126048+890446188
3730+890778056+891664014+892298930+892025488+890910961+889766328+889443449
3720+890199641+891506426+892476493+892574798+891937599+891167923+890817864
3710+890835556+890920734+891192321+891808261+892525502+892812142+892370483
3700+891625277+891208515+891187613+891299044+891451353+891738849+892181506
3690+892503815+892095686+890803453+889537973+889206247+889916354+891166711
3680+892378972+893270423+893699241+893440210+892716691+892326253+892487122
3670+892704135+892578721+892380328+892377260+892466434+892653984+893174544
3660+894008567+894729589+894971142+894728519+894307976+894106729+894381027
3650+894953593+895008952+894154241+893280197+892972013+893027657+893186029
3640+893450768+893879015+894317393+894566223+894671162+894833315+895099481
3631+895308218+895273904+895037630+894795720+894537830+894163871+893744042
3621+893564482+893929808+894693919+895203350+894998322+894179923+893287830
3611+892961526+893528456+894734654+895811728+896296476+896424601+896473896
3601+896344915+895874649+895212624+894635279+894288144+894213452+894399290
3591+894740432+894948884+894558589+893443848+892339807+892016642+892575012
3581+893649161+894614234+894946459+894639131+894040526+893395409+892812784
3571+892440752+892367558+892509380+892804509+893368157+894149247+894757696
3561+894801784+894319105+893819447+893672418+893651301+893305950+892650345
3551+892259123+892484911+892959172+893206289+893392769+893943933+894640986
3541+894957160+894919065+894951881+895183019+895294379+894984625+894334657
3531+893691323+893299886+893075739+892788529+892408792+892084628+891903855
3521+891894581+892113806+892552183+893037216+893351535+893401687+893215207
3512+892861366+892459157+892167524+892063226+892105816+892247566+892461083
3502+892710127+892995198+893364234+893819019+894262533+894573856+894704834
3492+894676869+894526273+894307619+894131127+894080119+894058718+893834357
3482+893284477+892572657+892013931+891718446+891499435+891262947+891280425
3472+891734854+892221955+892243143+891976550+892025560+892590135+893360524
3462+893988306+894263746+894045734+893416168+892802511+892651344+892970229
3452+893407394+893701096+893786203+893621910+893264573+892959742+892866003
3442+892925286+893089936+893297389+893307662+892999264+892670320+892657693
3432+892923359+893286617+893713652+894180065+894584271+894859140+894898662
3422+894501804+893703165+892988206+892828621+893136163+893453550+893553353
3412+893644453+894005642+894567079+894913215+894682505+893939296+893141300
3403+892700639+892613963+892599838+892542410+892593132+892806934+892969587
3393+892971085+893077951+893530881+894102877+894405853+894399432+894248979
3383+893913543+893255157+892395238+891649176+891247252+891289342+891784862
3373+892550542+893170763+893276059+892950682+892778256+893287188+894289214
3363+894970429+894788372+894082688+893610852+893676627+893967903+894121068
3353+894113435+894080476+894049158+893978462+893884223+893780995+893574969
3343+893160347+892643283+892320974+892359283+892633510+892975437+893361095
3333+893717433+893820731+893604218+893358741+893392056+893620198+893694033
3323+893458829+893099852+892862793+892844245+893084942+893621196+894317963
3313+894859069+895024004+894817193+894313754+893613278+892975151+892757140
3303+893126818+893897421+894621796+894870126+894552097+893980459+893515401
3293+893247381+893122181+893109982+892994770+892342946+891047432+889592404
3284+888411104+887335171+886060345+884751062+883731629+882912445+881938241
3274+880673260+879270310+877974938+877018569+876480174+876143027+875674830
3264+874954664+874067636+873112694+872229019+871622852+871346985+871241546
3254+871240048+871470258+871917767+872275104+872330035+872281881+872431764
3244+872620099+872294080+871300187+870286818+869952310+870140074+870136792
3234+869689283+869207460+869044522+869030611+868779498+868173189+867356716
3224+866329222+864851365+862908379+860921948+859170222+857330035+854981345
3214+852201697+849238066+845945277+842008797+837536919+833081163+829149464
3204+825869230+823057194+820537148+818392059+816866762+816069265+815942638
3194+816460487+817590353+819082548+820585088+822021995+823664074+825740678
3184+828087584+830253647+831935176+833223199+834420836+835731403+837169452
3174+838670066+840197503+841762321+843291042+844511650+845188514+845483785
3165+845842335+846533109+847519012+848631043+849624936+850220545+850323558
3155+850153201+850077938+850338611+850899548+851545950+852120727+852555894
3145+852719617+852495613+852024206+851622568+851497297+851688485+852145482
3135+852696075+853074171+853136379+853034436+853160277+853877875+855151631
3125+856423318+857092762+857152687+857092120+857202909+857353720+857404513
3115+857399377+857328252+857133639+856984898+857206762+857931565+859016487
3105+860196646+861223854+862065439+863030583+864447231+866155298+867534992
3095+868107201+867937129+867382754+866672932+865902972+865249080+864967933
3085+865207988+865872296+866675215+867439397+868320789+869542396+871003274
3075+872429838+873724496+874818050+875370284+874775817+872076425+865856102
3065+855267343+841981546+830405456+824774036+825920523+831116063+836558363
3055+839644840+839561017+836889875+833093505+829925845+828735270+829899021
3046+832697503+835693379+837418710+837139062+835370500+833665358+833611354
3036+835797035+839567723+843668924+847211328+850155698+852866005+855375635
3026+857371483+858719788+859608457+860242089+860718704+861186544+861869828
3016+862853948+863967049+864971643+865785049+866441794+866989463+867483699
3006+867898963+868006684+867512377+866298689+864489535+862434975+860656639
2996+859648763+859679225+860725338+862468504+864424616+866194605+867525860
2986+868254444+868468532+868583102+868937585+869481188+870037346+870580948
2976+871057064+871232843+870964252+870410519+869806992+869195404+868527886
2966+867883625+867409364+867181650+867252561+867661475+868281624+868817023
2956+869066495+869136050+869334372+869856145+870604490+871344203+871966777
2946+872525503+873067893+873513975+873714937+873639888+873432292+873201368
2936+872890330+872436187+871869043+871215935+870546277+870054895+869879045
2927+869965365+870242873+870681322+871147521+871484526+871686558+871784578
2917+871730788+871600452+871706319+872323971+873391415+874552812+875435202
2907+875884566+876032166+876160505+876462910+876921191+877427127+877943121
2897+878448486+878830220+878985953+879009780+879165727+879646265+880357942
2887+880948485+881112779+880886207+880603990+880578451+880838196+881142456
2877+881217576+880973026+880520309+880096200+879985553+880338395+880985225
2867+881581190+881937670+882075426+882041754+881866260+881629772+881439868
2857+881348911+881348625+881437442+881635408+881889802+882042895+882037117
2847+882091120+882476136+883095429+883460114+883200725+882553254+882139774
2837+882239577+882557463+882799872+883096856+883647664+884318035+884827323
2827+885079578+885162117+885197786+885278399+885441408+885670050+885932006
2817+886232057+886624207+887132211+887661118+888064183+888299672+888445489
2808+888566908+888650232+888656438+888573756+888383139+888048559+887636363
2798+887334671+887224881+887214750+887318192+887721399+888415527+889075126
2788+889431606+889540541+889649333+889919350+890224253+890272834+890056464
2778+889950240+890176527+890479931+890566679+890545278+890693520+891020894
2768+891281923+891313954+891204306+891141100+891214080+891366888+891476321
2758+891483527+891456917+891449070+891358826+891119770+890928510+891057776
2748+891531110+892128573+892581075+892714693+892580647+892432548+892449883
2738+892571516+892648063+892601621+892441537+892273534+892244142+892387676
2728+892611680+892831618+892986637+892992843+892862721+892801869+892994698
2718+893334485+893523819+893437641+893251376+893163486+893135379+893031010
2708+892914799+893025802+893463823+894035961+894445945+894572500+894519139
2698+894431606+894365475+894340506+894375248+894417481+894398220+894351207
2689+894305408+894140187+893735196+893121325+892340806+891431949+890673902
2679+890473368+890843189+891307819+891437727+891255171+891079535+891175913
2669+891559289+892022849+892350223+892526573+892701852+892954606+893176256
2659+893224124+893141300+893147435+893393269+893787202+894104945+894224081
2649+894192335+894146607+894244841+894597897+895145994+895670905+896032308
2639+896292552+896512205+896597098+896521907+896539813+896943306+897694147
2629+898479018+899082901+899540754+899930978+900192506+900243228+900181378
2619+900243585+900571744+901097298+901624064+901931035+901856129+901452922
2609+901080747+901169350+901811471+902682590+903398619+903832573+904011348
2599+903882582+903402328+902759280+902256126+902010863+901970700+902081346
2589+902223525+902193705+901980116+901847640+902004157+902409434+902913871
2580+903300599+903364447+903264930+903501489+904196687+904796076+904829391
2570+904561514+904549529+904893382+905223396+905208843+904862065+904411274
2560+904037244+903792837+903705019+903813740+904099880+904435458+904601606
2550+904418907+903973111+903580961+903424515+903396478+903330276+903133880
2540+902779754+902406794+902269110+902452023+902846741+903347112+903810601
2530+904065923+904207887+904614305+905543922+906921832+908402185+909488819
2520+909864561+909696843+909426112+909350850+909517640+909697200+909453935
2510+908621980+907641713+907115089+907207972+907687370+908221056+908454334
2500+908098852+907202979+906249963+905796675+905952979+906316022+906503715
2490+906598025+906900930+907405296+907758923+907694004+907277171+906748835
2480+906301469+906032022+905977377+906190680+906767954+907649275+908419877
2470+908625690+908361594+908212210+908480729+908800185+908722283+908398690
2461+908310444+908528313+908723924+908810101+909028469+909474623+910031780
2451+910628529+911180692+911551012+911861051+912417780+913105629+913338480
2441+912797517+911808046+910899760+910325054+910039769+909903298+909857356
2431+909991830+910391114+910910033+911252103+911282564+911115917+910915668
2421+910769424+910744598+910906109+911226920+911498578+911402342+910795106
2411+909910075+909169364+908839493+908938725+909317321+909757838+910139002
2401+910497694+910821287+910945916+910822143+910731971+911061556+911879671
2391+912798730+913330704+913400045+913334271+913324497+913211496+912932989
2381+912832402+913252944+914026614+914668736+915033991+915466875+916243470
2371+917168807+917831474+917974294+917645565+917315123+917543621+918111836
2361+918112620+917443176+917168522+917708914+917922360+916772234+914795220
2351+913246381+912675884+912841319+913285831+913651443+913859895+914068490
2342+914259679+914245767+914140329+914262104+914585626+914694632+914247979
2332+913316222+912310486+911545947+910944061+910372280+910056463+910365217
2322+911306891+912465078+913356314+913733626+913670205+913404825+913097639
2312+912809074+912642212+912718117+913085726+913737050+914560515+915273404
2302+915624819+915697799+915860523+916353689+916977975+917269680+916987606
2292+916352975+915802739+915629528+915797388+915918450+915476007+914324811
2282+912970728+912206759+912496752+913760877+915564538+917337880+918631254
2272+919485466+920414940+921687626+922817277+923170904+922824768+922313411
2262+921853560+921360466+920931434+920761148+920776200+920744669+920596854
2252+920432704+920396107+920668693+921388930+922415497+923243812+923326994
2242+922675812+922164027+922864218+924834884+926917337+927897533+927451737
2232+926007196+924372108+923480230+923727775+924498877+924908006+924968573
2223+925538356+927091475+928969043+930099622+930168535+929626003+928894994
2213+928352604+928599722+929652470+930411444+930052467+929245624+928979387
2203+929121637+929056933+928699810+928252730+927993627+928539797+930159333
2193+931758964+931883308+930883636+930731827+932277670+934036173+934380098
2183+933617770+932900030+932410788+931981613+932400586+934650758+938272633
2173+941286344+941736421+939293635+935585868+932743655+931415468+930654210
2163+929942248+930504613+933839420+939019408+942709127+942980571+941349408
2153+940301867+940651999+941575124+942063938+941776941+940904253+939807061
2143+938822941+938065821+937272818+936054707+934448440+933106770+932841461
2133+933907763+935647219+936955860+937303209+937131139+937069716+937152969
2123+937106099+936828662+936162500+934757837+932641712+930503471+929080475
2113+928565836+928843130+929944246+931762888+933541652+934428680+934571357
2104+934876260+935619825+936059130+935528226+934373178+933653654+934112434
2094+935504327+936971197+937924071+938401542+938882366+939908505+941468044
2084+942740444+942944474+942286872+941555292+941169990+941143238+941473680
2074+942055020+942489688+942448882+942243712+942636218+943816378+945049399
2064+945778625+946235194+946379869+945542350+943881225+942783105+943065678
2054+944033319+944744354+944963863+944704119+944183915+944382238+946046788
2044+947999832+948188452+946690550+945974807+947780180+951304464+954509720
2034+955994425+955888843+955614474+956158219+956559215+955263986+952749005
2024+951294904+952239716+954706472+957079774+958701165+959713891+959945029
2014+958957628+957436183+957516511+960665267+965174883+967183786+965228530
2004+962014000+960425925+960171744+959433458+957784745+956385576+956476747
1994+958355242+961065407+962989630+963290252+962221168+960084925+957238717
1985+954600035+952788812+951577406+951215504+952922216+956539953+959250117
1975+959052865+957836323+958727061+961975049+964982839+965457956+963329774
1965+959722238+955519950+951775800+950168178+951608581+954985907+958350534
1955+960639371+961681489+961541380+960626886+959718314+959292707+959266169
1945+959463706+959717387+959755482+959735864+960310499+961607439+962990201
1935+963977389+964548528+964521062+963716574+962640783+961920189+961426881
1925+960850320+960515027+960763857+961098793+960762216+959614302+957976861
1915+955956258+953470740+950976019+949622507+950217473+952260619+954669019
1905+957067290+959625717+962099892+963759234+964194687+963660787+962570158
1895+961187396+960011589+959748134+960484209+961468043+962182288+963072383
1885+964500303+965884562+966534602+966679135+967006438+967573082+967820129
1875+967519578+967193774+967525143+968668562+970140355+971185255+971557359
1866+971747549+972137844+972539125+972554534+972075993+971404908+971015326
1856+971215075+971870180+972456800+972516154+972059371+971485450+971125759
1846+970920446+970635375+970449680+970873148+972046459+973695314+975444472
1836+977014570+978325136+979494238+980690877+981892509+982878840+983516467
1826+983655578+982971295+981598807+980530007+980810013+982673884+985411585
1816+988016025+990024856+991571626+992892323+994069272+995136002+996161998
1806+997164452+998054619+998708225+999107438+999403280+999731653+1000024642
1796+1000183514+1000324551+1000815433+1001964489+1003446483+1004641766
1788+1005480569+1006266580+1007086978+1007573295+1007151825+1005396032
1779+1002406219+999030606+996416963+995560183+997228086+1001220424+1005711064
1769+1009209309+1011672142+1013184312+1013629467+1013180246+1012357994
1761+1011813535+1011797341+1011865327+1011403194+1010437266+1009671942
1752+1009693486+1010384903+1010854883+1010406590+1009348135+1008285542
1744+1007563807+1007422413+1008057543+1009253183+1010398600+1011227772
1735+1011978471+1012858222+1013809597+1015003097+1016806829+1019192402
1727+1021687479+1023801750+1025191645+1025705357+1025598206+1025370420
1718+1025242082+1024644975+1022567730+1018494993+1012349647+1004831813
1710+998022873+995010160+998667491+1008871163+1021046071+1031544516+1040982436
1700+1050014367+1056254807+1058861459+1059795356+1060594637+1061776080
1691+1063511541+1065603055+1067391093+1068471377+1069144674+1069935394
1683+1070880634+1071622987+1072140836+1072583850+1073022870+1073450974
1674+1073741823+1073646514+1073007889+1071741124+1069708465+1067095393
1666+1064439518+1062142548+1060410583+1059120276+1057396658+1054096093
1657+1048776352+1041051421+1027547184+1002571083+973381066+948215276+918741615
1647+875741104+826679569+792610899+776625567+770081366+767420925+765512752
1638+760767218+748133672+727151408+705435780+686478755+668977401+652693943
1628+639013642+628725433+621700765+618872463+621760190+630169975+644375829
1618+667810796+701125342+734310907+759012995+775606349+784706836+785790331
1608+781852068+779615309+784283796+797027347+816493660+840531440+867259552
1598+895351878+922609396+944124276+952979358+943499776+913730487+865774063
1588+804717607+737436264+672223106+616967144+575644666+547396500+529239898
1578+519539379+519895931+530631220+545589094+561444090+581575174+608079247
1568+634533203+653702533+665446839+672059811+675855468+678898928+680301664
1558+673119622+654311053+628313023+600071528+578160610+569753108+574039006
1548+584659154+596591011+608818317+621455145+633696541+646305618+660644591
1538+672439263+679559169+685281832+692566673+701459351+709596335+716163864
1528+722399810+729290933+736395786+742967096+749688432+757322834+764583207
1519+770448119+775725484+780755732+785036279+788601939+791828882+794837671
1509+797944123+801771026+805583305+808242604+810447119+812918440+815719490
1499+818685404+822086200+826419467+831329009+836319735+841911419+849003432
1489+857103178+864550815+871017328+877356858+884559874+893206147+902684160
1479+911712880+919338508+923441707+919053295+902336169+878624336+856412974
1469+834195762+805998996+771843365+742448320+727656701+720040990+703610860
1459+663883590+597510890+539696787+526060966+542882782+570193626+598415539
1449+623452776+644892323+664124002+682856666+702782116+724088402+745157129
1439+765436562+785934222+802444465+802125438+776143602+724988913+658260945
1429+598519693+566002894+560749285+572437162+591973495+613134748+634062652
1419+656045088+677771202+695287610+708377582+719287651+729235645+738244248
1409+746016548+752614254+758575688+764292857+769414490+773368804+776179128
1400+778388280+780686391+783615422+787281884+791022753+793803543+795397467
1390+796417399+797475426+798768016+800082435+800723343+799110300+792448675
1380+777666116+754068354+725242166+698602870+682970951+682533929+693032373
1370+706969209+718498215+724356636+724536481+721813761+720319283+723358034
1360+731038807+741329726+752419855+763253022+773304029+782296723+789917072
1350+795865165+800274622+803953853+807914731+812587357+817740878+823100639
1340+828557208+833767372+838247169+842058306+845837983+850245299+855553768
1330+861514703+867530997+873109911+878186172+882955320+887400018+890868871
1320+891904497+888733127+880524376+868105917+853225339+837303355+819861355
1310+797531998+767247571+732711704+705250014+694385957+698912338+710145645
1300+721664663+732922082+745476870+759465498+773724785+786972274+798009612
1290+805770355+810231533+813234472+817503747+824521139+833806894+844027259
1281+854121997+863618130+872570233+881414614+890715350+900804380+911414184
1271+921573555+929739646+933301240+926892297+901551227+849266387+773452128
1261+695335977+643768022+633810683+656808984+690224332+713023883+715341327
1251+701243979+684278664+677374986+684703416+701899868+722092625+740987086
1241+757953185+774347360+791523980+809990692+829489679+849123567+867311487
1231+881834300+889822258+887394025+869645338+832508170+776470120+709176506
1221+643764455+593403483+565554779+559592132+569079633+586211167+604741443
1211+620719998+632611619+641148886+647877071+652885274+654387172+651378882
1201+646274942+643662940+646351631+653480883+662324479+670834138+678331284
1191+684903878+690961548+696989327+702888554+707432127+709092825+707900824
1181+706104011+706517848+710288251+716447864+723358748+730063604+736294200
1171+741855066+746418971+749648839+751355693+751880177+752420141+754546539
1162+759066285+765423721+772321264+778805113+784632002+789889749+794660893
1152+798883085+802178371+803583819+800608702+788390348+762725613+727055885
1142+694505165+678512057+680903622+691479397+699119792+701470765+704101386
1132+712497973+726504293+741931470+755351812+766111999+775007744+782758714
1122+789708762+796058565+802012009+807712342+813195307+818554997+823963911
1112+829301772+833856689+836455635+835848256+830920737+820239165+801496514
1102+773036936+737701003+704424052+683302106+677642150+681703973+686960293
1092+689849874+692912025+699736802+710627111+722866295+733302247+740028006
1082+742952401+743939873+745812876+750215341+756510498+763006546+768706808
1072+773629120+778182467+782752151+787559250+792581222+797642787+802603908
1062+807394599+811921907+816002777+819356917+821784508+823612211+825947632
1052+830206349+837088625+844871983+847091407+833639604+799724456+755785339
1043+723396486+716451289+727536781+735358519+724832110+699171227+674106738
1033+662734678+666789223+680122889+696262670+711548167+724477270+734844736
1023+743123043+749862142+755577314+760787407+765850328+770910894+775796538
1013+779555098+780351098+776886667+770788477+766677859+768027305+773097645
1003+776673721+775779631+772301218+769834462+768766519+765453612+757370560
993+748254592+745410168+751782228+763395200+774576358+782879990+788791130
983+793396697+797406156+801124482+804492177+807312060+809552743+811336857
973+812788033+814058792+815353879+816782939+818159994+818471388+815438700
963+807078782+794832606+783868105+778983317+781024537+787597274+795677187
953+802980220+808140162+810511466+810149921+808357745+807566668+809446091
943+813345618+817378547+820502335+822922292+825151062+827384111+829489536
933+831229848+832562316+833763163+835164116+836805267+838441567+839859499
924+841081891+842235084+843350182+844438885+845655997+847145054+848743901
914+850111468+851166998+852142771+853194021+854244415+855247439+856302327
904+857413645+858350395+858788059+858318222+856269226+852061445+846281782
894+840965252+837538988+834069564+826193180+812691297+799340368+794720747
884+801983545+816367604+830162333+838086228+839089110+836163289+834501021
874+837615820+844780099+852772551+859368473+864491603+868931022+873075241
864+876822030+880025574+882664685+884109583+881304110+868688541+843883654
854+814943395+797369631+800199644+817634083+836304040+846872682+846677642
844+836182693+817523579+795365294+776151734+765204640+764140406+770775279
834+781211159+791928043+800708719+806796993+810502620+812323617+812349941
824+810419082+806444151+800302016+791603309+780059536+766228923+751508644
815+737208836+724087260+712904819+704730667+700273984+699289650+700949706
805+704626868+710124243+716796712+721619577+718273569+700698878+669998118
795+637226746+617375916+618753613+635568830+649706984+643693544+616453576
785+585264215+570507909+580307482+607521377+634355070+640779850+617836409
775+575553709+533265052+503161968+487610626+487463740+503814398+532551271
765+564755677+593745731+618215147+639311696+658008120+675013312+691007919
755+706543887+722072793+737889409+753991950+769861000+783736770+791651819
745+787371700+764446379+720590371+662170244+604278810+563859197+550087046
735+559981036+582850072+608926610+633781934+656497233+676830599+694586348
725+709892748+723324362+735755948+747769844+759271599+769981277+779898453
715+788055697+789569009+775514036+741064988+695872303+661420972+653698538
705+668886158+685950277+682733036+652818430+609709126+574553752+560232435
696+565852476+579263794+582810050+566023618+537645010+518827167+522057107
686+542284605+567537750+590292465+608802694+624081629+637460951+649298569
676+659267964+667218755+673329429+678209223+683216214+689742652+696538537
666+700990369+703686194+706374029+709593981+712815716+715644303+718248601
656+720659284+722434766+722888482+721491238+718719723+716534185+717128937
646+721055786+727034341+733259515+738530888+742531786+745522812+747862228
636+749745575+751322378+752550120+752267904+748196023+739684937+730392405
626+726107578+729126497+736373885+743526179+748973331+753439145+757631946
616+760925876+761621787+758432011+752428416+747483062+747481207+752581795
606+759287222+764212387+766554371+767218536+767229023+767308780+768040075
596+769901378+772943482+776335575+778658226+779021127+777755004+776073690
586+775276549+775905472+777512238+779543114+781943524+784579068+786941955
577+788695821+789808708+790268558+790313002+790676331+791975555+793916187
567+795664489+797066441+798801759+801210231+803670995+805422792+806119631
557+804601896+798044639+784927131+769640706+761384157+766135541+780607133
547+794322176+794771754+771434807+722112029+659587206+608132251+587394466
537+598605514+627569458+658616426+683981538+702847177+716530475+726396286
527+733975829+740576887+746480822+751248685+754896955+758403904+762701858
517+767092837+769871344+770766576+771118205+771982833+773415246+775284111
507+777462872+778106491+772248499+755291245+731089457+712922297+710699306
497+722006162+737380976+749529703+757028633+761958578+766322591+770480293
487+773756817+775864167+777357076+778660438+779416630+779348144+779109872
477+779812632+781755261+783754819+783893287+781453926+778218208+776736428
467+777801161+780185021+782458092+784500524+786673364+788490294+789287078
458+789643986+790783768+792778546+794822904+796418113+797740736+799452798
448+802155971+805771211+809271811+811076470+810357660+808230120+806625780
438+806545452+808182894+811364037+815204566+818566625+821116348+822870072
428+822908096+819548320+811850569+800873369+788904987+777898110+770736471
418+769793941+768871387+758308024+736080611+710808668+695047126+691308969
408+692000671+693951932+702302077+719109376+737828842+751677574+761534397
398+773103923+786150450+794293998+796148452+795032498+794323532+795566113
388+797481918+797508742+795735828+795031000+795726554+795821720+795592080
378+796453711+798493076+801878819+807463013
##END=
