##TITLE=X8240
##JCAMP-DX=4.24
##DATA TYPE=INFRARED SPECTRUM
##DATE=31/10/2018
##SAMPLING PROCEDURE=Diamant-ATR
##ORIGIN=ComPlat
##XUNITS=1/CM
##YUNITS=TRANSMITTANCE
##RESOLUTION=4
##FIRSTX=3997.453
##LASTX=373.96442
##DELTAX=-1.4165319
##MAXY=0.97438055
##MINY=0.4222298
##XFACTOR=1
##YFACTOR=9.0746261e-010
##NPOINTS=2559
##FIRSTY=0.96606135
##XYDATA=(X++(Y..Y))
3997+1064574284+1065622318+1066653274+1066983856+1066611631+1065901272
3989+1065238730+1065004374+1065442019+1066334056+1067107733+1067439103
3980+1067476148+1067420120+1067257884+1066953445+1066596590+1066317373
3972+1066135169+1065914212+1065494039+1064869199+1064198644+1063711344
3963+1063655842+1064162913+1065087594+1066091358+1066782407+1066730320
3955+1065774439+1064504003+1063978410+1064702891+1066090702+1067114039
3946+1067407115+1067457034+1067842395+1068485298+1068613051+1067714182
3938+1066268176+1065181521+1064902238+1065401492+1066531039+1067784003
3929+1068389270+1068273537+1068090479+1068205621+1068279645+1067919047
3921+1067194172+1066356782+1065532792+1064737571+1064062287+1063768488
3912+1064083568+1064939677+1065975757+1066880865+1067744331+1068905011
3904+1070343923+1071529102+1072218114+1072480648+1071924250+1070383792
3895+1068726945+1067961478+1068134815+1068302765+1067844562+1067329938
3887+1067477659+1068152680+1068504871+1068252321+1067901903+1067668467
3878+1067366064+1067243565+1067759372+1068709276+1069382130+1069654122
3870+1069999154+1070454204+1070757002+1071005545+1071123971+1070475354
3861+1068961629+1067586298+1067279231+1068178559+1070024902+1072359464
3853+1073741823+1072930575+1071071819+1069533660+1068723266+1068524707
3844+1068621984+1068811347+1069243145+1070131767+1071162133+1071563323
3836+1071065842+1070104837+1068977130+1067755956+1066778794+1066558428
3827+1067168161+1068076094+1068912039+1070108450+1071946319+1073090578
3819+1072197884+1070296500+1068942318+1068436824+1068090282+1067450138
3810+1066619119+1065968006+1065972867+1066735903+1067656578+1068234784
3802+1068537581+1068891151+1069647948+1070813554+1071723261+1071453042
3793+1069977544+1068261122+1067164220+1066955743+1067501173+1068368974
3785+1068843860+1068530685+1067921543+1067652506+1067506231+1066794295
3776+1065607736+1064775404+1064934422+1066187584+1068004106+1069279074
3768+1069386991+1068976670+1068880971+1069200977+1069790743+1070653683
3759+1071431892+1071362202+1070458670+1069622201+1069512773+1070205660
3751+1071169621+1071410085+1070668067+1069450243+1067894219+1065876576
3742+1063958771+1062746792+1062116107+1061957023+1062670600+1064385906
3734+1065693321+1065266317+1063974206+1063243288+1063539255+1064632544
3725+1065940157+1066698136+1066488739+1065476568+1064101171+1062892871
3717+1062368460+1062784823+1064079561+1065903637+1067328099+1067266226
3708+1065902126+1064182552+1062713294+1061865855+1061824804+1062097256
3700+1061803325+1060941633+1060263853+1060365858+1061662830+1064539275
3691+1068750131+1072453062+1072909820+1070025690+1066342726+1063457743
3683+1061713865+1061148337+1061658363+1063031724+1065114918+1067313911
3674+1068075437+1066977681+1065324578+1064007573+1063212746+1062846827
3666+1062572602+1061922671+1060666160+1059085898+1057725149+1056989108
3657+1057168028+1058236620+1059516843+1060600280+1062135877+1064814157
3649+1067167899+1066345551+1063247361+1060616635+1059232831+1058595774
3640+1058330153+1058473144+1058859621+1058891412+1058153138+1056936167
3632+1055914275+1055369568+1054785451+1053443093+1051710382+1050431473
3623+1050047491+1050909775+1053147455+1055839725+1057217684+1056779842
3615+1055499423+1054179331+1053142528+1052673619+1052937007+1053314749
3606+1052494174+1050123355+1047449607+1045829279+1045298759+1044749849
3598+1043471597+1041699344+1039850900+1038260786+1037283624+1037101683
3589+1037675750+1038631894+1039022904+1038210605+1036622199+1034825381
3581+1033120651+1031861250+1031193191+1030614328+1029618906+1028510575
3572+1027848822+1027659721+1027848559+1028548934+1029156040+1028160749
3564+1025463158+1022554529+1020494980+1019309144+1018631495+1018257497
3555+1017938476+1017188182+1015775346+1014195150+1013170565+1012852266
3547+1012710523+1011981510+1010528870+1009216660+1008882729+1009291210
3538+1009429538+1008624399+1007097603+1005472546+1004198957+1003517170
3530+1003412603+1003442226+1003031578+1002108012+1001175646+1000707196
3521+1000537209+999989678+998711032+997192643+996207796+995841155+995481345
3512+994697881+993709881+992980868+992657840+992530284+992325748+991876413
3502+991130059+990145738+989095142+988223992+987717183+987533928+987414254
3492+987118485+986668427+986323855+986297319+986516108+986691416+986554993
3482+986014752+985152469+984115338+983087600+982376059+982224397+982391823
3472+982273200+981603761+980659900+979718666+978788270+977928876+977382659
3462+977232311+977229421+977119928+976982585+977072045+977338782+977374317
3452+977054310+976922485+977482956+978303596+978351545+977301737+975933894
3442+975151021+975080150+975072268+974396786+973013967+971694138+971239350
3432+971612231+972042585+971982814+971678571+971698604+972162653+972659806
3422+972800432+972598261+972302426+972067019+971866489+971580375+971098658
3412+970429351+969744280+969306044+969338163+969834593+970452143+970737600
3403+970518745+969973184+969385520+968965742+968764950+968642977+968434500
3393+968161391+967982208+968022209+968321197+968750499+968966267+968739465
3383+968399885+968600808+969493568+970465345+970901478+970903055+970923810
3373+971023386+970879146+970349349+969734624+969536262+969927863+970445903
3363+970565774+970620028+971447762+972997284+974124137+974049259+973222838
3353+972441213+971934865+971670164+971777818+972265118+972808183+973106251
3343+973137516+973043918+973008778+973116564+973150719+972805621+972250011
3333+972164689+973038138+974591076+976052911+976937198+977373463+977700957
3323+978027400+978218012+978048485+977459442+976854898+976860809+977651170
3313+978825577+979840639+980222124+979731671+978752867+978157649+978511811
3303+979624542+980782726+981306021+981111206+980728735+980587583+980580489
3293+980516843+980550866+980915668+981587866+982375336+983103298+983635788
3284+983932806+984216030+984889081+986037544+987124068+987530053+987340361
3274+987212937+987531761+988127109+988760554+989331403+989578764+989232879
3264+988660585+988705183+989604183+990670806+991229963+991270489+991042504
3254+990594614+989920511+989278988+989198921+990051220+991530527+992771997
3244+993245044+993422847+994201648+995653696+996792373+996852998+996348686
3234+996276041+996775624+997269624+997426014+997316981+997081968+996998025
3224+997440990+998339596+999108215+999434199+999670197+1000139172+1000615700
3214+1000880139+1001218011+1001912738+1002701587+1003148099+1003230071
3206+1003243799+1003299892+1003195588+1002865138+1002755841+1003407874
3197+1004745372+1006137058+1007029227+1007248476+1006985877+1006667315
3189+1006478346+1006132986+1005516488+1005165939+1005590315+1006552633
3180+1007459646+1008052368+1008424132+1008664071+1008748079+1008653693
3172+1008445347+1008305903+1008510899+1009186118+1010068303+1010775180
3163+1011266159+1011653622+1011778813+1011481139+1010985562+1010587065
3155+1010385353+1010548181+1011220641+1012103943+1012720704+1012977720
3146+1013010759+1012820344+1012411207+1011923906+1011508660+1011385964
3138+1011872345+1012964781+1014079943+1014525732+1014183524+1013598094
3129+1013425545+1013847163+1014475681+1014778347+1014544254+1013997971
3121+1013588767+1013608669+1013876195+1013919677+1013565712+1013086885
3112+1012685563+1012243584+1011758189+1011616380+1012127129+1013011481
3104+1013635927+1013633366+1013071647+1012112087+1010833244+1009418109
3095+1008177099+1007226210+1006371349+1005454417+1004684747+1004527699
3087+1005254676+1006587576+1007867996+1008628405+1008863484+1008711166
3078+1008125669+1007012478+1005509000+1003952910+1002544015+1001097549
3070+999263621+997047090+995022748+993983187+994334196+995744273+997438494
3060+998933302+1000281835+1001463599+1002008831+1001676739+1001043426
3051+1000858726+1001113247+1001178339+1000683025+999824617+998764497+997150541
3041+994633972+991588722+988749979+986321096+984118359+982440953+981999762
3031+982989864+984851116+986987317+989257904+991712797+994200597+996426914
3021+998305441+999968462+1001309573+1001869978+1001496769+1000776426+1000441313
3012+1000639018+1001073575+1001507147+1001831028+1001942098+1001811126
3003+1001516671+1001074494+1000319865+999039905+997230674+995175789+993165896
2993+991172359+988905253+986109072+982678659+978637790+974108964+969170738
2983+963780417+957933141+951711867+945133936+938307527+931715934+925848297
2973+920573906+915392850+910254488+905657352+901988839+899186747+897085161
2963+895773871+895429627+895953316+896985126+898159206+899132099+899521597
2953+899041522+897591378+895174318+891964008+888421014+884995330+881675593
2944+878071908+873974421+869693679+865826278+862794165+860699345+859491242
2934+859003547+858886369+858902264+859377216+861008119+864073862+868036174
2924+872075664+875868252+879603105+883323507+886628072+889133607+890941984
2914+892528092+894354926+896590373+899054856+901539174+904193480+907367402
2904+911082025+914949229+918559547+921706408+924337790+926518852+928391664
2894+930060926+931538722+932786629+933764514+934470012+934940892+935173343
2884+935069499+934536615+933595906+932337096+930801893+928974599+926851732
2874+924515922+922236730+920462376+919463145+918947010+918312646+917356370
2864+916482330+916256053+917030124+918919160+921812683+925430751+929537566
2854+934026522+938700507+943131860+946927207+950100078+953051992+956138162
2844+959318718+962269845+964786085+967022058+969307686+971751807+974137536
2834+976276233+978290591+980371618+982416125+984141020+985466695+986588491
2825+987684736+988713656+989536267+990130302+990602561+991080863+991699463
2815+992582436+993706925+994868853+995897971+996820354+997736168+998631161
2805+999397416+999973914+1000365055+1000558491+1000566438+1000572612+1000874753
2795+1001595293+1002544737+1003396905+1003925717+1004136756+1004280338
2786+1004674172+1005389326+1006153019+1006641699+1006791456+1006769977
2778+1006770569+1006902394+1007132152+1007271728+1007186603+1007030015
2769+1007079672+1007418201+1008026620+1008992156+1010236056+1011245994
2761+1011527971+1011199819+1010787266+1010585357+1010495109+1010335172
2752+1010062982+1009747508+1009466714+1009272884+1009232621+1009442477
2744+1009895885+1010333070+1010388900+1010012341+1009619098+1009628097
2735+1009939170+1010109551+1009964130+1009699822+1009470130+1009291407
2727+1009281095+1009543826+1009875721+1009981733+1009907380+1009947315
2718+1010227715+1010610579+1010890716+1010965135+1010902014+1010886053
2710+1011041327+1011328820+1011618678+1011802262+1011830768+1011712145
2701+1011477263+1011151280+1010773013+1010439016+1010288471+1010382266
2693+1010605128+1010789499+1010926842+1011088290+1011185172+1011070819
2684+1010851570+1010799746+1010944248+1011043100+1010978140+1010872916
2676+1010765394+1010483483+1009982784+1009519326+1009312623+1009290422
2667+1009283328+1009233803+1009149007+1009065130+1009037412+1009040170
2659+1008991762+1008929429+1008992419+1009248122+1009680577+1010205908
2650+1010595670+1010629299+1010411364+1010295631+1010454057+1010729794
2642+1010864575+1010703389+1010249981+1009667112+1009161092+1008843254
2633+1008799180+1009190978+1010033556+1010964281+1011557791+1011799569
2625+1011913200+1011882395+1011574671+1011203366+1011171642+1011497756
2616+1011832607+1012017110+1012172910+1012278002+1012193534+1012131135
2608+1012510782+1013272636+1013894717+1014117119+1014090649+1013855242
2599+1013275329+1012542309+1012238592+1012687008+1013499307+1014032585
2591+1014172687+1014314036+1014636079+1014849088+1014696704+1014295382
2582+1013928413+1013792778+1013973340+1014455714+1015096974+1015660664
2574+1016039916+1016444916+1017099182+1017712002+1017735911+1017313833
2565+1017366773+1018366925+1019512498+1019607278+1018461245+1016885647
2557+1015615211+1014899072+1014829186+1015271625+1015691863+1015673932
2548+1015328900+1014869187+1014370655+1014190355+1014829974+1016112758
2540+1017121974+1017149298+1016354865+1015483255+1015154972+1015445750
2531+1016098965+1016953826+1017904584+1018650740+1018916689+1018742696
2523+1018206659+1017210251+1015951770+1015194251+1015532320+1016608794
2514+1017459189+1017545431+1017231598+1017294128+1018072863+1019103491
2506+1019648198+1019552236+1019280769+1019068811+1018567980+1017594430
2497+1016676973+1016457330+1016956191+1017705894+1018233852+1018292966
2489+1017980316+1017707536+1017836734+1018432016+1019363004+1020296881
2480+1020658071+1020154875+1019341920+1019082801+1019444844+1019649840
2472+1019195907+1018546633+1018474776+1019032291+1019519723+1019430263
2463+1019088713+1019136004+1019595061+1019854639+1019576932+1019116956
2455+1018878988+1018824405+1018880498+1019226318+1019838021+1020286044
2446+1020288934+1020047878+1019858449+1019764128+1019668232+1019514403
2438+1019273610+1018935803+1018621445+1018587750+1018989466+1019673223
2429+1020321184+1020732292+1020919685+1021003628+1021019391+1020848025
2421+1020505096+1020359477+1020667135+1021067471+1021027602+1020582601
2412+1020183381+1020093330+1020286832+1020620434+1020888551+1020997125
2404+1021070164+1021124878+1020868058+1020184695+1019508951+1019295876
2395+1019428621+1019558541+1019714275+1020136024+1020704574+1020833969
2387+1019811617+1017251172+1013421867+1008997411+1004291307+999017639+992944151
2377+986330949+979510648+972512414+965290923+957901350+950396898+942893103
2367+935751089+929610014+925265297+923182299+922911883+923476755+924705417
2357+927586657+932931065+940435977+949076806+957338843+963266186+965217818
2347+962696980+956965896+951012214+947502194+946634393+947059360+947820427
2337+948903207+950552238+952463475+954058449+955377819+956879655+958441788
2327+959567459+960452863+961870428+964162690+967133915+970782593+975171186
2317+979608910+983026121+985176837+986745867+988364487+990152043+992185713
2308+994764352+997952527+1001185235+1003684661+1005266039+1006526623+1008209546
2298+1010502663+1012850690+1014358503+1014644749+1014409670+1014779924
2289+1016045236+1017538994+1018719050+1019658051+1020445521+1020941229
2281+1021227934+1021553589+1021757403+1021448628+1020700173+1019936480
2272+1019300342+1018702958+1018260059+1018181896+1018413822+1018780463
2264+1019306648+1020050111+1020745560+1020992856+1020750355+1020290116
2255+1019765573+1019190127+1018610936+1018043043+1017726321+1018451196
2247+1020649466+1023193031+1024354039+1024012161+1023663976+1024229833
2238+1025009159+1024937762+1024003753+1023066263+1022801824+1023234148
2230+1023889859+1024062605+1023425088+1022618570+1022598799+1023419045
2221+1024393186+1025146305+1025637086+1025585657+1024850207+1024099387
2213+1024278504+1025323320+1026122482+1026160972+1026342322+1027371242
2204+1028264791+1027627931+1025600238+1023495566+1022176328+1021415327
2196+1020582273+1019735097+1019659824+1020502534+1021173352+1020617085
2187+1018815801+1016473619+1014790761+1015098945+1017483295+1020481910
2179+1022906523+1024710434+1025687005+1025029324+1022891481+1021064713
2170+1021324816+1023616685+1026211548+1027540375+1027734337+1028375532
2162+1030523883+1032722219+1031990776+1028061700+1024344778+1023496617
2153+1025147815+1027416038+1028580922+1027957592+1026211285+1024387997
2145+1022595712+1020511664+1018505187+1017027391+1015870060+1015216320
2136+1016181594+1019110716+1022570753+1024930668+1025712424+1025060851
2128+1023234148+1020802179+1018539605+1017143583+1017131498+1018341506
2119+1019611416+1019936940+1019820878+1020382072+1021414145+1021572309
2111+1020388837+1018936000+1018353657+1018580328+1018767327+1018481278
2102+1018131058+1018195164+1018427550+1018250075+1017667600+1017191269
2094+1017075470+1017244341+1017624841+1017976441+1017812300+1017046439
2085+1016326424+1016233286+1016547447+1016809127+1017209201+1018135459
2077+1019093967+1019163262+1018502494+1018140188+1018304001+1018341506
2068+1018181240+1018538028+1019712239+1021010721+1021285013+1019847020
2060+1017208281+1014929286+1014425631+1015835774+1017710163+1017742347
2051+1014793192+1010641188+1008838393+1011224910+1016418709+1021912743
2043+1026244323+1028863423+1029121885+1026455625+1021764431+1017729474
2034+1016530960+1017614003+1019012126+1020068502+1021290004+1022828623
2026+1024713521+1027173997+1029388688+1029367538+1026426330+1022524315
2017+1020177142+1020168997+1021743084+1023381343+1023191192+1020583127
2009+1017647304+1016802427+1017466414+1017172287+1015264071+1013539505
2000+1013925720+1016421599+1018861385+1018910647+1016580617+1014098597
1992+1013376218+1014376435+1015802998+1016232367+1014751220+1011735331
1983+1008906309+1008152665+1010480790+1015658628+1021829917+1025891607
1975+1025863560+1022681494+1018688048+1015107352+1011932182+1009581922
1966+1009042666+1010191195+1011600090+1012268215+1012375738+1012346706
1958+1011991297+1010712388+1008291847+1005555241+1004196133+1005452250
1949+1008741642+1011982035+1013632512+1013943191+1013769789+1013186197
1941+1012264077+1011954843+1012868490+1014166972+1014459720+1013356184
1932+1011653031+1010336223+1009757098+1009602021+1009515122+1009674337
1924+1010482892+1011638383+1012138229+1011599105+1010937811+1011184515
1915+1011880161+1011769617+1010693340+1009774766+1009781794+1010059830
1907+1009750924+1009138169+1008894223+1008923781+1008721543+1008251058
1898+1007850065+1007696433+1007735974+1007842183+1007880147+1007633443
1890+1006836645+1005756033+1005449360+1006515916+1008014534+1008423475
1881+1007523424+1006450299+1006091672+1006304549+1006535293+1006684327
1873+1007297804+1008867425+1010769400+1011309378+1009961240+1008391947
1864+1008013352+1008523050+1008791627+1008241862+1007309101+1006841572
1856+1007308904+1008413951+1009378240+1009715652+1009612333+1009606487
1847+1010219045+1011601404+1012940413+1012909739+1011560484+1010120192
1839+1009333772+1008988150+1008366200+1007244273+1006292070+1006146845
1830+1006490432+1006631978+1006683276+1006921508+1006854051+1005939025
1822+1004431474+1002942709+1001870766+1001265960+1000901880+1000600856
1813+1000324134+999841235+998772248+997198029+995760234+994974143+994795354
1803+994806126+994577944+993834481+992534488+990965787+989526415+988264912
1793+986573515+983421662+978665443+973539101+968978550+964782407+960333780
1783+955576837+950796972+945814541+940429080+935119286+930449702+926319373
1773+921869827+916006918+908765591+901112434+893376910+885666937+878285508
1764+870777575+861994806+851825145+841176262+830019783+818179941+806749631
1754+796506799+786528472+775208903+762220072+749048381+736677822+724706483
1744+712777378+700929128+688857886+676702438+665823140+656614878+647233738
1734+635894004+624208254+614319781+605757902+598072823+591703960+587002454
1724+583828466+581839067+581033074+581971023+585318151+590680754+596175773
1714+600845751+605454251+610731532+616477459+622358824+628757047+635676069
1704+642196396+649088356+659499007+674305149+689108268+702632348+717363742
1694+731811584+743945619+755652519+768747690+781813370+793427263+806075529
1684+822400124+837396679+846179121+851460868+856187596+861502448+867716759
1674+873963649+879002239+883288433+887999791+892398368+894837234+895893348
1664+896991432+898283412+898672122+897627832+895893085+894402743+893852913
1655+894688791+895877715+895185484+893727721+893434448+894602353+895711735
1645+895369856+894576277+894667379+896164946+899291708+904470136+911368993
1635+916971207+919249216+920121352+921660627+924419631+927633620+930449571
1625+932962659+935245069+936615868+936996631+937382386+938583723+940039844
1615+940293511+939249549+937816680+936599447+935699002+934910152+934128725
1605+933587433+933549468+933827110+933914008+933763857+934062385+935517061
1595+938050117+940689512+942230364+942003496+940164050+937553686+935390228
1585+934874815+936644046+940273347+944513760+948418862+952040938+955606526
1575+958169927+959000354+959135332+959801027+961131760+962187741+962539013
1565+962567650+962437336+962258744+962820397+965429120+968807315+969329624
1555+968000928+966811282+966356954+966429862+966508024+966379943+966467695
1545+967333131+968991489+970881182+972447847+972950123+971946951+970456281
1536+969490613+969322399+969452517+969291528+969177963+969742046+970924993
1526+971938543+972318781+972359307+972329290+972231423+972170929+972040680
1516+971377021+970211021+969281676+969153332+969764838+970401633+968818153
1506+962449815+952976654+941892558+928508842+913191492+899625048+893983884
1496+898486963+907928202+917468688+926574879+935531117+942586628+946132248
1486+947279266+947633493+947854976+948038953+948032779+947640259+946730290
1476+945043557+941827598+935695653+926038448+914597892+902999302+890876302
1466+876997273+861392889+846518372+834192609+822913303+808205621+785693447
1456+762488518+752035107+754013669+762812071+774775725+787784129+800464645
1446+811531138+820369673+827510374+833499984+838423761+842771499+847534550
1436+852638954+856410918+858416606+860005144+862231855+864804057+866697560
1426+867527658+867388805+866220112+864146310+861535683+858382254+854603262
1417+850901317+848075316+846376563+845719407+845698783+845770968+845687748
1407+845461339+844986059+844137963+843224776+842827132+843151014+843639300
1397+843425634+842120517+839865825+837043634+833947021+830436278+825926959
1387+819985363+812974254+805525895+797843575+789975634+782313872+775682476
1377+770907208+768367847+768044097+769783113+773417537+778723587+785138888
1367+791786048+798287524+804918593+811423747+816612816+819924869+822015092
1357+823635616+825134234+826608615+828003848+829201113+830123037+830746957
1347+831120101+831366148+831608058+831912760+832250370+832370898+831848391
1337+830514177+828668032+826739915+824948615+823222603+821401549+819513564
1327+817698815+815917564+814028725+812059885+810083096+807904137+805171274
1317+801811995+798151430+794592935+791396155+788735938+786727819+785287068
1307+784116404+782936348+781607848+779994351+777923703+775349464+772389668
1298+769186976+765793017+762168971+758312080+754365400+750470741+746535293
1288+742331925+737806317+733113810+728409414+723759272+719216587+714847436
1278+710634084+706401356+701915946+697109216+692190103+687499041+683213044
1268+679258679+675614731+672589909+670598605+669693759+669506498+669660852
1258+670129039+671125512+672733951+674724270+676712159+678429369+679852451
1248+681127813+682372239+683574168+684704305+685804163+686899226+687943188
1238+688851908+689485681+689691531+689486732+689065312+688531771+687766567
1228+686623752+685163099+683595777+681945367+679801285+676549463+671866414
1218+665931188+659277197+652574074+646409879+641085766+636595430+632802120
1208+629608493+627057178+625356323+624701925+624941865+625436784+625353630
1198+624133178+621677563+618181533+613934945+609313310+604805108+600892452
1188+597827038+595517435+593690600+592153427+590761084+589165387+586863666
1179+583589184+579492222+574917418+570152857+565375553+560682323+556142199
1169+551893247+548232189+545580970+544302423+544530637+546160752+548945734
1159+552660882+557357265+563439947+571279578+580711228+591021976+601381263
1149+611179488+620011126+627476365+633140912+636753003+638421805+638472906
1139+637159120+634580349+630873543+626482913+622209199+618862334+616829256
1129+616017220+616114431+616794378+617779751+618863123+619884555+620730680
1119+621425801+622157901+623126065+624400967+625968092+627828556+630014675
1109+632545235+635391794+638458916+641573001+644505933+647057577+649146617
1099+650801166+652029761+652741303+652878186+652599362+652196333+651791661
1089+651235854+650302502+648865560+646944405+644812080+643116020+642691907
1079+644058305+647002469+650592688+653580728+654995863+654685775+653407063
1069+652223132+651680461+651592314+651551591+651414971+651221535+650929772
1060+650486151+649981051+649481796+648856693+648021274+647214099+646753531
1050+646609423+646428008+645930723+645143122+644228621+643215858+642008215
1040+640638401+639338802+638291950+637382704+636131053+633785391+629726262
1030+624063161+617779620+612171823+608194667+606215185+606028646+606970274
1020+608241301+609373541+610410737+611615162+613097556+614774634+616535654
1010+618313292+619995625+621291611+621831129+621696085+621837500+623504792
1000+627063221+631641571+636009934+639524487+642249993+644577068+646867491
990+649211709+651358812+652936052+653762407+653939159+653726610+653392941
980+653080489+652757461+652358569+651967100+651832385+652276532+653562797
970+655716206+658487756+661581282+664813793+668020820+671017135+673719850
960+676145317+678277248+680038399+681337079+682103794+682370268+682292894
950+682018340+681603422+681109028+680645636+680290818+680067957+680030517
941+680298503+680975364+682052495+683422638+684971240+686633473+688436399
931+690517689+692949724+695467935+697580753+699054214+700056073+700752573
921+701026798+700692670+699759384+698406516+696904877+695627085+694943918
911+695002836+695737826+697165703+699499215+702883059+707181470+712051452
901+717030271+721574007+725367777+728687449+732133101+735875441+739463756
891+742505919+745153656+747679421+750014377+752064664+754057479+756161823
881+758133094+759655292+760699122+761390302+761877602+762355050+762902582
871+763373527+763625486+763746934+764003556+764656508+765700273+766689061
861+767053469+766607418+765485819+763695701+761113712+757885667+754490066
851+751373222+748728768+746634474+745161801+744268581+743769392+743522425
841+743516448+743757372+744255379+745038974+745832619+745750253+743781018
832+739866654+735325808+731966332+730740429+731303987+732752686+734457745
822+736115446+737485326+738558254+739751709+741436275+743317495+744747080
812+745682862+746880127+748960497+751702621+754476272+756970181+759180865
802+761072463+762646616+764079026+765518332+766989560+768583549+770374324
792+772075310+773178977+773571169+773700104+774024052+774528824+774913199
782+775112349+775436691+776131417+776954291+777369340+777077512+776151845
772+774683309+772500080+769249638+764602649+758329289+750202558+739811283
762+726519196+709861129+690206944+668981824+648066661+628986674+612613277
752+599299185+589029621+581468550+576022727+572018312+568854111+565973594
742+562839016+559105083+554801023+550411937+546966220+545899105+548468877
732+555173050+565678679+579114940+594329825+609974407+624614239+637075703
722+646768638+653683259+658262727+661289782+663586445+665695847+667897533
713+670222571+671952524+671113886+665038428+651762170+630743294+602542665
703+568770169+532718316+499546784+475300225+465286166+472110768+493732941
693+523697348+554558588+581540013+603367904+620663093+634241755+644588890
683+651963093+656617899+659274175+661364004+664279464+668306408+672439364
673+675004604+674734582+672263597+671753505+677424620+685520610+690777464
663+692871759+693482017+693836376+694113754+693862780+692610473+690323334
653+687553952+685219652+684330767+685606392+688813024+692655334+695797860
643+697908969+699512351+701032250+702327580+703147563+703640250+704164726
633+704783327+705186159+705098275+704602568+703953228+703084442+701516004
623+698960485+695902821+693367335+692157327+692305179+693082535+693528324
613+692997673+691184237+687963418+683613446+678979856+674930317+671608609
603+668463653+665028510+661469884+658290642+655777685+654031049+653273464
594+653715509+655194751+657232361+659391288+661362821+662851981+663777254
584+664612935+666071946+668275669+670623761+672604622+674262652+675907873
574+677898783+680574568+683781134+686537839+687833694+687775171+687245046
564+686641355+685838449+685138008+685142935+685686394+686049160+686350184
554+687490042+689448177+690724064+689982440+687672772+685416569+684162488
544+683734302+683913222+684833963+686123315+686762212+686243121+685084214
534+684062125+683559061+683518009+683668422+683971680+684694453+685650991
524+685948140+685070946+683393080+681488609+679721546+678392849+677672703
514+677328197+676883985+676101638+675127365+674114012+673053235+672187865
504+671749498+670804717+667792769+663147356+659381501+658025086+658293203
494+658539185+657941275+656772516+655978543+656477929+658044923+658999818
484+657925577+655819525+655209267+656985525+659484426+660665599+660278530
475+659504722+659327641+659943942+661168729+662689416+663997554+664602755
465+664439533+663924514+663729174+664497137+666390574+668558958+669604891
455+669339861+669040873+669829788+671350738+672357261+672551025+673034713
445+674941549+677992776+680550462+681194087+680064935+678591605+678528287
435+680801370+684538916+687719932+689286203+690275517+692142023+694491824
425+695536574+694399868+691834825+689077200+687780688+689188204+691425162
415+691841919+689885886+686681488+683647010+681077829+678522179+676199505
405+675100041+676007317+678660638+681201312+680889319+678725861+681483945
395+690020667+696467561+696578894+693243720+689813176+685705836+680147301
385+677281891+682680488+693794142+701547663+700417460+691770259+682369152
375+680901471+686992298
##END=
