##TITLE=CMM-118
##JCAMP-DX=4.24
##DATA TYPE=INFRARED SPECTRUM
##DATE=1/12/2020
##SAMPLING PROCEDURE=Diamant-ATR
##ORIGIN=Angelika Moesle
##XUNITS=1/CM
##YUNITS=TRANSMITTANCE
##RESOLUTION=4
##FIRSTX=3997.453
##LASTX=373.96442
##DELTAX=-1.4165319
##MAXY=0.89753008
##MINY=0.55303878
##XFACTOR=1
##YFACTOR=8.3589002e-010
##NPOINTS=2559
##FIRSTY=0.79718202
##XYDATA=(X++(Y..Y))
3997+953692472+953051780+952415866+952104398+952226261+952509206+952609464
3988+952510276+952495230+952770760+953239602+953653609+953834800+953732617
3978+953501512+953458657+953683059+953848348+953746665+953592000+953524544
3968+953333442+952924212+952587929+952633423+953025111+953441899+953589291
3958+953418653+953045790+952580157+952110744+951768471+951762410+952257850
3948+952964928+953164801+952666367+952222339+952393975+952537800+951760913
3938+950198866+948654075+947771725+947913626+949131831+950794777+951843843
3928+951869442+951481961+951573875+952310260+952991312+953065827+952825024
3918+953024113+953919013+954754016+954669874+953782960+952770332+951790648
3908+950497499+949045336+948332410+948987292+950503988+952007278+953191042
3898+953822820+953434983+952047281+950652163+950659080+952024249+952359177
3888+950291565+947628042+946624898+946615842+945865266+945626603+947669043
3878+950066093+950361802+949530008+949403153+949942803+950717908+952201518
3869+953665945+953683202+953126581+953955879+956055722+957422316+956995759
3859+954968578+951837354+948974172+949524803+955299228+960941307+961833783
3849+959613147+956715309+954391421+953031244+952410874+952204940+952805629
3839+954950965+957895580+959424398+958831054+957506886+956706539+956280409
3829+955741758+955463376+955639860+955440772+954886219+955858701+958710830
3819+960382761+959953993+959834198+960903087+961270174+959857515+957351224
3809+955182498+954975210+956586315+957600441+957458326+958367060+960714694
3799+961674769+960612226+959607941+959556101+959550040+959145659+958829841
3789+958830341+958889525+958848310+958599663+957882245+956993763+957139300
3779+958982723+961166922+961887905+961095330+959757543+958713041+958572709
3769+959257896+959788561+959738504+959596603+959215611+957944140+956336670
3759+955897563+956717877+956948411+955432144+952966782+951704652+953687124
3750+957287190+958451416+957229503+957200838+960163207+962489164+961063955
3740+957275353+953744169+952634920+954850565+959012601+962421993+963316038
3730+961728748+959194148+957720236+958055450+958992635+959372486+959500268
3720+959794337+959806887+958842177+956708963+954227486+953355262+955606703
3710+959368636+961587989+961429117+959774585+958051742+957790973+959306242
3700+960908577+961088627+960132331+958784633+956971515+954368531+951886128
3690+951880067+955249028+958920330+960038349+959136532+957955050+957555232
3680+957779635+957886880+958319855+960678969+963757141+964007072+962084141
3670+961501422+963063540+964065829+963518264+962823236+962892689+963352761
3660+963418292+962990665+962960502+963854333+964280106+962855110+960680324
3650+960527585+963725624+967333035+968189002+966702825+964523547+962976261
3640+962692531+963253573+963704731+963675495+963343205+962412794+960470754
3631+958824422+960371994+964729695+967072195+965946403+963604474+962103537
3621+962349117+963883497+964650687+963383066+961650097+961547058+962905168
3611+964017126+964342499+964463649+964332516+963542579+962444668+961754490
3601+961665428+961737590+961653876+961741441+962410726+963239882+963285661
3591+962493585+962082145+963353973+965794234+967242974+966890077+965774839
3581+965032820+964955310+965119814+965021768+964603268+964224914+964054633
3571+963733967+963077445+962885915+964160239+966104847+966936783+966453679
3561+965697186+965298153+964942974+964142697+963065038+962464135+962900176
3551+964021618+964834445+964777970+964270194+964256788+965182422+966456247
3541+967154269+966957177+966272061+965684065+965431853+965339083+965119529
3531+964732761+964464434+964573034+964928997+965274835+965637930+966025197
3521+966114758+965803148+965592293+965909109+966477282+966740190+966548945
3512+966205817+966120534+966374743+966512793+966124599+965554572+965499452
3502+965983411+966363405+966268068+965853989+965369531+964937126+964647050
3492+964618955+964912597+965402831+965846573+966150340+966443625+966850217
3482+967322410+967708180+967874610+967756455+967383948+966905979+966501954
3472+966221148+966024127+966017781+966396278+967055366+967599437+967835177
3462+967899211+967894148+967787473+967637016+967550022+967471941+967289324
3452+967068273+967004952+967181080+967518504+967987061+968690360+969593532
3442+970336192+970539488+970189372+969590751+969090320+968939720+969220027
3432+969749836+970168479+970210764+969946501+969742563+969950850+970586693
3422+971341689+971904799+972226821+972483383+972839774+973254708+973453583
3412+973171565+972550411+972185178+972574513+973590635+974664016+975367600
3403+975679068+975823465+976015850+976264355+976381654+976282609+976207951
3393+976526051+977339376+978369759+979229220+979741702+980031636+980382679
3383+980990712+981717899+982139037+982020454+981696222+981740503+982339979
3373+983164928+983770608+984056905+984383204+985158951+986335014+987501665
3363+988387295+988968303+989298097+989498327+989690285+989841526+989924385
3353+990096805+990448989+990843387+991224450+991727092+992363291+992990007
3343+993637259+994524672+995791295+997454454+999505737+1001782207+1003890464
3333+1005536795+1006853190+1008183989+1009685782+1011373400+1013363501
3325+1015721974+1018198245+1020470365+1022527637+1024487077+1026190311
3316+1027271323+1027506564+1026938962+1025808606+1024299112+1022143508
3308+1018690975+1013701281+1007913522+1002720034+999494114+999050800+1001322706
3298+1005650886+1011635310+1019467292+1029225414+1040221280+1051271980
3289+1061246946+1069105883+1073694903+1073741823+1068051754+1055952416
3281+1038000073+1016451442+994900887+977064132+965182493+958693574+954043016
3271+946343093+932073461+910631149+883720604+853897817+824030820+797678251
3261+778752285+769680419+769698531+775428033+783230138+790879076+797563019
3251+803270558+808400441+813381791+818252545+822715709+826721297+830716332
3241+835060913+839494556+843507846+846969149+850081263+853016536+855866598
3231+858689420+861426104+863917421+866034663+867712868+868986764+870098152
3221+871451484+873276653+875313175+877028603+878278754+879505445+881113556
3211+882979940+884764036+886354534+887844419+889320184+890746320+891952618
3201+892841314+893615849+894626480+895999207+897523889+898857255+899793014
3191+900428786+901069121+901943628+903060221+904285129+905453990+906445083
3182+907246287+907950085+908643472+909306625+909855902+910288948+910700745
3172+911129726+911520630+911885151+912321477+912863623+913492549+914253464
3162+915128755+915885248+916326424+916628265+917154795+917945373+918626852
3152+918869866+918743510+918573087+918643681+919103324+919924850+920807486
3142+921351343+921528540+921771126+922393492+923175585+923697265+923839665
3132+923782905+923733418+923806792+924033405+924385376+924835821+925335325
3122+925700986+925669041+925172603+924474581+923950262+923756378+923775203
3112+923860486+924036329+924436645+925105717+925834615+926228371+926101089
3102+925775930+925772650+926283064+927186521+928327287+929458070+930221909
3092+930477829+930404811+930239593+930205223+930524749+931124154+931546361
3082+931491740+931207084+931142979+931519835+932300502+933237474+933885367
3072+933936423+933589872+933292879+933171158+933039668+932887999+932980840
3063+933473214+934193270+934813283+935081325+934946341+934594085+934376314
3053+934651416+935580686+936907492+937945790+938022659+937007250+935259378
3043+933127019+930810546+928707852+927461480+927421619+928314167+929638049
3033+931181484+932941408+934719942+936092455+936811727+937099664+937427105
3023+938013746+938603881+938746922+938274372+937509749+937010602+937087542
3013+937588115+938126767+938456632+938627269+938834986+939136329+939339482
3003+939215123+938718685+937978663+937219317+936668472+936367557+936143796
2993+935909411+935817496+935984853+936274288+936435940+936284556+935737133
2983+934903842+934126741+933719008+933666527+933720363+933693124+933501095
2973+933082096+932517774+932080592+931927068+931882430+931659668+931130571
2963+930380210+929686252+929357314+929434325+929663933+929800913+929776455
2953+929654378+929561109+929516114+929342411+928979031+928751349+928988943
2944+929553336+930070952+930395256+930538297+930444243+930178768+930089777
2934+930408519+930872512+931071244+930996443+930927204+930936546+930878502
2924+930795144+930991238+931646405+932522338+933116038+933119389+932770913
2914+932672224+933143776+933882586+934419384+934717731+935055298+935488986
2904+935804162+935872260+935753249+935527349+935281412+935171457+935276420
2894+935456327+935525210+935514656+935627963+935943353+936276498+936390589
2884+936280777+936157701+936187792+936365346+936592031+936735928+936673320
2874+936453482+936342600+936508816+936781707+936906779+936905210+936984147
2864+937239211+937615854+938024727+938368069+938571436+938676899+938824361
2854+939092261+939419345+939735235+940112091+940716915+941594987+942529748
2844+943191974+943468288+943587014+943830812+944217794+944583313+944843939
2834+945013792+945116117+945248677+945537326+945901419+946097227+946084250
2825+946080684+946219019+946395147+946494620+946540257+946570205+946523642
2815+946348156+946174667+946248826+946613203+946955547+946913405+946493907
2805+946041965+945776204+945537113+945118613+944656973+944412604+944296160
2795+944018919+943681638+943776690+944519707+945560002+946447344+947079051
2785+947586898+948046898+948446074+948762604+948960267+949024229+949059526
2775+949207202+949443299+949608446+949659074+949751131+950072796+950652663
2765+951302767+951754994+951906735+951838352+951578225+951081787+950480671
2755+950049407+949825076+949526514+948957129+948297755+947904284+947934091
2745+948259036+948688089+949158928+949668985+950126062+950373211+950349680
2735+950168062+950042562+950150235+950502562+950900953+951080717+950981316
2725+950841982+950925625+951206716+951467200+951624432+951765191+951911085
2715+951966847+951890691+951777813+951783375+952010986+952394331+952687260
2706+952687402+952448881+952190608+952086214+952232536+952647684+953168081
2696+953495308+953456375+953140913+952775751+952561260+952578160+952757996
2686+952956799+953067610+953045434+952896902+952718777+952665368+952811761
2676+953088004+953361537+953529535+953549287+953451027+953332087+953288447
2666+953343211+953452738+953556133+953600058+953570608+953519125+953486751
2656+953409098+953195392+952873656+952586432+952516622+952834793+953539875
2646+954323679+954783893+954784535+954490038+954163881+954053712+954271055
2636+954644703+954869034+954877020+954906898+955175796+955645779+956113266
2626+956393502+956413539+956246681+956056506+955910612+955697191+955346932
2616+955042452+955039172+955360623+955817557+956231921+956552944+956844232
2606+957164899+957393794+957303805+956937216+956733564+957093307+957879108
2597+958456907+958276928+957472017+956804657+956893505+957585752+958204766
2587+958260956+957744980+956923953+956129524+955687921+955774488+956195198
2577+956464096+956307292+956023491+956151487+956827974+957658342+958181591
2567+958288623+958168328+958019582+957956119+958108003+958577273+959292694
2557+960098746+960924479+961675696+962092912+961949871+961358595+960779655
2547+960676759+961053401+961405586+961366224+961224894+961446587+961932686
2537+962232245+962256775+962310398+962541717+962730110+962567887+962007415
2527+961348826+960983663+961014896+961237730+961486020+961780517+962104464
2517+962337138+962468770+962606321+962746510+962816819+962864879+962923779
2507+962806123+962277739+961317094+960096749+958930241+958252755+958335186
2497+958997127+959865787+960791349+961703862+962301984+962379351+962257845
2487+962388051+962697594+962802557+962612382+962276670+961861307+961482027
2478+961383124+961576152+961803121+961980889+962222904+962414434+962301841
2468+962027310+962109954+962794500+963723699+964357473+964493527+964248873
2458+963786662+963313185+963109747+963205797+963209933+962833362+962393613
2448+962445952+963056196+963756714+964125441+964168154+964157244+964273331
2438+964474773+964636711+964685841+964579523+964257073+963730758+963185689
2428+962851117+962747722+962699376+962610956+962558046+962590847+962669285
2418+962818744+963116165+963534236+963985181+964426284+964724632+964604694
2408+963996376+963278316+962923137+963021113+963371015+963888275+964639706
2398+965483836+965975924+965821046+965259433+964774903+964548433+964443683
2388+964365745+964330234+964321606+964371521+964589007+964844855+964637353
2378+963595845+962047775+960874778+960778300+961673557+962736242+963186259
2368+963152816+963489812+964571251+965736975+966273273+966381731+966619325
2359+966898491+966816346+966619824+966946409+967670102+967842593+966878953
2349+965157536+963640626+963278316+964219994+965476705+966074684+966095505
2339+966044592+965922373+965414026+964683845+964398831+964859545+965491323
2329+965466152+964585085+963344917+962415361+962151883+962402526+962758204
2319+962918074+962660372+961815101+960589337+959616427+959397087+959864503
2309+960622922+961369148+962007558+962513123+962747081+962442601+961472971
2299+960139248+959043762+958593816+958701061+959053246+959536064+960128267
2289+960528940+960302755+959398941+958227156+957288545+956938286+957336392
2279+958425532+960006760+961770106+963230469+963987177+964171933+964290944
2269+964605835+964995527+965309205+965482623+965462943+965306068+965197824
2259+965223994+965296441+965376305+965601135+966117254+966863266+967583821
2249+968109923+968555590+969008103+969054167+968164686+966725002+965930145
2240+966244180+966741973+966429934+965463371+964682276+964703953+965758937
2230+967653559+969582765+970511393+970059165+968898005+968207470+968704336
2220+970026721+971022948+970751269+969273935+967497896+966295164+965900410
2210+966143780+966909259+968014871+968970596+969402216+969534846+969778644
2200+970059094+970008181+969586401+969039692+968461608+967881812+967601576
2190+967982212+968939007+969962331+970679962+971299904+972359737+973844843
2180+974855617+974648614+973530951+972109236+970279575+967899496+965845147
2170+965254656+966031686+966902912+966736554+965359191+963560049+962997581
2160+965513214+971081063+976727278+979413477+979157058+977933576+976908469
2150+975587724+973365234+971175259+970705561+972220902+974194033+974999158
2140+974199024+972522031+971197008+970945652+971410714+971875278+972098041
2130+972125137+972080000+972356100+973188179+974100478+974433695+974105185
2121+973369013+972392538+971451858+970971678+971015033+970996137+969979801
2111+967123250+962058186+955393139+948949357+944842656+943791593+944757230
2101+946581044+949247348+953058768+957385736+960924693+962893901+963607112
2091+963999157+964730479+965709450+966423517+966647563+966731705+967206323
2081+968081970+968699131+968572704+968200268+968533699+969777575+971164635
2071+971825506+971452215+970172614+968361850+966876101+966851643+968558870
2061+970799187+972116937+972236305+971701718+970615430+968600941+965847144
2051+963505714+962826231+963837718+965109475+965435775+965158106+965075034
2041+965099135+964880295+964819684+965595502+967349721+969794902+972398742
2031+974251078+974713432+974377791+974460007+975267485+976135075+976526264
2021+976244888+975046720+973218556+972005342+972300267+973527956+974754219
2011+975884432+977029263+977752028+977580821+976567480+975022618+973330508
2002+972076791+971804970+972550910+973779455+974738032+974866099+973993661
1992+972445875+970988721+970333982+970695008+971964626+973997440+976354772
1982+978086600+978239767+976587588+974067606+972641113+973692817+976138712
1972+977395280+976604203+975481976+975624804+976507368+976764001+976154970
1962+975562410+975791947+976555286+976626379+975364748+973655239+972829363
1952+973244298+974381998+975590505+976227489+975849492+974735608+973740094
1942+973454653+973801061+974386276+974907957+975316188+975726060+976061344
1932+976003086+975441688+974433695+972552978+968900430+962843844+954534391
1922+945161326+936887455+932113108+932167515+935989203+941032234+945932651
1912+950864016+955885726+960186525+962878998+963998444+964507646+965407751
1902+966845368+968083040+968448559+968184367+968153990+968812509+969754971
1892+970398942+970663063+970718397+970586408+970325496+970199568+970393309
1883+970840688+971406935+972003417+972523029+972861024+972953794+972746719
1873+972302049+971973396+972259123+973267401+974423498+975089005+975111252
1863+974677279+974152033+973884276+973846911+973686257+973281306+972919780
1853+972843910+972997719+973204794+973290219+973229109+973360599+974007066
1843+974715286+974833156+974553847+974443321+974638488+974772616+974450381
1833+973699948+973008129+972849401+973083073+973271893+973441746+973772681
1823+974020401+973854969+973386198+972973546+972731031+972385835+971684319
1813+970772447+969982938+969342889+968473231+967000175+964860614+962288150
1803+959696290+957544964+956132519+955300012+954438198+953081657+951538150
1793+950884481+951882919+953699816+955126879+956292389+957857003+959737506
1783+961225893+962094980+962729183+963270473+963433551+963140195+962847338
1773+963202731+964171933+964761783+964527683+964066827+963757783+963510420
1764+963523897+964118096+964812910+964912597+964685199+964609400+964504294
1754+964254649+964381504+965234547+966179220+966406617+965998813+965359191
1744+964610898+963811834+963160731+962636412+961877209+960948794+960627201
1734+961180114+961170986+959735153+957749116+955941559+954364538+953021831
1724+952001288+951096405+950098609+949505621+950398097+952889913+955138645
1714+955966517+955975430+955881020+955816986+955751812+955846436+956058003
1704+955959957+955680648+956124247+957385308+958045966+957871407+957704335
1694+957147357+955644780+953797934+952182479+950442735+948128901+945630596
1684+943429283+940872507+937434806+933749955+930559404+928395599+927438662
1674+927066084+926680599+927246775+930414437+935470517+939316450+941149391
1664+942753509+945563710+948964474+951291999+951961142+951335639+950284292
1655+950877564+955067267+958987073+959140739+957931090+958029351+959660138
1645+960801118+960756409+960303325+959867498+959591897+960164277+962442458
1635+965197610+966083882+965337300+964420009+964112463+964270550+964491887
1625+964875660+965582168+966028691+965672799+965117390+965532253+966964236
1615+967707253+966910471+965273338+963444604+961507055+959256969+956645500
1605+954128441+952613314+952813187+954526333+956807580+958876191+960579425
1595+962039004+963192819+963894478+964247162+964509500+964789093+965014138
1585+965088368+964956451+964580949+963931843+963168646+962990451+964332659
1575+966517000+967480997+967093658+966893642+967910691+969334118+969952776
1565+969798682+969183660+968168038+967474294+969168187+973445169+975916021
1555+975874592+975374303+975259071+975449603+975690406+975714223+975519484
1545+975507433+975882792+976464941+977862554+980884750+983487163+984008844
1536+983638619+983965774+985274468+986427784+986893061+987356484+988413750
1526+989700624+990743700+992142597+994537222+997062124+998862835+1000217236
1516+1000516939+997480767+989142007+975693401+959685380+945097720+937038697
1506+938137178+943507364+949903299+957718668+964293511+959827566+934178652
1496+895673407+867059199+858074685+864114014+878053710+894004827+908017256
1486+918711993+926390880+932004222+936341815+939625993+941974981+943808493
1476+945619115+947848023+950729317+953409811+954447682+953860470+952871017
1466+952677918+953541729+954391136+954223137+953290444+952803561+954196825
1456+956865196+958351444+958416405+958151072+958203482+958752331+959646803
1446+960433246+960857379+961157795+961516183+961752493+961915715+962664793
1436+964297362+965660819+965814485+965367249+965316265+965858696+966392855
1426+966606775+966734200+966816275+966645709+966523489+967207820+968575770
1417+969467675+969551104+969380325+969268444+968637522+965284676+955402123
1407+936751401+914225725+899344352+898720061+908380065+920565684+929941602
1397+935440854+938585555+940543782+941271254+940627069+939023593+937012028
1387+934755952+932076813+929066453+926324208+924539612+923871610+923799163
1377+923704467+923279835+922250664+920324596+917749850+915358505+913888301
1367+913453615+913809293+914975944+917047050+919461356+921321608+922365611
1357+922942982+923476499+924217234+925293183+926829274+928927904+931543652
1347+934453540+937307737+939759693+941766837+943710018+945892577+947961401
1337+949312950+949938953+950260047+950494005+950624069+950720547+950942311
1327+951282872+951551057+951636554+951674132+951900674+952383849+952933482
1317+953322746+953550428+953762281+953948677+953898049+953507858+952991454
1307+952658594+952563328+952487814+952236814+951803412+951265259+950707141
1298+950262971+950022453+949808176+949220679+948002331+946275780+944387076
1288+942611751+941088495+939915498+939117290+938472320+937539627+935984069
1278+933811921+931235178+928403871+925322561+921800575+917118713+909786591
1268+898486959+884131402+870555158+861865996+858814992+858554294+857802863
1258+855331369+851622203+847453822+843326370+839651503+836956961+835740039
1248+836150695+837960319+840863433+844637203+849005458+853581928+858053150
1238+862298828+866287517+869957892+873271804+876335572+879352563+882402569
1228+885319801+887871016+890025195+891975864+893921826+895901018+897826943
1218+899611253+901237904+902763585+904249832+905712763+907195801+908831936
1208+910573034+911791097+911579316+909846703+907842483+907103388+907993439
1198+909636348+911059632+911960237+912518926+912972579+913443632+913914114
1188+914260166+914341385+914081828+913488484+912634870+911626450+910595496
1179+909727264+909237244+909275607+909841498+910793800+911975282+913326903
1169+914837395+916404790+917889183+919322450+920889988+922644491+924417820
1159+926105938+927814449+929583428+931203233+932500518+933582527+934601216
1149+935489485+936129963+936607219+937088825+937562017+937886820+938068010
1139+938263106+938484656+938514747+938207058+937660920+937014595+936269367
1129+935422385+934628527+934122605+934004592+934180720+934528127+935008449
1119+935582326+936120265+936422606+936254821+935281840+932589509+926161771
1109+914191355+898427347+885218546+880970158+886498788+897088347+907406014
1099+915015448+920005213+923218155+925327695+926777220+927918485+928959208
1089+929787365+930122507+929989663+929816458+929917571+930091346+929905806
1079+929237946+928360160+927590830+927004332+926451562+925791047+925086607
1069+924562573+924357423+924390011+924507952+924696701+925105788+925898649
1060+927038131+928187668+928947300+929295277+929628422+930238167+930965710
1050+931505859+931776968+931857045+931824529+931772618+931813762+932018769
1040+932364536+932701246+932854984+932844502+932848424+932922797+932983193
1030+933147199+933882230+935595661+938172403+941110030+943583805+943652331
1020+938601385+928395599+918206356+914543825+918679120+926193788+932558062
1010+936681592+939552760+942016767+944259081+946091166+947289834+947904712
1000+948246557+948615570+949116286+949649732+950082636+950453503+950938959
990+951636696+952436188+953094778+953510853+953912310+954555284+955300083
980+955784898+955912751+955882303+955867971+955872249+955859129+955758230
970+954735975+950518035+941131707+928510118+918736237+916794410+921977488
960+929662578+936180020+940659228+943641920+945722582+947280635+948534137
950+949589977+950480100+951172774+951679837+952169287+952818321+953558415
941+954085301+954196611+954084160+954138709+954389567+954368246+953691758
931+952573525+951604394+951242726+951601257+952486032+953537664+954488969
921+955323686+956116546+956837815+957465956+958165119+959132182+960317872
911+961456998+962314320+962765406+962779026+962517829+962362166+962615020
901+963189325+963731328+964072888+964431133+965080524+965960165+966764078
891+967317847+967672883+967895146+967948270+967782054+967422240+966964807
881+966530620+966250027+966257657+966567913+966917316+966912325+966463734
871+965917238+965657610+965698968+965709379+965356696+964629224+963812761
861+963098552+962297563+961054257+959270589+957232712+955372674+953883289
851+952524537+950852892+948519733+945108986+939738016+930942749+916813663
841+895274802+864659939+824574820+777186672+728725642+688947428+666594813
832+664102213+677167687+699057663+724400528+749869536+773368264+793392569
822+809033003+820633978+830118211+839914839+851380402+864308682+877516413
812+889653116+899933204+908500573+915992066+922752165+928682110+933739616
802+938195150+942280460+945897141+948939017+951748719+954886433+958410700
792+961722473+964281960+966199186+967934579+969760532+971728386+973765051
782+975552784+976724640+977383087+978008091+978755030+979357715+979854082
772+980830058+982648167+984896257+986962942+988751459+990423960+991836263
762+992687809+992945939+992818157+992616787+992805465+993828575+995764412
752+998351993+1001325986+1004556826+1007891061+1011028346+1013695078+1015894750
742+1017801423+1019487472+1020934002+1022145932+1023102442+1023820073
734+1024547759+1025736087+1027802202+1030835522+1034350662+1037523315
725+1039883713+1041528904+1042578041+1042740905+1041422371+1038022320
717+1032021211+1022714675+1009126451+990749975+968518083+944837735+922593935
707+903873903+889387855+878887072+871720026+866971064+863711701+861450491
697+860044464+859206395+858502169+857700466+856808989+855984825+855404102
687+854741377+852790779+847898277+838575340+823744381+803341366+779600835
677+757383419+742073848+736524824+739489048+747527250+758937194+773903565
667+789063605+799311818+805494617+810448800+815366616+820281794+824875236
657+828635315+831035359+831839201+830980381+828100300+822273322+812515200
647+798834776+782335808+764205198+745245931+726375941+709007814+694740607
637+684791454+679713625+679287424+682547215+688288553+695419305+702425412
628+706856845+706137501+699522156+689453920+680608597+677037623+679897097
618+687687936+698222518+709966249+721882899+733122349+743276580+752387093
608+760615257+768285444+775895377+783595799+791001724+797706845+803560064
598+808494067+812603406+816319988+820120783+824129509+828180377+832109667
588+835906754+839782351+844056552+848802233+853759411+858655051+863274733
578+867363180+870933939+874341834+877532813+879774414+880637012+880795599
568+881643508+884151582+887882853+891343800+893690364+895474960+897332288
558+899035023+900142418+900083162+896669063+884718400+857108477+810213844
548+751053799+697145856+665567853+661616672+678549114+705845785+735455436
538+762667823+785124617+802264990+814909611+824405324+831835707+837968805
528+843455150+848734991+853983172+859208677+864204075+868650482+872537415
518+876189465+879658113+882572136+884941305+887655527+891856781+897764336
509+904273506+910080661+915037411+919577443+922547799+920009563+906389108
499+877098056+832106744+779834151+735545568+711818871+710305099+722978671
489+740455897+758073312+775223810+792028827+807441863+819887182+829066792
479+836159680+842225535+847411893+851789132+855831586+859818849+863566877
469+866860110+869494398+871159340+871722664+871428381+870905844+871166471
459+873166341+876803060+880557648+882903570+883362858+882304023+880950049
449+880921812+882936657+886151667+889195825+891805155+894695220+897882063
439+900224920+900872528+900520986+900745673+901895781+902730855+902418103
429+901658258+901593226+902842379+905810453+910280391+914637807+916872206
419+916229090+913959893+911957171+911094501+911383293+911913816+911369246
409+909753576+908524532+908726188+910557061+914285266+919529097+924049663
399+924744548+920845777+915939798+913571485+913277059+913322625+913368047
390+914156985+916148513+919071308+921910388+922331526+918567382+913002885
380+910895769+915859364+926287413+933764930+930734034
##END=
