##TITLE=X7494
##JCAMP-DX=4.24
##DATA TYPE=INFRARED SPECTRUM
##DATE=29/10/2018
##SAMPLING PROCEDURE=Diamant-ATR
##ORIGIN=ComPlat
##XUNITS=1/CM
##YUNITS=TRANSMITTANCE
##RESOLUTION=4
##FIRSTX=3997.453
##LASTX=373.96442
##DELTAX=-1.4165319
##MAXY=0.92182451
##MINY=0.76429826
##XFACTOR=1
##YFACTOR=8.5851598e-010
##NPOINTS=2559
##FIRSTY=0.90423632
##XYDATA=(X++(Y..Y))
3997+1053255078+1053675809+1053968932+1053774951+1053169335+1052459785
3989+1051962962+1052019545+1052806021+1053914570+1054565522+1054504912
3980+1054227619+1054130351+1054031902+1053698581+1053296595+1053136010
3972+1053252648+1053381019+1053266742+1052930504+1052547472+1052193531
3963+1051928179+1051896103+1052078003+1052239770+1052279204+1052211790
3955+1051921375+1051435521+1051194122+1051573821+1052381332+1053032840
3946+1053099907+1052752353+1052781513+1053761829+1055059638+1055623251
3938+1055389488+1054833513+1054010033+1053020204+1052691187+1053549312
3929+1054630715+1054706807+1053836533+1052995141+1052806854+1052852120
3921+1052344258+1051212520+1050269347+1050365435+1051425523+1052747424
3912+1053951922+1055038463+1055798694+1055728017+1054638144+1053137815
3904+1052270109+1052442498+1053160656+1054041761+1054966397+1055519318
3895+1055285278+1054428542+1053734336+1053910404+1054526921+1054603499
3887+1053936162+1052904191+1051714273+1050500054+1049945676+1050722084
3878+1052127228+1052953623+1053103379+1053026036+1052855106+1052755755
3870+1053283404+1054335926+1054907384+1054647169+1054127712+1053774049
3861+1053376368+1052791302+1052243796+1051871179+1051610964+1051596176
3853+1052288230+1053507100+1054548929+1055304092+1055731836+1055489047
3844+1054319402+1052562677+1051014582+1050319404+1050815047+1052383554
3836+1054077516+1054937585+1054889888+1054434096+1054030861+1053901795
3827+1054092790+1054295380+1053925470+1052945362+1052244629+1052535461
3819+1053084841+1053356511+1053999341+1055149755+1055823133+1055489881
3810+1054450759+1053272574+1052707364+1053031660+1053230778+1052487348
3802+1051627072+1051956714+1053195648+1054479779+1055732391+1056754364
3793+1057053250+1056782135+1056651125+1057075605+1057843752+1058423819
3785+1058345157+1057466066+1056060089+1054681258+1054021558+1054389385
3776+1055206061+1055679140+1055562224+1055116222+1054786441+1054807061
3768+1054936960+1054900441+1054868088+1055069497+1055293887+1055172874
3759+1054714514+1054335717+1054273441+1054173326+1053471553+1052051343
3751+1050675706+1050123757+1049850699+1049354500+1049202801+1049921098
3742+1050731179+1050728610+1049916447+1048700562+1047843202+1048193325
3734+1049652761+1051434618+1053179610+1054613775+1055433783+1055789946
3725+1056070434+1056183670+1055836255+1055362412+1055313118+1055597910
3717+1055625056+1054960912+1053714063+1052653141+1052824627+1054288715
3708+1055937549+1056934876+1057143644+1056995972+1057267017+1058183113
3700+1058890649+1058723398+1058060157+1057563542+1057496475+1057768284
3691+1058315650+1059212307+1060110838+1060160618+1059246674+1058013363
3683+1056929946+1056039052+1055178915+1054171035+1053057348+1052536225
3674+1053145243+1053691916+1053030549+1051740863+1051601106+1053149826
3666+1054979449+1055856250+1055495504+1054235117+1052470269+1050520605
3657+1049153091+1049202107+1049827788+1049035481+1046173192+1042606908
3649+1040739724+1041041109+1041799535+1042314757+1042600382+1042541091
3640+1042261506+1042164446+1042210199+1041751908+1040328713+1038137233
3632+1035550988+1032859491+1031065345+1031486284+1033160182+1034261441
3623+1034439661+1034233809+1034270744+1034837412+1035583549+1035904096
3615+1035740386+1035582161+1035833489+1036368358+1037064369+1038184791
3606+1039568412+1040434312+1040534010+1040354887+1040203188+1039785859
3598+1038846088+1037677692+1036914059+1037049790+1037846956+1038499089
3589+1038624336+1038792282+1039859799+1041657209+1043230645+1043971298
3581+1043949081+1043797312+1043966785+1044052042+1043525642+1042712854
3572+1042165974+1041702267+1041002160+1040676337+1041671511+1043295421
3564+1043948387+1043522032+1042961474+1042970708+1043590904+1044388418
3555+1044823382+1044688692+1044378351+1044417300+1044705355+1044784086
3547+1044553934+1044225403+1043976991+1044163612+1045260081+1047022638
3538+1048317183+1048326070+1047539734+1046967443+1046858233+1046821576
3530+1046586633+1046163819+1045653527+1045278757+1045438787+1046375295
3521+1047682894+1048497973+1048411050+1047945607+1047881248+1048225192
3513+1048230677+1047419972+1046255047+1045624090+1045798908+1046315032
3504+1046797484+1047333326+1047952064+1048284969+1048120287+1047846395
3496+1048003510+1048586076+1049070750+1049060128+1048641827+1048227622
3488+1048197352+1048565803+1048913427+1048786722+1048184577+1047533416
3479+1047188986+1047226894+1047662135+1048446874+1049251192+1049671437
3471+1049655607+1049340892+1048668070+1047644778+1046726043+1046345719
3462+1046293163+1046109110+1045891733+1046166110+1047072973+1048073840
3454+1048518593+1048371754+1048204433+1048436668+1048787972+1048660711
3445+1047918045+1046964596+1046220264+1045852576+1045815640+1045906035
3437+1045883332+1045694281+1045530571+1045571116+1045741700+1045837649
3428+1045828137+1045850493+1045861601+1045526127+1044688762+1043777803
3420+1043357628+1043445384+1043715735+1044052042+1044382448+1044408900
3411+1044069607+1043886318+1044370020+1045396714+1046458192+1047175725
3403+1047368942+1046963902+1046093142+1045107896+1044296913+1043640892
3394+1043016600+1042564765+1042577332+1043032846+1043535362+1043719068
3386+1043503356+1043079709+1042892186+1043411920+1044539215+1045431567
3377+1045345685+1044526440+1043864865+1043868198+1044263449+1044439170
3369+1044095712+1043557857+1043326038+1043334370+1043196834+1043197459
3360+1044053292+1045498356+1046226512+1045633809+1044614544+1044187773
3352+1044276779+1044294899+1044164376+1044240191+1044615585+1044898502
3343+1044644189+1043885624+1043122477+1042696955+1042371271+1041784192
3335+1041117965+1040948493+1041552026+1042620724+1043562786+1043960259
3326+1043833762+1043554177+1043461839+1043547096+1043501065+1043111646
3318+1042542965+1042143271+1042120776+1042509571+1043143999+1043542930
3309+1043262373+1042530538+1042115292+1042459513+1043252862+1043812100
3301+1043721706+1043139695+1042474024+1041846468+1041151013+1040527901
3292+1040316216+1040587330+1041106648+1041661097+1042101753+1042210754
3284+1041892707+1041488222+1041592711+1042402583+1043407199+1043943318
3275+1043912770+1043695393+1043510924+1043279591+1043009032+1042827757
3267+1042663353+1042398417+1042327254+1042893782+1043914506+1044598437
3258+1044422924+1043641170+1042884826+1042458125+1042074676+1041365197
3250+1040612186+1040560879+1041394078+1042395501+1042880175+1043067976
3241+1043612357+1044482632+1044837615+1044156669+1043036873+1042455348
3233+1042588371+1042785128+1042421884+1041466700+1040429661+1039969148
3224+1040361691+1041202320+1041760517+1041731982+1041501136+1041540501
3216+1041810158+1041994349+1042034964+1042092519+1042185413+1042181803
3207+1042058153+1041972687+1042030868+1042047461+1041750172+1041301115
3199+1041299796+1042096199+1043343742+1044336556+1044627249+1044336973
3190+1043909577+1043510091+1042921831+1042173333+1041738578+1041832166
3182+1042073635+1042103072+1042026980+1042085021+1042256160+1042350165
3173+1042265116+1042057736+1041892985+1041978172+1042388558+1042920304
3165+1043317776+1043596389+1043808907+1043682688+1042987857+1041993099
3156+1041065200+1040268103+1039725457+1039731844+1040222975+1040769994
3148+1041135669+1041293478+1041156428+1040757845+1040309134+1039895346
3139+1039583686+1039695950+1040376063+1041159205+1041479752+1041319791
3131+1041052842+1040980013+1041196765+1041601875+1041972340+1042177915
3122+1042308856+1042546575+1042944326+1043324164+1043437261+1043222383
3114+1042761106+1042023092+1040951478+1039806132+1039134907+1039284384
3105+1040022329+1040741460+1041050690+1041041387+1040919472+1040686126
3097+1040383561+1040281572+1040505753+1040757150+1040659327+1040227349
3088+1039850982+1039860216+1040124388+1040112446+1039388734+1037981785
3080+1036255330+1034541095+1032942179+1031477744+1030353504+1029851613
3071+1029837449+1029711855+1029085271+1028214025+1027636111+1027645067
3063+1028106413+1028543390+1028515341+1028013519+1027263493+1026285120
3054+1025129013+1024301020+1024326292+1025037785+1025768718+1026177160
3046+1026536517+1027172751+1027885008+1028195488+1028073990+1027969293
3037+1028112800+1028336843+1028575257+1028950443+1029411442+1029761079
3029+1029945687+1030036567+1030102940+1030163898+1030132377+1029969917
3020+1029876468+1029945756+1029817038+1029243913+1028743202+1029051599
3012+1030163064+1031403596+1032249987+1032745769+1033254742+1033967485
3003+1034658011+1035012647+1035049999+1034948774+1034696474+1034276507
2995+1033915692+1033807802+1033867787+1033957626+1034041842+1034078499
2986+1034041911+1033966652+1033805996+1033437822+1032832136+1032034900
2978+1031203853+1030806380+1031307300+1032484374+1033552517+1034069543
2969+1034260191+1034453825+1034635378+1034612605+1034411821+1034322190
2961+1034500202+1034754446+1034917809+1035150738+1035604378+1036069750
2952+1036222630+1036001017+1035632912+1035469272+1035731569+1036221797
2944+1036384813+1035877506+1034962381+1034193541+1033926314+1034295183
2935+1035312782+1036664953+1037703589+1038003585+1037795719+1037729554
2927+1038334338+1039589449+1040913779+1041797799+1042371618+1043005769
2918+1043590835+1043684770+1043140667+1042244566+1041427751+1040950992
2910+1040709315+1040453058+1040244706+1040375091+1040843240+1041321249
2901+1041562579+1041512522+1041185240+1040738127+1040490826+1040604687
2893+1040861153+1040937870+1040831160+1040843171+1041182810+1041704072
2884+1042066484+1042118694+1042103697+1042391405+1042962169+1043316249
2876+1043020210+1042197702+1041425251+1041269873+1041854938+1042702440
2867+1043087485+1042712091+1041982199+1041598890+1041930059+1042753886
2859+1043551331+1044052181+1044454861+1045087276+1045919851+1046495683
2850+1046386682+1045676924+1044859068+1044300037+1044019758+1043889720
2842+1043782871+1043651237+1043628812+1043859033+1044184232+1044319199
2833+1044282819+1044296496+1044359398+1044291359+1044111264+1044070301
2825+1044316491+1044725975+1045052423+1045094913+1044742291+1044097725
2816+1043582712+1043619300+1044143547+1044697232+1045006809+1045212454
2808+1045561952+1046101404+1046649256+1046937658+1046795332+1046288580
2799+1045713235+1045401644+1045475515+1045789258+1046096960+1046215126
2791+1046107722+1045949705+1046022465+1046423270+1046959459+1047354987
2782+1047454546+1047280492+1046996255+1046766242+1046614196+1046432643
2774+1046088282+1045584238+1045201068+1045296253+1045896245+1046745066
2765+1047698376+1048682581+1049393519+1049510296+1049142677+1048726181
2757+1048550807+1048551363+1048467911+1048176315+1047879304+1047884789
2748+1048233246+1048701257+1049090676+1049302985+1049219603+1048771517
2740+1048163471+1047846812+1048126744+1048821366+1049423303+1049613395
2731+1049473568+1049198427+1048860870+1048542545+1048403482+1048480477
2723+1048635509+1048793387+1049033537+1049400600+1049805849+1050100430
2714+1050136463+1049866042+1049503700+1049429621+1049813208+1050468048
2706+1051103310+1051532650+1051627766+1051326103+1050751660+1050168469
2697+1049794671+1049735033+1049972891+1050335442+1050622455+1050798732
2689+1050883294+1050740621+1050280108+1049788283+1049728298+1050162567
2680+1050620720+1050636827+1050254975+1049851462+1049617353+1049469681
2672+1049363665+1049375606+1049520779+1049717398+1049893605+1050027322
2663+1050152014+1050299617+1050361338+1050142919+1049660190+1049236265
2655+1049236612+1049775717+1050610167+1051277296+1051468360+1051290348
2646+1051067694+1050991740+1051085953+1051323534+1051631237+1051895131
2638+1052019962+1051910891+1051543620+1051197176+1051344710+1052060855
2629+1052834625+1053223488+1053354359+1053476829+1053411429+1052862743
2621+1052052524+1051556533+1051547994+1051652274+1051633390+1051711287
2612+1052005590+1052256293+1052368488+1052608777+1053031243+1053356581
2604+1053539245+1053807790+1054102996+1054071476+1053668588+1053331448
2595+1053433159+1053817996+1054067380+1054101608+1054227549+1054598014
2587+1054951678+1054996945+1054790120+1054593363+1054462700+1054184712
2578+1053719131+1053449753+1053701150+1054267678+1054789912+1055247440
2570+1055665671+1055828756+1055820425+1056288922+1057512374+1058646334
2561+1058588917+1057292844+1055631027+1054357448+1053760580+1053864582
2553+1054406186+1054929462+1055162252+1055026730+1054450412+1053657271
2544+1053323811+1053872775+1054892040+1055650952+1055857222+1055692748
2536+1055496754+1055555698+1055907834+1056358558+1056818724+1057379976
2527+1057955530+1058248375+1058158258+1057791542+1057149685+1056335091
2519+1055885340+1056277466+1057229665+1057963722+1058021972+1057600825
2510+1057347553+1057875897+1059146976+1060377926+1060823789+1060433954
2502+1059546115+1058382093+1057174609+1056375984+1056295865+1056712777
2493+1057128579+1057292983+1057282708+1057264587+1057432741+1058014057
2485+1059047972+1060180057+1060817055+1060560243+1059608461+1058733743
2476+1058573713+1058892316+1058881415+1058237614+1057541048+1057496683
2468+1058108895+1058722357+1058808378+1058594263+1058667023+1059049985
2459+1059221333+1059027977+1058815182+1058641266+1058274897+1057962820
2451+1058213314+1058786855+1058843508+1058154162+1057366715+1057062136
2442+1057211614+1057528481+1057783350+1057747664+1057278681+1056570173
2434+1056080292+1056132294+1056670287+1057394069+1058023013+1058438607
2425+1058672508+1058787827+1058759223+1058601484+1058586904+1058973754
2417+1059456761+1059393999+1058711665+1058040231+1057907069+1058289476
2408+1058906618+1059510637+1060005655+1060431107+1060661398+1060315858
2400+1059332208+1058270314+1057671432+1057527440+1057644842+1058048563
2391+1058791229+1059686636+1060314677+1060166727+1058990764+1057114207
2383+1055164335+1053421079+1051761692+1050204710+1049000489+1048083629
2374+1046976191+1045425041+1043685951+1042064609+1040488327+1038567198
2366+1036120433+1033852582+1032948566+1033532799+1034439037+1034988278
2357+1035798497+1037404634+1039373598+1041070616+1042324824+1043180935
2349+1043557371+1043247655+1042209505+1040981054+1040450489+1040833521
2340+1041428306+1041583060+1041487111+1041800021+1042705912+1043724969
2332+1044403901+1044672932+1044471176+1043668385+1042546575+1041819600
2323+1042008790+1043062214+1044625513+1046347177+1047805433+1048583438
2315+1048646756+1048395914+1048231302+1048283719+1048627039+1049447464
2306+1050790678+1052300033+1053454196+1054077725+1054481654+1055073107
2298+1055934842+1056748810+1056998610+1056406116+1055403096+1054920644
2289+1055449751+1056605234+1057737875+1058482971+1058614258+1058091747
2281+1057413231+1057225916+1057516540+1057754329+1057691358+1057513554
2272+1057391987+1057272224+1056983614+1056463949+1055947061+1055782309
2264+1055970111+1056108549+1055852362+1055195438+1054256500+1053069081
2255+1051858960+1051332421+1052011492+1053275351+1054029125+1054422155
2247+1055651369+1057883117+1059821256+1060662856+1061002149+1061318461
2238+1060966046+1059457039+1057781544+1057421493+1058517268+1059901584
2230+1060638210+1060752487+1060815458+1061438640+1062790394+1064301276
2221+1065123922+1064664520+1062610229+1059410870+1056835525+1056744297
2213+1059114067+1062237542+1064814553+1066913000+1068873703+1070180399
2204+1069886512+1067836526+1064878149+1062007668+1059867495+1058707430
2196+1058220951+1057799873+1057145449+1056158607+1054642865+1052781374
2187+1051327770+1050813242+1051261119+1052820114+1055690318+1059327696
2179+1062480400+1064089522+1063802786+1061902971+1059425658+1058200123
2170+1059637204+1062986596+1065666568+1065866311+1064274338+1063301380
2162+1064809277+1067766543+1068571277+1065716695+1062188318+1061234245
2153+1063465854+1067695518+1071535485+1072346607+1069703848+1065906926
2145+1063185714+1061807578+1060909741+1059703160+1058163882+1057494670
2136+1059179746+1062960491+1066657507+1068430339+1068298566+1067357962
2128+1066442004+1065619218+1064522194+1063171690+1062321619+1062460821
2119+1062853156+1062553507+1061988228+1062240597+1063135518+1063422115
2111+1062675561+1061792304+1061644492+1062157701+1062742975+1063096014
2102+1063330540+1063490987+1063324986+1062728534+1062072860+1061827503
2094+1062101395+1062709233+1063388581+1063837500+1063851594+1063608250
2085+1063496888+1063422393+1062770537+1061593255+1061173843+1062510045
2077+1064831147+1066591273+1067303253+1067360600+1066877940+1065883807
2068+1065037624+1065176340+1066359455+1067653931+1067779526+1066149784
2060+1063445790+1061098028+1060231434+1060960492+1062050088+1061349009
2051+1057763007+1053233625+1051741905+1055423091+1062304679+1068631332
2043+1072400275+1073741823+1072922925+1069777372+1065223620+1061575690
2034+1060385077+1061208765+1063173703+1066015303+1068754635+1069546040
2026+1068171722+1066826563+1067044149+1067494109+1066274961+1063792441
2017+1061797094+1061218971+1062300166+1064687084+1066406249+1065539307
2009+1063517439+1063513551+1065397953+1065931434+1063997391+1062188040
2000+1063202377+1066676600+1069571103+1069257499+1066154921+1063041930
1992+1061959832+1062456933+1063046720+1063007563+1062186166+1060557743
1983+1058645154+1057558752+1058326134+1061394900+1066055293+1069968090
1975+1070895572+1069293254+1067321512+1065691770+1063638173+1061592005
1966+1061255629+1062685975+1063907830+1063724402+1062977848+1062977154
1958+1063754673+1064002946+1062387506+1059243341+1056926058+1057749469
1949+1061529312+1065627619+1067439400+1066534412+1064488869+1063208070
1941+1063403022+1064476858+1065539863+1066077579+1066083966+1065866450
1932+1065610471+1065284161+1064943203+1064692291+1064381534+1063843540
1924+1063316377+1063126354+1063145863+1063146974+1063389831+1064208104
1915+1065156067+1065380735+1064795114+1064298429+1064626682+1065421697
1907+1066049877+1066562114+1067098927+1067296449+1066947506+1066484147
1898+1066341959+1066460472+1066596897+1066648204+1066587733+1066320853
1890+1065768765+1065317972+1065911022+1067983226+1070491295+1071694822
1881+1071144400+1070092226+1069777719+1070222541+1070744012+1070904736
1873+1070757203+1070504973+1070120691+1069438080+1068743110+1068678612
1864+1069374068+1070246216+1070538159+1069975657+1068980483+1068291137
1856+1068396042+1069217856+1070218931+1070807538+1070723739+1070139923
1847+1069489109+1069233060+1069636434+1070421243+1070966110+1071054839
1839+1070916747+1070723531+1070277112+1069293879+1067810074+1066171931
1830+1065001175+1064980763+1066123401+1067729607+1069055673+1069726412
1822+1069750434+1069350601+1068959724+1069004505+1069382607+1069567354
1813+1069261873+1068534133+1067579921+1066719228+1066303774+1066343209
1805+1066497754+1066554130+1066677363+1067090527+1067699128+1068209907
1796+1068431867+1068376811+1068266698+1068390904+1068753871+1069144540
1788+1069470572+1069646432+1069512784+1069152316+1068989856+1069289227
1779+1069819029+1070217126+1070382016+1070321892+1069999887+1069576032
1771+1069501328+1069984960+1070755675+1071340464+1071438009+1071137596
1762+1070763451+1070529828+1070391459+1070261143+1070090629+1069768277
1754+1069149817+1068075148+1066437700+1064547119+1062898145+1061263891
1745+1058955495+1055748151+1051871734+1047390604+1042476315+1037882364
1737+1034012057+1030466324+1027229751+1025390894+1025443589+1026886154
1728+1029025703+1031139632+1032998832+1034841022+1036547342+1037529603
1720+1037455385+1036677727+1036008654+1035535992+1034575601+1032990223
1711+1031045072+1028799438+1026114606+1023070140+1020251937+1018193758
1703+1016611921+1014895950+1013186575+1012438285+1013062716+1014830133
1694+1017104926+1019241697+1021323690+1023706582+1026157443+1028124256
1686+1029866123+1032562966+1036327257+1039683939+1042103975+1043770652
1677+1044889477+1045798283+1046727571+1047428511+1047776204+1048386333
1669+1049858683+1051561324+1052673622+1053288611+1053875690+1054523241
1660+1054833235+1054550595+1053752248+1052621760+1051562087+1051492868
1652+1052300241+1052582186+1052233035+1052079878+1052873157+1054004617
1643+1054455480+1054136877+1053435798+1052696672+1052083280+1051757942
1635+1051756554+1051607493+1050927867+1049720661+1048138338+1046402372
1626+1044741527+1043350199+1042461804+1042154796+1042093977+1041963454
1618+1041920547+1042354817+1043040622+1043358600+1043206206+1042864345
1609+1042592120+1042365370+1041904787+1041064436+1040097103+1039374223
1601+1038887536+1038288585+1037441014+1036656899+1036333992+1036467015
1592+1036704943+1036928291+1037507178+1038859002+1040943841+1043326941
1584+1045574865+1047454408+1048846221+1049687822+1050135560+1050757353
1575+1051948105+1053033326+1053386990+1053380533+1054002049+1055586871
1567+1057276737+1058376886+1058702084+1058063490+1056361196+1054758462
1558+1056186586+1059591104+1061903110+1063115801+1063861591+1064423676
1550+1064903282+1065153985+1064822399+1063798134+1062378897+1060915573
1541+1060036342+1061316308+1064325645+1066460888+1066884396+1066157768
1533+1065174049+1064209284+1062884607+1061310129+1060319676+1060390284
1524+1060857740+1061166137+1061782306+1063001176+1064362719+1065848676
1516+1067650251+1069270204+1069995236+1069487582+1067614427+1064499908
1507+1061571246+1060955841+1061165789+1059976079+1057054638+1052775958
1499+1047708165+1042422994+1037486003+1033344373+1030175145+1028448968
1490+1029463304+1034150496+1040950228+1047353738+1052276080+1055806262
1482+1058400630+1060260454+1061159888+1060883428+1059669834+1058329536
1473+1058113408+1059738915+1062205675+1064130137+1065056925+1065088098
1465+1064531220+1063672401+1062475887+1060678894+1058162632+1055531884
1456+1053665811+1051392337+1047033954+1040601285+1033469481+1027635694
1448+1024606501+1024317127+1025531415+1027355346+1029495172+1031569805
1439+1033216834+1034755071+1036808737+1038760623+1039357630+1038528388
1431+1037077838+1035731986+1034425776+1032512631+1029571542+1025770454
1422+1021403254+1016197300+1010048867+1004641921+1001848851+1001269409
1414+1001997218+1003955352+1007227471+1011268709+1015210318+1018793195
1405+1022428213+1026196045+1029567585+1032338715+1034832830+1037228774
1397+1039386651+1041329858+1043195098+1044772005+1045671925+1045680742
1388+1044750691+1042952449+1040428619+1037243839+1033418660+1029136092
1380+1024789721+1020702383+1016856237+1013211361+1010349072+1009191437
1371+1009940352+1012161617+1015340703+1018729461+1021447202+1022988007
1363+1023420540+1023391381+1023722967+1024823601+1026782291+1029706926
1354+1033572164+1037890349+1041993099+1045595971+1048821922+1051832855
1346+1054607665+1056932793+1058535527+1059377545+1059821672+1060283157
1337+1060685837+1060708748+1060394172+1060066891+1059928452+1060072792
1329+1060749710+1062238237+1064448809+1066877106+1068929384+1070184426
1320+1070424714+1069583600+1067731898+1065085321+1062035439+1059157112
1312+1056973200+1055537230+1054370570+1052911342+1050955430+1048622317
1303+1046024062+1043200444+1040351346+1037891876+1036166671+1035176565
1295+1034647389+1034328855+1034130154+1033981023+1033731501+1033272446
1286+1032643641+1031944853+1031211628+1030392592+1029387767+1028118910
1278+1026577480+1024769726+1022686483+1020440572+1018323102+1016525623
1269+1014853808+1012906852+1010511255+1007831630+1005040018+1002010964
1261+998456691+994337556+989922451+985341275+980309515+974500097+968065762
1251+961671625+956133807+952047234+949498341+948033906+947082263+946424923
1241+946176233+946484491+947436065+949104131+951543606+954798716+958876750
1231+963630800+968748443+973901354+978845497+983394389+987349120+990457043
1221+992565349+993963758+995437982+997700001+1000697048+1003507058+1004923658
1211+1004301726+1002009715+999041688+996194465+993699864+991470616+989418199
1201+987604474+986409765+986573336+988774189+993044885+998711560+1004914424
1191+1011082504+1016985233+1022525967+1027556477+1031854041+1035259045
1183+1037767045+1039471214+1040569279+1041467463+1042654258+1044320727
1174+1046191729+1047745725+1048545461+1048493113+1047965602+1047641723
1166+1048017187+1049038536+1050232273+1051088939+1051225780+1050348980
1157+1048398067+1045722885+1042769299+1039622010+1036312608+1033584037
1149+1032749032+1034468682+1037979008+1041857229+1045453784+1049258065
1140+1053779880+1058470335+1062079178+1063841318+1064001557+1063329082
1132+1062365914+1061083518+1059092753+1056012114+1051553964+1045514325
1123+1037994698+1029522179+1020783197+1012431412+1005214420+999888981+996648590
1113+994556114+991602597+985649950+975831162+963214166+949989263+938123403
1103+928859896+922947725+920475272+920226999+919754545+916752429+910722370
1094+903432132+897735118+895680202+897378885+901386728+906060034+910689670
1084+915647698+921643390+928849274+936747003+944739500+952600432+960169283
1074+966988038+972646382+977347528+981769229+986318398+990773216+994754746
1064+998273056+1001502894+1004290062+1006351018+1007744498+1008628033
1055+1008758071+1007732487+1005540243+1002495916+998804732+994467455+989576632
1045+984610481+980371861+977520819+976170801+975964810+976366448+976822517
1035+977012332+977160977+977852128+979401820+981670989+984481068+987793733
1026+991445483+995139027+998748704+1002219872+1005207130+1007286415+1008546178
1016+1009585439+1010900674+1012480150+1013988255+1015207749+1016225974
1007+1017171993+1017947638+1018436963+1018889561+1019839677+1021636183
999+1024162998+1026980645+1029651106+1031935549+1033783432+1035262447
990+1036517627+1037704075+1038915724+1040174306+1041411921+1042439588
982+1043003825+1042866081+1041804187+1039577438+1035884310+1030380859
973+1022983633+1014355735+1006087263+1000284510+998697674+1001742280+1008059144
963+1015122701+1020458415+1022486671+1020642398+1015129991+1006666011+996355814
953+985613778+975907254+968433242+964089300+963570676+967064617+973742782
943+981877119+989723888+996291177+1001374869+1005298913+1008776816+1012558811
933+1016826938+1021108604+1024896361+1028068852+1030655236+1032620244
925+1034093496+1035468508+1037001676+1038476248+1039485724+1039944570
916+1040129386+1040309273+1040491243+1040408971+1039619302+1037775168
908+1034926001+1031393320+1027366315+1022873868+1018072954+1013277734
899+1008763833+1004821877+1001896478+1000371989+1000242159+1001259411
891+1003460195+1007223722+1012524028+1018266379+1022746399+1024915315
882+1025123875+1024631356+1024391693+1024264987+1023478790+1021782745
874+1019756711+1017952706+1016350596+1014842769+1013645769+1012889009
866+1012132388+1010491468+1007180608+1002115800+996116220+990255217+984970602
856+980081168+975501797+971429317+967899691+964734768+962036258+960342365
846+960166506+961528327+963890112+966342501+967939612+968246551+967721193
836+967339064+967780901+969260471+972081520+976751840+983236927+990509461
826+997234073+1002779180+1007169708+1009865301+1008950732+1002463146+991259695
816+980132267+974884726+977798668+986368664+996402886+1005440615+1013058898
806+1019226979+1023474138+1025474554+1025871540+1026119605+1027228363
798+1028876364+1030178547+1030938362+1031594591+1032477153+1033732195
789+1035480172+1037554111+1039461980+1040859209+1041766557+1042172014
781+1041537307+1038922875+1033877298+1027142689+1020027270+1013102429
772+1006033596+998653032+991694450+986460725+984056935+984776552+987721807
762+990772522+991312598+987669111+980063950+969916908+958304945+945470572
752+931660256+917832721+905429007+895883763+890484523+890255134+895476918
742+905131580+916874622+927885759+936186445+941276177+943702877+944429506
732+944159225+942204909+936266356+924853303+910412724+898978079+895944026
722+902183756+913757742+924782278+931221127+932799978+931973721+931857569
713+934739575+941112536+949474458+957527496+963888307+968051460+968715395
703+963767156+952895360+939201821+927368037+920721948+920116957+924483740
693+931845419+940309815+948533992+955574916+960929584+964945966+968589454
683+972380891+975851851+978201140+979092936+978685675+977414318+975980709
673+974986715+974444069+974404426+976064299+980110327+984128724+986267855
663+987081407+987640993+988270076+988571530+988469888+988747876+990289237
653+993021488+995908146+997949523+998699202+997703264+994243065+988302984
643+981498392+976382416+974623678+976014867+979292818+983524218+988175654
633+992274517+994653243+995273578+995584197+997202205+1000480087+1004347826
623+1006972672+1006127739+999709650+987567955+973247555+962488370+958844258
613+961428212+966905558+972294454+976269180+979305524+982696920+986930194
603+991092721+993845940+994620612+993867740+992424550+990672754+988217103
594+984342144+978960955+973321218+969372041+968060694+968502739+968764897
584+967321013+964041950+960238849+957804095+958000158+961013105+966384227
574+973293169+980398729+985701743+986989277+983127856+975093494+965307128
564+956197403+949763554+947657747+950337303+956041747+961807495+966084161
554+969462713+972325210+973116337+970193854+964553284+959005330+955004013
544+951943995+949293529+947718496+947914004+949706623+952756713+957137035
534+962769621+968995327+974999906+980333537+984910547+988576668+990802931
524+991051065+989166107+985237204+979980359+975331700+973110019+972831267
514+972685192+972325071+972905208+974787041+976562095+976322014+972768366
504+964726367+951186888+933916928+918374742+909004317+905535162+904690368
494+903849253+902980576+903701303+907371173+914084676+922539561+930561079
484+936604398+941144820+945710513+950343968+952846206+951047616+945470016
475+938531082+931919012+926574134+923974003+924831017+927369287+928843581
465+928600098+928220191+929085050+931513764+935660670+940824690+944377435
455+944763314+943691144+943281661+943220287+942058000+940156866+939441138
445+940928900+943735856+945998638+946215946+944128746+940693263+937771198
435+937326653+939675386+943053383+945660109+947373025+948692495+948967775
425+946985133+942763523+937442597+932712152+932622521+940830869+952361810
415+959658088+960196498+955733280+950155542+945758835+941869227+938159159
405+936900368+940245872+946662157+951091078+948153738+938746446+933740721
395+939453357+949147454+954635908+953525207+947082818+937491474+929182595
385+929241470+939859022+952147140+956691796+952934656+944706105+934628144
375+924616902+918175346
##END=
