##TITLE=F. Mohr LL-28
##JCAMP-DX=5.0
##DATA TYPE=LINK
##BLOCKS=1


$$ === CHEMSPECTRA SPECTRUM ORIG ===
##TITLE=F. Mohr LL-28
##JCAMP-DX=5.00
##DATA TYPE=INFRARED SPECTRUM
##DATA CLASS=XYDATA
##ORIGIN=Angelika Moesle
##OWNER=
##XUNITS=1/CM
##YUNITS=TRANSMITTANCE
##XFACTOR=1
##YFACTOR=8.9530577e-010
##FIRSTX=3997.4121
##LASTX=373.82813
##MAXX=3997.4121
##MAXY=0.9613272496222187
##MINX=373.82813
##MINY=0.3357430381574471
##NPOINTS=2560
##XYDATA= (X++(Y..Y))
2560I96134187I95980466I96050636I96296296I96706462I97269550I97862730I98259648
2552I98242805I97780910I97149383I96796338I96942602I97353102I97591772I97468076
2544I97171419I96984944I96931618I96827428I96658528I96664387I96968234I97352769
2536I97534651I97516609I97573131I97929904I98475683I98780595I98474285I97690435
2528I97035141I96980616I97425468I97911995I98095741I97907801I97442245I96911911
2520I96648143I96922697I97697559I98549581I98855957I98289806I97212629I96398022
2512I96267536I96596348I97097189I97776716I98597181I99262928I99610713I99835603
2504A000022611I99874016I99223382I98465297I98044479I97986226I98075436I98038088
2496I97613475I96782889I96011956I96090580I97358427I99234767A000804530A001473139
2488A001218690A000448222I99615640I99046360I98841710I98786320I98670946
2481I98599179I98673809I98588260I98082826I97617602I97860334I98597248I99062804
2473I99012407I98714752I98571217I98852294I99452997I99878543I99958566A000115549
2465A000628640A001129281A001172221A000940142A000840946A001020897A001387391
2458A001720064A001662410A001179345A000720246A000497421A000496089A000635097
2451A000769245A000670648A000143044I99342618I98940107I99501664A000569455
2444A001320017A001598299A001620668A001460423A001143195A000848669A000674243
2437A000476051A000243306A000328388A000898400A001514615A001943289A002252994
2430A002243806A001769196A001083011A000545688A000520189A001222086A002131628
2423A002339607A001855810A001388056A001316422A001425538A001616407A002002007
2416A002490599A002910418A003260468A003571371A003758645A003686479A003305472
2409A002794778A002499653A002577612A002865680A003100289A003178048A003181377
2402A003149288A003065870A003061343A003341089A003746928A003797658A003460724
2395A003175052A003135374A003177050A003224051A003335031A003395281A003179380
2388A002695382A002178697A002024909A002566028A003218326A003062475A002368234
2381A002041619A002360712A002480546A002032765A001557622A001586182A002241277
2374A003073925A003531626A003759311A004024212A004153100A004034864A003945920
2367A004130531A004271536A004043452A003867295A004297500A005113239A005559489
2360A005159975A004152434A003460458A004010364A005331471A006149873A006221507
2353A005869261A005188136A004181927A003185438A002740986A002906690A003179113
2346A003064272A002559304A002117847A002233088A003068999A004151835A004730236
2339A004751140A004647017A004708798A004911451A005007785A004819512A004511804
2332A004508409A004860655A005202183A005621071A006341009A006884990A006602381
2325A005720932A004834558A004367737A004452819A004930492A005609553A006407783
2318A007032386A007034250A006539667A006211920A006615030A007551535A007990461
2311A007549804A006606908A005491516A004569325A004314943A004892877A005788306
2304A006187288A005799624A005184474A005157312A006079037A007550803A008429388
2297A008179200A007322651A006272170A005171491A004156362A003517712A003613912
2290A004394367A005325612A005782181A005523339A004936484A004592293A004778036
2283A005441119A006321768A007130584A007651197A007815304A007715175A007438891
2276A006994572A006517232A006248204A006167381A006100608A006137224A006447728
2269A006690725A006385614A005779984A005332869A005139936A005137539A005386328
2262A005896889A006420765A006651712A006508444A006154999A005895291A006062926
2255A006676678A007166667A007101756A006646586A006105135A005704688A005625997
2248A005879513A006232292A006474291A006674348A006967809A007271988A007516117
2241A007774693A007865434A007353209A006301263A005287132A004656205A004374394
2234A004377923A004586035A004755734A004762191A004785226A004965975A005160707
2227A005245789A005389324A005744167A006077906A006026310A005682186A005611550
2220A006186955A007122595A007862438A008244643A008480517A008612335A008357154
2213A007594209A006683202A006092019A005916595A005888967A005772728A005526335
2206A005194660A004928295A004946603A005243925A005522607A005596704A005608022
2199A005680588A005649897A005378206A005029022A004818780A004799273A005023830
2192A005530063A006082765A006371367A006475223A006698181A007055621A007373847
2185A007644407A007872025A007833545A007349548A006655440A006228564A006267244
2178A006526752A006758565A007090239A007726293A008452090A008829901A008770783
2171A008577716A008540434A008700813A008900004A008858661A008313947A007286235
2164A006179565A005549503A005714941A006496394A007342025A007832813A008076875
2157A008447097A008922040A008988548A008365743A007522775A007174456A007395617
2150A007604329A007348216A006681804A005839102A004958452A004186920A003693868
2143A003444014A003164201A002586399A001562349A000086056I98437735I97056245
2136I95979867I94687853I92777627I90573408I88887206I88386498I89243713I91163326
2128I93587241I95935262I97842691I99333164A000720313A002208256A003645402
2121A004805199A005693104A006322234A006506380A006226966A005903613A005971053
2114A006434612A007016941A007481232A007748995A007914367A008127938A008370603
2107A008478919A008385382A008131999A007755120A007431235A007529099A008166951
2100A008877102A009080954A008749346A008224138A007618243A006904097A006419898
2093A006657904A007532228A008368206A008660934A008478786A008176070A008028342
2086A008082201A008211023A008369071A008722050A009367491A010068122A010490538
2079A010610972A010663699A010766290A010809031A010668825A010335153A009877186
2072A009454171A009272556A009369422A009556629A009669939A009701629A009642777
2065A009411630A009014246A008653811A008612468A008999666A009596641A010058402
2058A010304928A010538539A010864554A011119602A011145566A011042575A011006891
2051A011017010A010858762A010459315A009995756A009654760A009516152A009690444
2044A010261721A011032123A011588886A011722102A011629563A011653930A011867102
2037A011940800A011521912A010774945A010341611A010604048A011211275A011545147
2030A011438361A011199425A011140040A011350083A011785881A012282261A012536243
2023A012342977A011865371A011512326A011543016A011903119A012398833A012877438
2016A013234212A013380276A013295261A013071703A012826841A012581780A012328664
2009A012174210A012238788A012446834A012617731A012727379A012921843A013360903
2002A014120187A015047105A015697473A015685423A015076864A014247943A013499711
1995A013042810A013090743A013636722A014308460A014716296A014830605A014844385
1988A014824147A014726948A014611374A014558381A014503989A014371572A014198811
1981A013986838A013659956A013275488A013009256A012912656A012876173A012774314
1974A012516204A012066692A011512991A011057488A010935590A011275253A011914969
1967A012431322A012486845A012094987A011506134A010976799A010679810A010677413
1960A010912089A011256812A011555532A011625502A011331109A010696653A009909475
1953A009237005A008952398A009199590A009801624A010285755A010280162A009876853
1946A009518748A009576935A010035767A010482549A010455054A009917331A009326614
1939A009128621A009333937A009681923A009996621A010191818A010125643A009747765
1932A009292728A009069103A009102990A009176821A009161709A009153853A009291263
1925A009555231A009777324A009817735A009708020A009582460A009476607A009284872
1918A008938484A008508545A008051510A007470314A006669488A005770331A005020235
1911A004515666A004080800A003392285A002214181A000570319I98688588I96751800
1904I94758688I92660922I90560826I88722301I87362581I86510692I86144132I86342990
1896I87120316I88265399I89478855I90443454I90755490I90185478I89009703I87761163
1888I86806017I86389859I86691575I87590266I88792404I90252718I92030193I93853606
1880I95352201I96618783I98075436I99822687A001436589A002434609A002752437
1873A002693318A002537467A002299197A001820658A000967638I99687141I98015785
1866I96146703I94360506I92713782I90869998I88376845I84960635I80407729I74447570
1858I66936488I57867959I47222943I35479113I24529385I17417018I16477250I21629793
1850I30547131I40392719I49276237I56391001I61503865I64606375I65672036I64455717
1842I60540597I53651788I44120832I33368164I23866035I18088556I17067834I19863302
1834I24348368I28433986I30675953I30045891I25385135I15300477H99194611H79219628
1826H61047419H51137453H51912515H59769252H68415299H73886401H76146277H77007020
1818H77748462H78531047H79027560H78964847H78145513H76283021H72942640H67592969
1810H59739227H49140880H36083000H21684174H08056748G97839541G93004292G93752857
1802G98467539H04758774H10724859H15529550H19159797H21948808H24392230H27066466
1794H30333881H34149873H38309988H42736002H47394828H52148655H56870926H61608443
1786H66480307H71412688H76041222H79970789H83120102H85724568H88035639H90146255
1778H92077118H93843942H95381949H96537418H97243842H97628310H97824572H97749077
1770H97142781H95657102H92731880H87572679H79530132H68660027H56187538H44667931
1762H37355374H36598621H42351667H52248184H63269413H73449272H82173344H89362938
1754H94966856H99179832I02489389I05210827I07258329I08458736I08743676I07913823
1746I05545098I01395901H95888582H90159037H85645144H83480870H84038432H86915721
1738H91287477H96240962I00950916I04840539I07714366I09742029I11338289I12992601
1730I15046096I17612348I20733965I24486178I28847348I33583733I38298148I42550802
1722I46056622I48910543I51524329I54208884I56854094I59092266I60744781I62032268
1714I63335533I64840119I66444235I67908410I69051563I69930282I70852074I72079044
1706I73499614I74740631I75627938I76371310I77236381I78230273I79228360I80209670
1698I81198103I82143463I83003407I83810492I84575567I85245042I85762393I86087344
1690I86215566I86248854I86336932I86501837I86629927I86684718I86822927I87218047
1682I87811626I88334836I88605595I88724165I88913370I89257028I89658606I89980495
1674I90139475I90113977I89944943I89746884I89683039I89881165I90340796I90921527
1666I91434218I91730342I91706242I91308459I90617214I89874841I89345772I89159430
1658I89329461I89816588I90484198I91067725I91289352I91030776I90424214I89806801
1650I89523526I89717791I90317495I91158865I92050766I92849595I93608612I94533067
1642I95686206I96892938I97983230I98911281I99619368A000062090A000379384
1635A000800868A001382331A002011794A002579542A002991639A003166664A003172389
1628A003247486A003573834A004081066A004509075A004612332A004315942A003727755
1621A003047562A002489067A002219973A002284683A002570022A002894507A003146958
1614A003350743A003625430A004053638A004565796A005004057A005277679A005356237
1607A005195659A004839817A004515666A004424791A004509008A004573253A004549286
1600A004499887A004478251A004491765A004515466A004472858A004263947A003869359
1593A003394416A002999495A002783594A002746911A002852165A003074458A003382033
1586A003719167A004031335A004289445A004538767A004920040A005538917A006300465
1579A006987182A007478236A007792934A007966428A008040659A008145514A008430120
1572A008849607A009130419A009083816A008893546A008927766A009323352A009924121
1565A010532081A011001498A011199691A011119069A010993376A011113078A011505468
1558A011868233A011887806A011642546A011587555A012047785A012880634A013756356
1551A014570431A015402081A016226741A016847816A017104794A017106991A017212112
1544A017682928A018414583A019044578A019264541A019038786A018664770A018585680
1537A018979002A019569386A019934881A019927957A019755995A019710524A019828495
1530A019844539A019529109A018971013A018429562A018051418A017869470A017917537
1523A018183436A018549064A018905504A019263742A019646413A019935147A019969500
1516A019800533A019724239A019975758A020423605A020684710A020589176A020373075
1509A020305036A020368082A020482990A020749555A021201397A021572750A021561299
1502A021180559A020729183A020492976A020511284A020561881A020364221A019813582
1495A019031929A018234099A017585196A017172567A017031761A017124300A017347924
1488A017651038A018047224A018478162A018809969A019020478A019236979A019532171
1481A019798536A019892207A019833821A019764650A019727035A019631700A019441962
1474A019234250A019116612A019185650A019414933A019554274A019422056A019240042
1467A019345229A019718912A020125817A020517409A021006000A021617488A022254208
1460A022805179A023192710A023343036A023216877A022920287A022634815A022350475
1453A021901296A021364970A021091881A021194872A021337542A021200464A020892823
1446A020740567A020888296A021282484A021839115A022385360A022610515A022364921
1439A021901762A021598248A021558503A021629005A021639191A021516428A021270301
1432A020953073A020630253A020376337A020252042A020258966A020352637A020490846
1425A020625260A020707013A020791630A021078300A021700573A022512983A023236183
1418A023762056A024134142A024341988A024428069A024673330A025327093A026253345
1411A027106033A027637698A027715524A027353491A026743800A026132779A025864749
1404A026271986A027065755A027483311A027436110A027493298A027576250A026986598
1397A025757764A024738839A024487653A024817331A025134358A025114853A025090619
1390A025399526A025807495A026011946A026058082A026036379A025931390A025855296
1383A026029655A026459327A026792533A026568842A025654307A024476535A023763454
1376A023888947A024520541A025080766A025393734A025645652A025885587A025873337
1369A025453651A024807478A024182874A023589362A022958767A022486753A022576296
1362A023386043A024586716A025688859A026471244A026957438A027187321A027204963
1355A027149706A027222805A027594890A028301181A029211855A030183844A031174808
1348A032125427A032903418A033466706A033849177A033977000A033799446A033547461
1341A033518967A033697919A033905366A034121933A034352148A034482768A034618580
1334A035103776A035868252A036285009A035992480A035392443A035145851A035525260
1327A036278685A036864741A036893701A036390264A035592700A034687684A033798580
1320A032961404A032210110A031900671A032577402A034158349A035595696A035828440
1313A035001450A034257679A034262605A034483966A034169068A033386816A032760548
1306A032743040A033319043A033981061A034155354A033935790A034004296A034735751
1299A035786632A036367495A035733172A033936656A032177022A031666861A032242931
1292A032807284A032878985A032937970A033470966A034415993A035577121A037002950
1285A038755793A040603106A042217407A043712141A045636281A047931507A049281707
1278A048623417A047094864A046966508A048671750A050329059A050167216A048559772
1271A047559821A048572088A050824441A052451258A052481350A051085480A048777604
1264A046665724A046772843A050460611A056236159A060473700A061163547A059396656
1257A057148498A055238671A053467453A051686183A050086395A048737793A047327675
1250A045466382A043254640A041309995A039961926A038892604A038020676A037984326
1243A039034608A040266637A040770874A040811285A041139897A041730481A041991719
1236A041956102A042389902A043639508A045084177A045975412A046304956A046565130
1229A047035812A047585119A047916927A047809809A047297118A046654673A046054169
1222A045384362A044591924A043856075A043198584A042389836A041539811A041261928
1215A041856307A042705799A042894871A042255155A041513913A041422573A042048641
1208A042957584A043725323A044186951A044515497A045082247A046033398A047139003
1201A048183692A049188969A050097646A050507612A049957373A048507977A046964045
1194A046287380A046747078A047845293A048967142A049838670A050458813A050779370
1187A050551219A049589548A048179032A047130748A047326411A048869477A050707736
1180A051609622A051449643A051021302A050788557A050637100A050775375A051749162
1173A053325383A054512409A055071569A055749032A056618497A056552189A054978498
1166A053156284A053068671A055411299A058904869A061444225A061940073A061080927
1159A060223579A059962274A060004016A059951489A059880654A059975190A059766811
1152A058399568A055716677A052495264A049879348A048915414A050086794A053002962
1145A056746986A060186164A061866042A060896116A058380128A056527090A056209063
1138A056389413A055943763A055059586A054710402A055714613A058258030A061391897
1131A063508438A064062472A063926925A063894571A064054416A064391950A064787736
1124A064911099A064895121A065235717A065818045A065999527A065556207A064742998
1117A063776201A062786902A061914109A061271597A061001238A061295830A062292253
1110A063896833A065542559A066355169A066101386A065419596A064723225A063838182
1103A062894087A062665736A063567756A064981934A066091733A066846290A067706832
1096A068826019A069760993A069927297A069231725A068028722A066673795A065399956
1089A064266190A063030832A061385440A059415696A057648007A056595862A056425697
1082A056908429A057551940A058086667A058766594A059833652A061036189A061993399
1075A062601558A062955203A063228824A063585664A063947830A063925528A063110987
1068A061393695A059113181A056959892A055569148A055292530A056167987A057836080
1061A059798567A061835950A063915675A065933751A067719283A068980140A069429385
1054A069248236A068913166A068690274A068546473A068245156A067543859A066584718
1047A065899066A065847604A066403702A067428418A068687144A069788955A070543179
1040A071166450A071944508A072833479A073513672A073741823A073521727A073093919
1033A072784413A072772829A072950916A072934007A072313997A071040358A069321401
1026A067314709A065354286A063943903A063317236A063399256A063967470A064731281
1019A065538698A066377604A067189948A067897969A068433362A068714174A068797193
1012A068847057A068928145A069035330A069109228A068876416A068165999A067303391
1005A066668269A066308034A066087739A065764918A065191378A064592006A064131976
998A063649909A062962992A061991069A060528158A058303501A055216635A051350514
991A046963446A042180392A036464361A029348666A021881856A015108953A008917446
984A003504597I99257069I95980732I93605816I92519850I92732556I94071505
977I96490827I99471040A002487270A005626397A008882695A011762180A013969395
970A015405410A015890473A015408273A013802093A010606112A005901683A000289042
963I92733688I78907404I53938791I21375811H88013070H54503866H23166857
956G98851540G82638623G71630643G62458856G52050380G36051233G09376779
949F74475565F44300018F23070701F04613820E83865106E58931911E29191063
942D94218481D57300589D26433564D04886621C88768871C76710376C75003769
935C86741474D06628612D25899136D40398524D52237655D64396711D77807969
928D92926334E13700712E44774484E78013729F02981610F22431652F40294622
921F58401855F78465183F99444045G17336574G30724598G39594335G42505110
914G41663341G43111272G51337765G67438372G86963577H03549446H15750245
907H25127746H33249784H42577421H55460077H66773236H72974795H77761244
900H84166122H91513830H96670434H99151538H99677743H98236935H94650960
893H88685341H80658039H73341222H68695179H65609844H64053862H65957031
886H72587331H82512608H93748607I05098049I14569288I20642359I23858379
879I25097399I24380723I21600767I17013509I10595116I02136744H91617021
872H78886022H62787480H40910859H10877049G72978579G32121267F96161117
865F71953985F62942310F68559811F84671602G05958238G28747264G51247623
858G72246591G90834225H06775719H20292698H31586217H40709138H47783157
851H53125971H56796629H58241165H57456783H54921155H50393149H44054646
844H38209860H34868145H33930576H34919009H37871261H44600691H60667211
837H85280781I02547176I11810170I19257606I26203670I32287658I37448656
830I41617759I44808747I47390844I49703447I51974773I55009577I59213099
823I62555012I64185558I65203284I66575720I68455521I70212225I71575474
816I72897113I74479526I76183769I77751136I79338874I81144910I82800222
809I84056219I85192980I86252116I86955610I87322635I87641928I88132050
802I89026081I90494318I91653182I91825943I91623889I91415444I91183764
795I90808217I90108651I89012366I87772947I86595574I85394701I83979125
788I82218826I80132909I77835552I75275159I72147283I68211258I63511556
781I58017951I51385920I43163755I32443909I17722862H99742454H81680492
774H62912573H37885774H00233631G52860127G12912956F91569066F84413359
767F82484426F77553576F67912239F61033749F59319386F59302010F56824369
760F49698021F40720434F36970019F43229698F58491198F77709228F94665651
753G05535157G10356158G13015748G19003802G29839222G44199568G60678451
746G76739845G89652659G99046006H05784423H10116434H12193495H12884074
739H13682304H16346620H21492106H28585965H37483597H48302639H60495848
732H72665822H83527139H92726887I00395950I06571412I11662507I16699077
725I22509377I28796552I34410190I38505595I40731451I40937366I38894390
718I33297196I20772311H97418467H63444172H24597080G90079802G70445814
711G71405153G88216578H10490450H30266642H43286040H48314689H48030349
704H46854242H47590623H50597000H55827236H65094091H80358187H99274101
697I16602610I30108671I40546107I48825793I55253973I59998147I63300581
690I65299085I65809046I64164387I59311696I50098101I35147038I12851330
683H83760616H54346417H34245274H27982999H33419216H45346526H57973801
676H67256899H73484823H80998102H93835421I11639472I30439613I46681025
669I59340456I68889055I75842974I80522704I83332952I84807380I85421531
662I85430319I84970688I84251548I83512836I82811073I81911584I80381299
655I77660128I72746522I63556294I46281511I15109075H63824246G90920440
648G05302012F25523378E70179827E47147404E51697213E73229610F01929531
641F31251192F58178497F82338561G04139420G23602311G40810054G56535712
634G71817717G87113437H02037270H15662366H26926926H34982122H39382438
627H40181534H38212190H35356937H34126505H36476123H42707575H51445094
620H60674534H68779529H74871839H78709600H80638799H81561124H82757936
613H85493154H90523599H97818913I06706026I16283052I25774197I34691535
606I42852984I50273925I56976724I62864650I67755888I71521415I74191457
599I75918536I76825482I76885333I75939840I73739549I69815640I63219826
592I52241804I34026121I04578501H60551504H02957465G39738668F83582974
585F45568797F29567786F31944833F46220230F67686019F93765829G21552079
578G47132846G67832494G83973245G97793471H11109061H24234714H36546759
571H47434040H56695835H64432339H70873434H76311715H81075196H85499213
564H89819440H94036742H97995469I01608208I04824361I07380161I08771970
557I08419990I05770653I00620839H93783692H87184483H82701481H80802173
550H80503719H80408318H79373415H76335482H69767895H57331490H36914517
543H09900799G83821521G69501320G73411180G92858294H19111265H44388184
536H65496667H82586706H96559388I07808302I16264345I21837706I24632242
529I24824177I22535208I17872255I10896766I01445566H88980999H72463435
522H50290757H20667713G82666252G37718062F90580699F48471384F18270605
515F03654346F03875174F14098973F26608211F32917954F26957861F08184550
508E82308258E58406637E44139862E42368810E50842928E64179656E76804734
501E85890239E92723925F01094086F13929008F31366299F51318781F70602853
494F85701245F94593684F99142527G04413641G14259495G28081319G42444527
487G54829072G65156127G74781819G85069862G96529019H08560252H19902304
480H29398642H36403424H40720788H42355861H41145468H36354625H26458906
473H09108028G81448402G41672195F91893750F39981122E97377291E73471809
466E70910017E85516223F10107757F38460158F66863822F93611375G17949460
459G39389484G57469821G71774377G82013421G88019317G89639744G86635564
452G78495751G63749738G39180440G01052554F49536778E92830644E45239475
445E19024119E17218382E33813405E59648587E87628370F14064820F37696414
438F58571620F77289342F94396423G10075613G24286765G37121021G48874504
431G59777364G69833394G78997324G87378071G95211707H02681446H09789153
424H16449345H22675603H28487102H33611817H37417156H39025998H37287202
417H30643587H17234393G95835312G68039141G40031197G20824884G16853708
410G27603712G46432281G64648762G73685202G65285548G35549593F92812613
403F57818195F49458885F69485997G03840699G37281198G63379783G82866841
396G98070488H10319087H20003964H27295749H32722380H37146197H41221363
389H45103928H48748622H52243657H55702741H59061897H62214538H65187695
382H68034093H70701405H73028321H74697547H75177550H73616175H68466029
375H57185158H36914317H06623396G69845577G35317115G13184448G08857497
368G20120325G39864827G60915723G78746405G91483728G98795352H01072138
361G99530669G96739928G96230965H00734405H10523937H23563243H37171562
354H49490131H59799943H68081560H74558938H79589916H83723201H87536063
347H91325890H95045548H98475739I01393638I03696321I05433852I06700101
340I07566437I08165409I08781224I09828909I11628288I14054334I16568191
333I18775806I20758332I22752242I24765991I26623156I28192919I29514559
326I30787000I32256834I34033578I35955853I37693385I39070880I40230943
319I41401325I42606725I43703209I44615148I45402659I46032588I46223990
312I45743388I44735515I43449093I41621487I38172922I31232251I18191480
305H96090436H63650020H25243586G92611302G79149980G89924683H17888555
298H50379168H78071948H98020701I10916272I17229144I14187749H93314141
291H43121868G62796456F75983880F21404739F21868963F66241682G24863900
284G76054926H14172826H41173096H59763194H72806162H82996073H91145540
277H96084045H97083064H95989975H96226182H99745383I05617265I11441746
270I15400539I16868643I15735276I11988456I06472083I01639165I00474176
263I04116606I10921132I18160457I24239186I29008858I32756610I35703269
256I38121925I40241062I42100824I43772313I45502588I47510212I49770153
249I51975306I53635610I54314938I53811167I52062851I48800628I42959570
242I32437185I15674094H94943222H77457864H71055715H77934205H93283783
235I10019311I23787211I33806425I40970720I46239636I50131055I52551376
228I52250192I46965765I36255106I24795217I20234522I25870197I37297532
221I47777576I54527910I58597816I61543477I64025246I66148643I67802157
214I68953765I69888939I70953867I72187960I73377250I74226742I74460552
207I73909713I72280965I68975668I62746347I50784152I29299789H98204514
200H66002634H46619699H48703485H68620948H94920054I18286016I35861850
193I48709621I58428783I65883810I71181885I74198581I75323692I75658695
186I76438617I78264559I80737607I82760943I83139885I80776420I73829558
179I57855243I25965665H75500104H17118287G73227568G62216791G83623262
172H20532167H55704671H82282726I01116088I14636995I24752010I32948944
165I40134809I46461462I51629184I55468543I58220538I60076572I60775272
158I59898285I56198667I45907628I25157849H97965311H78005972H76945638
151H93636429I16644020I35190578I46117404I51624990I54205156I54610662
144I52335674I46241100I34503129I14932120H86748885H52875850H20470917
137G98292048G92019454H00989985H19254866H40020290H59134064H75086942
130H87707493H97715257I06293064I14251528I21717605I28380593I33836516
123I38037575I41431017I44468751I47167619I49194683I50033990I49021190
116I45392473I38475835I28354896I16858390I07604251I04198893I08047705
109I17674062I29394858I39496891I46725231I51918784I56219571I60489401
102I65105952I69400681I72117991I72811565I72423768I72583880I74239391
95I76816361I78946683I79829196I79309914I77429114I74895949I73006296
88I72201542I71253386I68043091I61035113I50523047I39076339I30135101
81I25745769I25881981I29421288I35268071I42615446I50748136I58911316
74I66117819I71357575I74282931I75318632I75049205I73811915I71774399
67I68753708I63692373I54988140I42382036I28700285I18980922I17545374
60I24745685I35646680I45398598I53519704I60910752I67546378I73426981
53I78803081I83035097I84963564I84656389I83903363I84622769I87157464
46I90434933I92996991I93965252I93694759I93278002I93522930I94556102
39I95915954I96600009I95561911I93210030I91564771I92077861I94424417
32I97023357I98468226I97950276I95011339I90058054I83788855I76089899
25I67562089I61164801I59247385I60007401I59998946I59054318I60133160
18I62916113I59915794I48019109I33725271I23574971I19945655I21872058
11I26848112I32461418I36545904I36724191I32196318I24660137I15846855
4I04870364H85547280H49904624H07447923
##END=


$$ === CHEMSPECTRA PEAK TABLE AUTO ===
##TITLE=F. Mohr LL-28
##JCAMP-DX=5.00
##DATA TYPE=INFRAREDPEAKTABLE
##DATA CLASS=PEAKTABLE
##$CSTHRESHOLD=0.93
##MAXX=3997.4121
##MAXY=0.9613272496222187
##MINX=373.82813
##MINY=0.3357430381574471
##NPOINTS=65
##PEAKTABLE= (XY..XY)
3995.9960843806175, 0.8917070580170888
3981.8359281867915, 0.8924375129262703
3969.0917876123485, 0.8923141308381065
3962.0117095154355, 0.8930823757085339
3950.683584560375, 0.8926024980829543
3940.771475224697, 0.892304833087685
3929.4433502696365, 0.8919640734444827
3911.035147217663, 0.893502826518324
3903.9550691207505, 0.8917352511957861
3879.8828035912466, 0.8931727953241635
3871.386709874951, 0.894026572336022
3389.9413992848768, 0.8849081346494935
3060.009759968738, 0.8829005314312416
3044.4335881555294, 0.8831205322321863
2994.8730414771394, 0.8205273699987324
2972.216791567018, 0.8210561232616022
2956.64061975381, 0.7620282727340038
2926.904291746776, 0.7099813182623648
2866.0156201133254, 0.7490115725553431
2837.695307725674, 0.7909855205956199
2737.1581987495115, 0.886068935287835
2721.582026936303, 0.885600145128911
2708.83788636186, 0.885926122378545
1760.107421375537, 0.8886087485445344
1697.802734122704, 0.3357430381574471
1666.6503904962874, 0.6640154685947776
1629.8339843923404, 0.7735924082393837
1595.849609527159, 0.5935360753201286
1564.6972659007424, 0.7466228564722235
1445.751953872606, 0.5702829333277096
1380.615235381008, 0.6897845827465467
1369.2871104259475, 0.7581934892115763
1335.3027355607655, 0.7412979564666042
1285.7421888823756, 0.48986422784172107
1256.0058608753416, 0.7467982728364339
1199.3652361000386, 0.5636556714119252
1138.4765644665881, 0.6889389718186164
1101.6601583626411, 0.5404552190593764
1087.5000021688156, 0.48558592506103365
1032.2753930128952, 0.5111390323708981
1001.1230493864787, 0.46306860175466413
954.3945339468537, 0.6418032610182951
941.6503933724107, 0.5814642871182665
894.9218779327857, 0.6346442071718577
880.7617217389602, 0.712870177217168
798.6328158147712, 0.6975774727893845
780.2246127627977, 0.556347248332044
761.8164097108242, 0.8021849944796557
746.2402378976158, 0.8061997255087955
709.4238317936693, 0.7798612076309756
689.5996131223133, 0.823891277299792
654.1992226377488, 0.7579835015103632
618.7988321531843, 0.682417090973184
587.6464885267678, 0.7851344896777313
564.9902386166468, 0.7090995871184496
529.5898481320824, 0.8095344861305126
511.18164508010886, 0.8706166103755413
487.10937955060535, 0.8288255285387871
458.78906716295387, 0.8214836675790079
441.7968797303629, 0.8808943580163044
431.8847703946849, 0.8892875264046715
421.9726610590069, 0.8877536608050286
404.98047362641637, 0.8588197186479114
400.7324267682684, 0.8586468646488148
390.8203174325904, 0.8236326530079293
##END=

##END=

