##TITLE=X9236
##JCAMP-DX=4.24
##DATA TYPE=INFRARED SPECTRUM
##DATE=5/11/2018
##SAMPLING PROCEDURE=ATR platinum Diamond 1 Refl
##ORIGIN=ComPlat
##XUNITS=1/CM
##YUNITS=TRANSMITTANCE
##RESOLUTION=4
##FIRSTX=3997.453
##LASTX=373.96442
##DELTAX=-1.4165319
##MAXY=1.0885071
##MINY=0.83597988
##XFACTOR=1
##YFACTOR=1.0137512e-009
##NPOINTS=2559
##FIRSTY=1.0204102
##XYDATA=(X++(Y..Y))
3997+1006568658+1006472115+1006030791+1005580648+1005472816+1005796665
3989+1006415435+1007045730+1007367227+1007271154+1006973999+1006748809
3980+1006614872+1006430252+1006173783+1005921666+1005611928+1005104047
3972+1004538781+1004312063+1004589580+1005125684+1005580060+1005724463
3963+1005459410+1004961642+1004608395+1004518084+1004506325+1004510794
3955+1004534195+1004249739+1003301122+1002060994+1001596152+1002449754
3946+1003732215+1004176832+1003779723+1003671303+1004400845+1005246451
3938+1005470934+1005031845+1004067118+1002667065+1001302642+1000736200
3929+1001109203+1001754196+1002062523+1002016544+1001955514+1001930232
3921+1001563226+1000723735+1000075919+1000598735+1002316757+1004188944
3912+1005397439+1005923312+1005924958+1005072767+1002771722+999009358+995013455
3903+992595053+992417136+993879513+996190789+998517352+999970674+1000095792
3893+999421636+999407290+1000687752+1001973741+1001832277+1000245958+998491834
3883+997312149+996585664+996903398+998686214+1000496547+1000546053+998530992
3873+995715716+993534615+992748981+993304605+993991696+993697833+992933719
3863+993460297+995805557+998408696+999697155+999192566+996826375+992523674
3853+988536827+989065639+993154086+997486303+1000401180+1001392600+1000422111
3843+997790279+994343414+991349751+989987915+990685707+992668195+994854706
3833+996774517+998337083+999478551+1000036761+999860373+999059922+997763820
3823+995625523+992617631+990486036+990715929+992157374+993787203+995998408
3813+998708086+1000824159+1001498080+1000573335+998706910+997155751+996187143
3803+994774860+992915257+992546605+994460184+997125294+999571449+1001765485
3793+1003505497+1004513733+1004922955+1004977635+1004623094+1003862508
3785+1003216103+1003071347+1002883082+1002058995+1001296880+1001920119
3776+1003791599+1005474815+1005895325+1004844873+1002848274+1000970326
3768+999995957+999861313+1000274768+1000861671+1000889070+999875425+998421632
3758+997764526+997967137+997671511+995628345+991790487+988208744+987499192
3748+988626432+989143367+988968155+989894782+992435480+994763689+995486058
3738+994126927+991005323+988132897+988374784+991913371+996195610+999094965
3728+999895415+998872833+997148695+996175384+996614003+998130120+999998191
3718+1001440930+1001861087+1001014306+998946563+996155511+994242638+995064843
3708+998169984+1001541472+1003633908+1003758556+1002400601+1001442577
3700+1002309937+1004054653+1005096403+1005063007+1004107923+1001832630
3691+997954673+994012040+993013446+995414562+998717964+1001287708+1002741971
3682+1002950344+1001800175+999015472+994278268+989124670+987529884+989648073
3672+991728045+992577649+994389275+998368833+1002704577+1005634740+1006685780
3662+1006195538+1004748212+1002844394+1001044644+999971850+999337910+997668923
3652+993783323+988282474+984821852+986781644+991861865+996631054+1000043464
3642+1002209043+1003451287+1003940824+1003539011+1002083690+999903529+997749121
3632+995900101+993951009+992354929+993139152+996240530+999107312+1000061808
3622+998648702+995427968+992319417+991364920+992191829+993216763+994105055
3612+995183611+995890223+995468772+994756869+995389398+997205257+998601195
3602+998778524+998335789+998113540+998104368+997996183+998036046+998564976
3592+999042989+998316622+995808614+992670665+991677833+993789085+996875999
3582+999007006+999750659+999520414+998971140+998699032+999052044+999897885
3572+1000485493+999727846+996882819+992500861+989199694+989526718+992501097
3563+995604121+997819912+999534407+1001154593+1002247496+1002106738+1000831214
3553+999478433+998988897+999077561+998713966+997517817+996419271+996690791
3543+998347196+1000224674+1001293470+1001447398+1001329100+1001529830
3534+1001921059+1001879079+1001061695+999826036+998956323+998917400+999447742
3524+1000072744+1000716327+1001501961+1002262665+1002669769+1002707281
3516+1002665654+1002652718+1002420591+1001801703+1001084978+1000731731
3507+1000782061+1000827687+1000542878+1000066042+999848731+1000084856
3499+1000458917+1000599322+1000631308+1001057697+1002018191+1002945053
3490+1003132377+1002479152+1001595446+1001170233+1001280182+1001505606
3482+1001655066+1001988322+1002581458+1003007259+1002947522+1002653424
3473+1002551236+1002716689+1002925650+1002965749+1002834986+1002790301
3465+1003128379+1003815706+1004476574+1004834643+1005032433+1005365689
3456+1005753038+1005737869+1005151319+1004398140+1003827700+1003321113
3448+1002805236+1002610973+1002961398+1003639435+1004372505+1005037725
3439+1005506212+1005672017+1005547605+1005192476+1004708349+1004310416
3431+1004189884+1004329702+1004588875+1004867686+1005060420+1004988101
3422+1004588993+1004134146+1003987273+1004136380+1004228690+1004036427
3414+1003654722+1003332754+1003282425+1003549947+1003974220+1004317237
3405+1004412016+1004157664+1003562530+1002838397+1002301235+1002172001
3397+1002456927+1002870499+1002948345+1002486325+1001787357+1001290883
3388+1001091093+1001005486+1000942221+1000966681+1001059814+1001044292
3380+1000836976+1000584741+1000414820+1000241019+999957034+999602728+999197388
3370+998660814+998040280+997560621+997299684+997066263+996730772+996409746
3360+996232416+996202430+996350597+996715838+997132938+997279105+996962429
3350+996262990+995478062+994953013+994821427+994907387+994907505+994587418
3340+993922552+993214294+992889739+993022148+993285084+993451595+993635862
3330+993999457+994531209+995131988+995676323+995990529+995964894+995726887
3320+995600828+995836836+996380230+996905044+997097190+996923389+996622705
3310+996444788+996459487+996593895+996730655+996779103+996745471+996706313
3301+996697847+996735711+996915157+997301095+997764056+998121654+998402464
3291+998766059+999191390+999461265+999500423+999540051+999841793+1000378602
3281+1000867903+1001035355+1000824747+1000456683+1000260657+1000376603
3272+1000671407+1000928463+1001007250+1000929404+1000931285+1001260779
3264+1001836393+1002311113+1002480328+1002412125+1002249965+1002104856
3255+1002042532+1002026540+1001986206+1001995613+1002195167+1002515136
3247+1002688937+1002567111+1002258902+1002001140+1002001493+1002292181
3238+1002621556+1002680117+1002491852+1002370027+1002493028+1002778542
3230+1003082048+1003304415+1003390139+1003355097+1003261023+1003170830
3221+1003187058+1003389669+1003673537+1003852277+1003938355+1004115801
3213+1004433771+1004734925+1004881209+1004878152+1004784548+1004623917
3204+1004372388+1004000091+1003594162+1003418714+1003691411+1004302538
3196+1004916252+1005332528+1005590173+1005771147+1005863928+1005859812
3187+1005885918+1006098172+1006421785+1006580182+1006416964+1005996101
3179+1005486574+1005201531+1005513503+1006379570+1007234465+1007632868
3170+1007677083+1007603470+1007365934+1006892978+1006427783+1006305016
3162+1006525031+1006769506+1006793142+1006612873+1006355816+1006166257
3153+1006241516+1006684487+1007288205+1007714007+1007871345+1007890630
3145+1007754576+1007261277+1006420727+1005637915+1005371922+1005741279
3136+1006475643+1007117461+1007309489+1007047847+1006635686+1006349231
3128+1006236930+1006219762+1006247396+1006355228+1006587003+1006841355
3119+1006882865+1006583945+1006077358+1005639091+1005473757+1005583705
3111+1005819831+1006073360+1006285614+1006285143+1005944126+1005528437
3102+1005447416+1005657436+1005774322+1005687775+1005559599+1005390737
3094+1005080646+1004746684+1004587934+1004594402+1004646025+1004700588
3085+1004682596+1004413898+1003869563+1003338281+1003135552+1003288657
3077+1003612506+1003929300+1004111215+1004064649+1003736213+1003094395
3068+1002210572+1001416589+1001135073+1001396951+1001766543+1001870612
3060+1001782301+1001826986+1002209513+1002822286+1003282307+1003227509
3051+1002706341+1002161183+1001946224+1002002316+1002081573+1002092156
3043+1002110853+1002177646+1002179410+1001908007+1001261014+1000402238
3034+999660584+999272294+999278879+999602140+1000068041+1000455742+1000700452
3024+1000985613+1001428818+1001777714+1001686110+1001218798+1000795584
3016+1000679991+1000756896+1000799817+1000786529+1000959978+1001558640
3007+1002449401+1003148135+1003301005+1003000909+1002596745+1002388606
2999+1002434350+1002448578+1002091803+1001497727+1001150007+1001134720
2990+1001022184+1000552286+999953271+999555926+999467262+999571801+999602140
2980+999323799+998755358+998082025+997409515+996764286+996225949+995900336
2970+995819197+995884108+995866822+995556261+994989231+994451364+994195483
2961+994235347+994415969+994572249+994626224+994611642+994606586+994619991
2951+994565429+994345296+993922199+993330240+992668901+992065888+991625975
2941+991425363+991487099+991703939+991890440+991969227+991984749+991947002
2931+991863159+991891381+992229929+992853756+993512155+993963709+994109406
2921+993957712+993614695+993324478+993362342+993766389+994260982+994539558
2911+994515570+994281091+994026974+994046847+994565546+995480061+996408570
2901+996988535+997058855+996684794+996130934+995711365+995527921+995369760
2891+994961950+994301434+993659145+993287083+993224759+993324830+993345291
2881+993121278+992739574+992421957+992251448+992175836+992185244+992284139
2871+992401731+992488867+992590702+992727697+992837058+992899734+993023206
2861+993338001+993855995+994460419+995011338+995440197+995782861+996181852
2851+996799329+997669864+998649055+999517944+1000141301+1000578509+1001003369
2842+1001430229+1001667295+1001689991+1001827221+1002352858+1003117325
2833+1003773725+1004165425+1004355102+1004462581+1004589463+1004768321
2825+1004915781+1004904375+1004701528+1004429067+1004284546+1004381089
2816+1004646025+1004910372+1005078764+1005169781+1005234104+1005322533
2808+1005494218+1005749158+1005976464+1006063835+1006047254+1006060660
2799+1006152499+1006256803+1006340647+1006460356+1006647798+1006854760
2791+1007035264+1007182372+1007265275+1007236935+1007122282+1007023623
2782+1007033853+1007184371+1007437665+1007696603+1007868993+1007936374
2774+1007934845+1007908622+1007934963+1008105236+1008390750+1008622995
2765+1008708720+1008777864+1009001054+1009347834+1009615826+1009653926
2757+1009493648+1009305030+1009237179+1009269047+1009258699+1009164860
2748+1009114295+1009198256+1009322081+1009345599+1009268812+1009181205
2740+1009114883+1009077254+1009143458+1009355595+1009582077+1009649693
2731+1009584782+1009560323+1009634171+1009701433+1009694613+1009691203
2723+1009789275+1009974130+1010166393+1010347250+1010534339+1010643347
2714+1010498827+1010071026+1009613592+1009450727+1009653691+1010015405
2706+1010284103+1010327847+1010154164+1009927563+1009896049+1010131351
2697+1010401107+1010448850+1010320909+1010260820+1010359597+1010490948
2689+1010539161+1010501884+1010386996+1010211549+1010102541+1010183679
2680+1010378294+1010506940+1010524462+1010479189+1010351601+1010127353
2672+1009907220+1009796566+1009791274+1009841368+1009926035+1010045038
2663+1010194027+1010339489+1010412279+1010398168+1010402636+1010519993
2655+1010662985+1010653460+1010464019+1010233303+1010058444+1009924153
2646+1009814792+1009741062+1009678150+1009638051+1009748000+1010088312
2638+1010528930+1010884059+1011140880+1011407579+1011685803+1011810333
2629+1011662872+1011416399+1011412989+1011731193+1012049398+1012032935
2621+1011668869+1011202734+1010967549+1011212376+1011831500+1012354197
2612+1012416403+1012125598+1011856194+1011850197+1012063039+1012276586
2604+1012385477+1012561630+1012960620+1013349733+1013327038+1012845262
2595+1012223435+1011750949+1011539048+1011590553+1011780817+1011911697
2587+1011965202+1012163815+1012636419+1013160174+1013398416+1013327155
2578+1013241666+1013367254+1013676875+1014073513+1014464861+1014620200
2570+1014298467+1013621606+1013063749+1012959915+1013208622+1013469795
2561+1013487316+1013240725+1012911467+1012700271+1012643474+1012696743
2553+1012954153+1013538351+1014228030+1014512721+1014215330+1013800111
2544+1013818456+1014233321+1014555995+1014528478+1014358440+1014289295
2536+1014252371+1014079158+1013839387+1013793409+1014110555+1014715685
2527+1015307997+1015535891+1015284714+1014803526+1014473210+1014483910
2519+1014730854+1014960982+1015023424+1014991791+1015027069+1015176294
2510+1015321285+1015258726+1014891015+1014445928+1014338566+1014671705
2502+1015065522+1015134548+1014974976+1015008490+1015436996+1016014256
2493+1016379615+1016495326+1016633732+1017014966+1017519437+1017739452
2485+1017399963+1016773549+1016449818+1016630792+1016946527+1017014849
2476+1016870445+1016772373+1016806593+1016780605+1016515787+1016191115
2468+1016208871+1016676300+1017179360+1017170423+1016555063+1015847628
2459+1015669005+1016118913+1016769551+1017169130+1017203231+1017105042
2451+1017201585+1017474987+1017456407+1016796950+1015786597+1015074341
2442+1015033889+1015540947+1016230273+1016826936+1017185475+1017181477
2434+1016886438+1016723925+1016976278+1017256618+1016989449+1016253321
2425+1015647603+1015498732+1015700285+1016170183+1016931358+1017725459
2417+1018060949+1017823060+1017428185+1017191707+1016963461+1016549771
2408+1016079873+1015770605+1015653953+1015667124+1015779895+1015958165
2400+1016148782+1016380321+1016745915+1017160428+1017258617+1016787072
2391+1016067761+1015770840+1016170536+1016869269+1017359864+1017655726
2383+1018192888+1019259685+1020752283+1022417272+1024094490+1025779235
2374+1027635311+1029861332+1032453418+1035243294+1038053161+1040585393
2366+1042485919+1043771438+1044803780+1045729349+1046220414+1045643624
2357+1043524847+1040188284+1036558093+1033243403+1030503386+1028803002
2349+1028626849+1029989978+1032276559+1034487411+1035967310+1036792220
2340+1037197678+1037124183+1036536104+1035788570+1035297387+1034986591
2332+1034457778+1033650625+1032887451+1032303018+1031726816+1031058656
2323+1030368625+1029651195+1028716572+1027407770+1025875072+1024555570
2315+1023759588+1023302859+1022761935+1022076490+1021570373+1021409506
2306+1021357060+1021063668+1020437254+1019790261+1019577654+1019857641
2298+1020164675+1020109406+1019860464+1019773093+1019800492+1019608934
2289+1019171373+1018913376+1019157732+1019627984+1019752867+1019425255
2281+1019149971+1019367634+1019924669+1020353998+1020455951+1020400330
2272+1020389981+1020412559+1020343297+1020153503+1019933136+1019774621
2264+1019683605+1019515213+1018993103+1018028611+1017032840+1016605745
2255+1016954759+1017913253+1019282380+1020703247+1021539916+1021415386
2247+1020669263+1019995107+1019787439+1019935840+1020151975+1020485114
2238+1021320371+1022673388+1023867302+1024247478+1023883765+1023298508
2230+1022831667+1022539686+1022541802+1023114359+1024250888+1025393650
2221+1025919640+1025620250+1024578618+1023231834+1022545330+1023150460
2213+1024273113+1024490659+1023498062+1022220658+1021379403+1020927731
2204+1020818135+1021249228+1021960896+1022277220+1022192906+1022435852
2196+1023207727+1023993714+1024689977+1025659173+1026627427+1026762423
2187+1025936103+1025037580+1024957735+1025758538+1026922114+1027978680
2179+1028631670+1028752555+1028713514+1029110506+1029684356+1029493739
2170+1028509256+1027831219+1028073695+1028726920+1029275017+1029828406
2162+1030479985+1031008797+1031377331+1031588057+1031167782+1029871092
2153+1028403776+1027529478+1027098267+1026708213+1026414703+1026162585
2145+1025689747+1025391650+1025918346+1026802405+1026806285+1025651294
2136+1024341787+1023810387+1024049335+1024508768+1024649291+1024029697
2128+1022544860+1020952543+1020512630+1021528275+1022807561+1023188912
2119+1022950082+1022974894+1023229482+1022991945+1022192318+1021604357
2111+1021740293+1022263814+1022655867+1022887171+1023108479+1023129646
2102+1022649046+1021803676+1021099180+1020879400+1021129402+1021693374
2094+1022436675+1023240653+1024027110+1024748891+1025250775+1025247953
2085+1024628477+1023714550+1023047684+1022962077+1023452789+1024322031
2077+1025287699+1026112961+1026813929+1027625433+1028576872+1029189410
2068+1028803237+1027254312+1025252068+1023973253+1024045572+1024998892
2060+1025897532+1026289938+1026306401+1026267007+1026608848+1027645306
2051+1028872734+1029195054+1028499379+1028227388+1029425065+1031233869
2043+1032248220+1032241164+1031777263+1031141912+1030523024+1030525846
2034+1031588174+1033193426+1034368408+1034794798+1034910508+1035160510
2026+1035448963+1035089601+1033332656+1030419190+1027942579+1027488791
2017+1028832870+1030159899+1030414839+1030432125+1031287021+1032709064
2009+1033734586+1033982470+1033436960+1032009743+1030237039+1029236800
2000+1029346278+1029836403+1030233747+1030879916+1031999277+1033099117
1992+1033354645+1032368281+1030819709+1030247270+1031634976+1034245995
1983+1036371475+1037115716+1036864069+1036220604+1035252114+1034056671
1975+1033352411+1033570309+1033898980+1033216827+1031589585+1030134852
1966+1029704817+1030280078+1031377331+1032428489+1032937781+1032689073
1958+1031789375+1030588993+1029605099+1029136023+1028896723+1028414477
1949+1027705866+1027119081+1026614140+1025852495+1025062863+1025035934
1941+1025837325+1026514069+1026445747+1026015125+1025884362+1026199980
1932+1026663999+1026999960+1027070750+1026612141+1025200328+1022935383
1924+1021022275+1020773450+1021874349+1022857655+1023089429+1023256763
1915+1023990421+1024967613+1025464440+1025118836+1024270173+1023668924
1907+1023808271+1024618952+1025564746+1025896709+1025249599+1024071795
1898+1023110243+1022683383+1022686793+1022848130+1022801681+1022433029
1890+1022252055+1022872942+1024093432+1025171165+1025678576+1025613547
1881+1025120836+1024487836+1024176335+1024403640+1024763708+1024575795
1873+1023465254+1021491821+1019304487+1018350109+1019586944+1022020163
1864+1023995478+1024780524+1024626007+1024219256+1024122948+1024447149
1856+1024933041+1025268531+1025225140+1024658228+1023601779+1022224421
1847+1020606116+1018949006+1018135738+1018996866+1020808375+1022212309
1839+1022712311+1022706431+1022804738+1022986418+1022495588+1020822251
1830+1018761446+1017796014+1017972637+1018295781+1018665726+1019574362
1822+1020719475+1021372230+1021444431+1021339657+1021150686+1020567663
1813+1019467823+1018272145+1017683361+1017941123+1018546135+1018801193
1805+1018210174+1016625030+1014575515+1013166172+1012919110+1013157705
1796+1012915112+1011679570+1009735065+1008562670+1009398281+1011171572
1788+1012129008+1011713790+1010371944+1008667680+1006863580+1005226225
1779+1003896139+1002297707+999433748+994645862+987957567+980522209+973952682
1769+967963767+960889065+951991270+941296725+928332767+913387555+899295182
1759+888363865+879910099+873077401+867865535+863693245+859806233+856708559
1749+856014176+858249781+862176069+866574255+871042996+875641558+880598895
1740+885763900+889927077+891822076+891635281+891252518+892139987+893289569
1730+893602835+892688026+890169846+885945109+880494708+874550538+868276638
1720+861152781+853590717+849091285+850642974+855777639+861345515+866304792
1710+870309573+873276661+875952002+879324959+883066921+886373792+889965177
1700+895397645+902691246+911904482+923893189+936173701+945317204+951514081
1690+956447076+960508183+962913709+963729329+965501562+970727421+977203167
1680+982448252+986031171+988100206+989173941+989996734+990485683+990188527
1670+990276957+992946418+997327200+1000414820+1001101677+1000623664+1001123314
1660+1002806647+1003843575+1002805118+999166578+993227582+988714156+989615147
1650+991461581+990948644+989641371+991211580+995665034+999633772+1001644012
1640+1001633899+999669873+996372234+994437018+997073319+1002174824+1005893561
1630+1007225411+1006848175+1006023736+1005498451+1005233398+1005573357
1622+1006975292+1008461070+1008571960+1007406385+1007250693+1009502232
1613+1012172282+1013331036+1012884303+1011917930+1011522585+1011849138
1605+1012468967+1013212033+1014254135+1015601154+1016837872+1017517320
1596+1017657961+1017707232+1017987689+1018402437+1018779438+1019155498
1588+1019559780+1019836004+1019875868+1019814250+1019735228+1019244398
1579+1017614216+1014624433+1011833616+1011790225+1013549758+1014034590
1571+1012301398+1010114535+1009779162+1010740596+1011176040+1010343370
1562+1007759515+1002074635+992911611+987137714+989604329+993842001+996397163
1553+996998060+995931615+993941249+991530020+988034237+982440256+974880661
1543+966603166+959472313+957345246+960718850+964055295+964433883+962501254
1533+960710207+960297164+959753182+957852950+955227644+953102693+951528545
1523+950461983+951200345+954019619+957470364+961654120+967415905+973599553
1513+978057005+979597522+978107981+975075394+975924469+984996829+995102708
1503+1000825452+1002516076+1001346621+998992659+998248418+1000839563+1004694238
1493+1006696599+1005832413+1003819704+1004296776+1008305613+1012973673
1485+1015965220+1017078936+1017243330+1017170893+1016526370+1014498022
1476+1010893701+1006698598+1004284899+1005755037+1009496000+1012193331
1468+1012460030+1010901345+1009374997+1008840658+1007788560+1004268083
1459+997651755+990399605+988162648+991094928+994899038+997835317+999747484
1449+1000923172+1002050999+1003533367+1004883208+1005398027+1004824530
1441+1003176945+1000346029+996435381+992802015+991001207+990236623+989050117
1431+987486845+986529292+986180630+985312388+983536569+981728235+980442599
1421+979154964+978100925+979219698+982856591+986801165+989456280+990707697
1411+991172069+991269083+990812237+989736268+988886428+989157361+990022722
1401+990381614+990154426+990075404+990489563+991302832+992473462+993431134
1391+992985929+990291538+985634826+980557957+976256432+972087257+966896794
1381+960533230+953609340+946538282+939295422+932175682+926340225+922710387
1371+920639411+919067379+917927557+917525039+917711364+918696552+921726316
1361+927525084+934858431+942093236+948662233+954783439+960796519+966730577
1351+972353780+977505438+982197781+986492132+990324699+993324948+994941136
1341+995097063+994819781+995682438+998041456+1000683754+1002411890+1002971393
1332+1002737502+1002168474+1001598151+1001238789+1001108497+1000959037
1323+1000446688+999491721+998477488+997998064+998303922+999110722+1000052636
1313+1001062636+1002225506+1003525253+1004864629+1006151676+1007295026
1305+1008214127+1008840070+1009079606+1008870409+1008271982+1007393450
1296+1006237048+1004702587+1002762902+1000610611+998585790+996896342+995483471
1286+994225822+993125982+992159961+991123503+989799062+988192752+986494602
1276+984846135+983203900+981433901+979509093+977547595+975602208+973495131
1266+970940027+967751161+963891783+959471137+954783733+950171942+945716253
1256+941227992+936564813+931742119+926768202+921604079+916256924+910763308
1247+905144397+899458165+893785867+888137441+882489720+876925960+871663118
1237+866947199+862928072+859595213+856835499+854565440+852766925+851407029
1227+850399146+849650671+849055302+848437590+847604507+846522659+845417703
1217+844656646+844523355+845148358+846644367+849208466+852980120+857823980
1207+863425428+869665226+876737518+884788178+893627235+902962414+912685236
1197+922671288+932462254+941424548+949143303+955490874+960400469+963742558
1187+965446764+965681713+964856510+963374612+961384657+958855130+955903388
1177+952923306+950344097+948346675+946827206+945555328+944355241+943183257
1167+942034851+940790314+939198761+937017425+934131123+930529390+926213225
1157+921219082+915758921+910224912+904990939+900328053+896549697+894074027
1147+893204138+893897991+895785112+898369848+901229927+904106410+906880353
1137+909481964+911821520+913804831+915416257+916755339+917941374+918973423
1128+919725543+920123651+920312328+920586553+921137238+921926752+922831977
1118+923827513+924988443+926365919+927903849+929444601+930783154+931736592
1108+932236712+932392463+932401870+932340722+932108772+931636462+931033861
1098+930454190+929933491+929471942+929143271+928969529+928759274+928193773
1088+926990333+924919828+921851199+917922677+913530489+909016004+904466889
1078+899839869+895096609+890141213+884796468+879013516+873065347+867366944
1068+862083289+857052222+852119050+847389549+843112718+839412796+836193002
1058+833281712+830653701+828453139+826790031+825623575+824891857+824640092
1048+824919374+825606054+826439724+827251169+828047445+828859596+829648640
1038+830388237+831068038+831604905+831895064+831928695+831755541+831519533
1028+831674990+832945222+835807123+840077368+845118783+850358459+855527344
1018+860567819+865519217+870468499+875448119+880355714+885033182+889375334
1009+893294331+896656176+899360328+901450472+903071716+904339831+905303735
999+905983477+906363535+906409925+906221601+906109477+906381291+907097840
989+908135121+909382657+910829453+912579697+914784845+917485587+920615540
979+924197988+928316715+932836315+937388135+941678606+945591723+949029415
969+951891023+954230521+956283858+958291746+960341261+962399537+964488328
959+966756977+969305495+971984364+974489726+976628729+978375856+979763974
949+980889626+981914089+982858590+983500350+983637286+983348656+982875112
939+982335129+981642157+980710180+979748746+979214818+979331881+979809600
929+980245867+980619634+981169143+981923085+982588716+982867880+982700605
919+982180377+981396684+980454593+979505976+978648611+977879499+977151486
909+976353681+975309285+973959797+972537812+971474425+971138347+971643758
899+972882064+974749370+977218043+980113634+983030628+985627065+987868667
890+989956165+992192299+994878577+998136705+1001808053+1005608988+1009344776
880+1012962737+1016484155+1019882571+1022956080+1025352139+1026841328
871+1027575574+1027971507+1028341687+1028726449+1028973275+1028839691
863+1028177646+1027131545+1025927283+1024415635+1022147045+1018933601
854+1015021660+1010698733+1005970231+1000613198+994448777+987593972+980429958
844+973336028+966632329+960829151+956657625+954610285+954552018+955957775
834+958333902+961052988+962960511+962719329+959664694+954128039+947096493
824+939813122+933531403+929433430+928625336+931782453+938568761+947710618
815+957779396+967720998+976847686+984851309+991876917+998287694+1004269847
805+1009693790+1014322221+1018065771+1021027449+1023486303+1025894828
796+1028542535+1031162373+1033304081+1035040448+1036806801+1038731551
788+1040609499+1042300594+1043780610+1045000982+1045873987+1046310607
779+1046265922+1045766625+1044845290+1043541545+1041995207+1040367377
771+1038644062+1036632177+1034146864+1031039842+1026948925+1021282624
762+1013952276+1006069714+999358842+994886573+992729814+992483928+993482404
752+994839183+995866587+996392695+996549680+996433382+996020398+995384459
742+994944193+995257929+996511816+998513589+1001166705+1004554420+1008619702
732+1013106082+1017695708+1021996057+1025571684+1028187289+1029988802
724+1031405201+1032830654+1034290562+1035410040+1035830668+1035606184
715+1035046092+1034308671+1033261630+1031482224+1028293239+1023205140
707+1016477922+1008901806+1001089212+993439600+986679339+981928259+980158555
697+981626459+985596961+990612565+995340479+999137416+1001770306+1003053943
687+1002955989+1001674468+999457619+996599540+993546609+990714753+988218739
677+985895410+983665332+982015807+981919440+983963781+987684518+991165719
667+992173367+991598223+991460170+992054599+992889386+993619281+994127750
657+994398448+994618580+995091654+995899160+996844955+997707611+998440329
647+999166108+999948214+1000566044+1000705508+1000408235+1000155412+1000428696
637+1001233850+1002104033+1002595569+1002714925+1002791595+1003101686
629+1003746679+1004698236+1005781378+1006687544+1007135453+1007066309
620+1006673668+1006173078+1005489867+1004261263+1002164005+999096141+995098004
611+990363387+985378710+980848174+977327815+974956861+973601023+973206089
601+973839088+975386367+977538482+980192421+983463779+987120898+990503557
591+993318716+995992058+998875655+1001711863+1004092871+1005878509+1007053491
581+1007744816+1008451193+1009706960+1011489894+1013283058+1014670529
572+1015637373+1016325170+1016808827+1017251327+1018081410+1019588355
564+1021350945+1022637287+1023469370+1024690448+1026689281+1028659422
555+1029565705+1029336165+1028576637+1027465037+1025532408+1022453961
547+1018630801+1015024012+1012691922+1012360665+1014079276+1017131970
538+1020344356+1022644931+1023604719+1023700321+1023845548+1024390705
530+1024978902+1025678223+1027554290+1031309598+1035767403+1038851025
521+1039580332+1038596438+1037480840+1037319974+1037728842+1037830324
513+1037465083+1036781519+1035645930+1034154037+1032955890+1032418964
504+1032080651+1031339937+1030176244+1028889315+1027422939+1025353080
496+1022447140+1018975347+1015524249+1012677929+1010624062+1008865352
487+1006762215+1004550657+1003396607+1004081112+1006028204+1008103119
479+1009913335+1011874421+1014134544+1016099510+1017397376+1018674663
470+1020747697+1023682565+1027071691+1030317825+1033072541+1035581490
462+1037559862+1037499655+1035039742+1033170025+1034715776+1038360195
453+1042232508+1046666912+1051485607+1054411302+1053791239+1050915050
445+1048608948+1048390579+1049859189+1052167760+1054904837+1057378978
436+1057909672+1054866502+1048867533+1043152550+1041399837+1044768502
428+1050933512+1056294778+1058446246+1057174250+1053780185+1049324379
419+1045216411+1044777910+1048310851+1051508067+1051456444+1049647052
411+1050424572+1055572526+1061855951+1064808810+1063152052+1058804902
402+1054233268+1051490899+1052709155+1058236696+1063771411+1066110203
394+1067795771+1070947361+1073741823+1073121641+1068786015+1063810569
385+1062028223+1064593263+1068900079+1072071543+1073269690+1072825779
377+1071414555+1070273910+1071905150
##END=
