##TITLE=S. Marschner STM154
##JCAMP-DX=4.24
##DATA TYPE=INFRARED SPECTRUM
##DATE=1/3/2018
##SAMPLING PROCEDURE=Diamant-ATR 
##ORIGIN=Angelika Moesle
##XUNITS=1/CM
##YUNITS=TRANSMITTANCE
##RESOLUTION=4
##FIRSTX=3997.453
##LASTX=373.96442
##DELTAX=-1.4165319
##MAXY=0.78211886
##MINY=0.35822663
##XFACTOR=1
##YFACTOR=7.2840495e-010
##NPOINTS=2559
##FIRSTY=0.64501357
##XYDATA=(X++(Y..Y))
3997+885515087+885391279+885049398+884627324+884457120+884607849+884889668
3988+885161422+885327125+885226885+884859555+884538294+884539685+884792046
3978+885124926+885524742+885897392+885962609+885682181+885449214+885577031
3968+885917440+886195249+886383701+886560861+886686878+886715764+886742112
3958+886878440+887106333+887294131+887300432+887116726+886954459+887075238
3948+887480701+887911367+888098346+887863333+887249043+886686060+886642281
3938+887095205+887658106+888002279+887902284+887254198+886392293+885927914
3928+886063668+886514137+886986454+887376369+887616619+887629057+887432258
3918+887165332+886976716+886878030+886767316+886580909+886367581+886245574
3908+886245983+886194840+885936588+885776121+886274623+887291185+887937225
3898+887718332+887023441+886456938+886329612+886710690+887463353+888283362
3888+888999856+889627566+890052177+890092519+889850632+889511451+889012703
3878+888331804+887776185+887577832+887502713+887170651+886697761+886627143
3869+887201337+888062751+888657075+888569027+887927569+887466299+887592807
3859+887915540+887890910+887474809+887188326+887640186+888626143+889494676
3849+890021982+890161501+889874117+889286421+888694716+888296618+888106856
3839+888162582+888459785+888712227+888683587+888582283+888763452+889218258
3829+889578551+889558339+889229959+888938566+888948631+889176443+889383471
3819+889699903+890445038+891387872+891811419+891521335+891015468+890652147
3809+890339642+889764466+888890287+888208979+888167737+888628107+888980872
3799+888949777+888937994+889283967+889749001+889877636+889668645+889504823
3789+889605636+889853496+890066906+890173120+890208552+890331459+890621216
3779+890837408+890727921+890498391+890484071+890637254+890650920+890323358
3769+889735744+889171697+888861320+888861974+889130537+889538618+889871171
3759+890014781+890156591+890541842+891103762+891637696+892093320+892449030
3750+892535278+892388804+892302311+892270316+891854379+891007040+890415252
3740+890589139+891472074+892526522+893107754+893148832+893114709+893216995
3730+893243017+892883869+891989151+890866703+890275979+890674814+891703241
3720+892689362+893286632+893400129+892971181+892143235+891372488+891112026
3710+891319545+891632050+891928598+892247240+892462205+892315485+891850533
3700+891603246+891936044+892575211+893102844+893425577+893561086+893357168
3690+892816688+892378739+892361391+892696563+893411421+894394515+894981638
3680+894570529+893512153+892763335+892912510+893742256+894627400+895179091
3670+895293733+895115673+894900463+894717412+894550153+894449667+894422418
3660+894377412+894317595+894403107+894663486+894839664+894832218+894956843
3650+895438325+895737983+895145377+894134298+893622294+893827931+894378476
3640+894837046+895117146+895450190+895939364+896338771+896419619+896334107
3631+896366757+896492037+896399898+896011946+895541184+895220415+895289642
3621+895794609+896250314+896068818+895534556+895510007+896275763+897132267
3611+897218433+896565110+895922507+895697559+895638397+895552558+895607793
3601+895952702+896542771+897293961+897933291+897855554+896796605+895488896
3591+894926321+895273031+895833805+895956385+895829222+895932081+896242950
3581+896395561+896105722+895367707+894451549+893727690+893407575+893481467
3571+893818029+894185605+894377576+894528223+894931558+895387346+895448963
3561+895150123+894946697+895073041+895329984+895513608+895683567+895913015
3551+896060389+895974469+895729718+895473594+895257074+895126802+895143332
3541+895259038+895390128+895527192+895657545+895738392+895788308+895820467
3531+895749112+895502725+895144314+894861185+894892771+895301998+895756558
3521+895836914+895588236+895411894+895491187+895675875+895872428+896193280
3512+896658314+896999541+896926876+896483772+895993780+895744775+895825540
3502+896152038+896570429+896949789+897162871+897068113+896683026+896341226
3492+896420600+896803969+896848975+896155638+895197912+894751207+894860858
3482+894933031+894748916+894691717+894935977+895181300+895279577+895468684
3472+895855244+896202444+896330752+896274045+896019393+895518108+894994894
3462+894877387+895336448+896102449+896758145+897050111+896939805+896550299
3452+896151465+896080028+896502184+897247646+897937874+898237777+898007674
3442+897426442+896948725+896819762+896746444+896462415+896347527+896919921
3432+897968314+898806898+899182002+899342959+899423806+899315956+898975874
3422+898468944+897955876+897778634+898085248+898364939+898007265+897215896
3412+896654468+896420355+896135345+895757213+895556568+895541593+895474330
3403+895301834+895249709+895587827+896415691+897549431+898540299+898928659
3393+898650441+898163149+897965123+898053416+898117488+898127308+898363794
3383+898906647+899415214+899463084+898933733+898047688+897121466+896423301
3373+896180432+896439585+896904783+897216306+897433562+897947775+898840284
3363+899608658+899710944+899219643+898732761+898728342+899211215+899878776
3353+900385133+900508613+900285629+899964205+899768634+899795146+900060845
3343+900444623+900635776+900399044+899930001+899758978+900194472+900914076
3333+901282225+901070124+900609836+900199300+899741630+899130040+898621064
3323+898496275+898573685+898353647+897544522+896231003+894612180+892789030
3313+890842482+888980708+887495757+886556442+886116775+886067842+886388202
3303+887054372+887915377+888788083+889610464+890419671+891248599+892056169
3293+892699181+893056610+893266829+893687758+894492300+895452482+896206945
3284+896617563+896816489+897028754+897350505+897655236+897776589+897762596
3274+897762432+897704497+897411140+897042583+897041192+897564570+898304549
3264+898940524+899429698+899777880+899889413+899784427+899720682+899941784
3254+900372450+900635121+900415983+899835406+899362189+899322175+899618723
3244+899978280+900309769+900670798+900973157+900951554+900535453+900072629
3234+899980735+900299704+900774885+901221180+901573945+901715837+901534094
3224+901179366+901061777+901462494+902222849+902925187+903311338+903408551
3214+903370664+903312484+903211671+902973385+902709977+902773313+903292027
3204+903898543+904155977+904029633+903780300+903639636+903734803+904086832
3194+904528135+904762576+904649897+904367832+904212112+904280030+904435014
3184+904529036+904544992+904551866+904649242+904928034+905340370+905647883
3174+905680533+905583811+905602632+905736750+905844682+905884287+905784374
3165+905383003+904763967+904330437+904364477+904826402+905555989+906301042
3155+906713870+906702577+906610765+906796026+907226610+907628963+907837627
3145+907884106+907821425+907570210+907055178+906446125+905981337+905524813
3135+904577642+902804408+900400435+897978379+896230348+895603129+896058262
3125+897072205+898010374+898604371+899042647+899559070+900078766+900362794
3115+900312060+899983844+899469631+898892491+898383105+898001455+897753840
3105+897620214+897481022+897155179+896595469+895979460+895598055+895677020
3095+896246796+897132431+898077392+898813362+899099109+898908529+898592915
3085+898644958+899250656+900159367+900950654+901367736+901449156+901422234
3075+901479433+901588838+901506682+901040011+900301832+899620032+899236827
3065+899204587+899458911+899831397+900102005+900202573+900297740+900592488
3055+901123395+901734412+902184962+902324972+902258445+902281602+902558348
3046+902894911+902951454+902651387+902265727+902083331+902107879+902115408
3036+901956250+901762397+901870903+902521198+903614269+904773541+905658849
3026+906210049+906579916+906901585+907234138+907634119+908057747+908277049
3016+908157742+907928539+907941796+908256428+908629323+908803700+908702314
3006+908437270+908179100+907981892+907774455+907548689+907466533+907695981
2996+908159870+908559277+908694131+908600928+908295297+907618980+906430741
2986+904635577+902000029+898353074+893968185+889315307+884469967+879194288
2976+873574927+868267908+864110831+861583215+860461421+859898847+858988009
2966+857353638+855269290+853370694+852289242+852344640+853420282+855081656
2956+856767906+858054585+859034897+860332459+862387267+864849501+866991866
2946+868524360+869652781+870541935+871043547+870822772+869604175+867407394
2936+864573247+861529863+858637780+856183811+854241436+852552731+850850115
2927+849273188+848260391+848120627+848855206+850242044+851966999+853809870
2917+855723441+857602235+859082276+859801389+859813336+859533072+859291431
2907+859095696+858788346+858292953+857708530+857253479+857087612+857168214
2897+857400772+857909748+858930892+860438346+862164610+863991524+866022274
2887+868266844+870525979+872583405+874323171+875688734+876655789+877212062
2877+877285708+876747764+875631372+874358112+873564371+873571245+874174570
2867+875038111+876025296+876988915+877588066+877590521+877151263+876587216
2857+876035689+875493899+875046049+874853832+874999979+875480479+876263419
2847+877206580+878036735+878484421+878242044+876843259+874090041+870702975
2837+868072909+867203231+868138618+870299885+872970211+875514847+877578001
2827+879216463+880702151+882183583+883604871+884853417+885857786+886599566
2817+887128754+887535199+887897211+888302428+888839799+889488703+890118213
2808+890643883+891067266+891396382+891679019+892012963+892379557+892608351
2798+892628072+892630118+892889843+893486704+894232411+894881806+895385136
2788+895850907+896317823+896717885+896996758+897114919+897013370+896727623
2778+896462906+896423628+896602261+896822299+896988739+897168517+897373663
2768+897451728+897337494+897223834+897295598+897454837+897512445+897521037
2758+897711944+898138518+898573685+898797733+898839629+898860659+898940606
2748+899078979+899305236+899666184+900103724+900431940+900522442+900472036
2738+900467290+900539545+900601817+900637412+900687573+900737244+900737571
2728+900672599+900576040+900532917+900594616+900652141+900515978+900138583
2718+899634189+899117030+898651914+898291375+898040896+897857845+897749012
2708+897771924+897926499+898169286+898501512+898885453+899178401+899356379
2698+899663729+900306578+901141888+901863783+902323662+902506796+902406882
2689+902129728+901967870+902147321+902558266+902921832+903151035+903321158
2679+903408306+903359617+903299800+903380484+903569345+903767617+903928411
2669+903995920+903981190+904068584+904396309+904831639+905138989+905238329
2659+905206252+905159855+905201097+905364264+905563763+905661467+905647638
2649+905701972+905978391+906382544+906689239+906817956+906860262+906897412
2639+906920733+906924907+906973922+907098630+907170721+907045523+906844878
2629+906881537+907275217+907823062+908233925+908351759+908189083+907844992
2619+907414817+907031939+906902895+907111395+907490672+907874041+908276394
2609+908646098+908753785+908551913+908385063+908642825+909345981+910149215
2599+910667356+910787399+910673984+910488969+910248719+909980401+909833109
2589+909971973+910472930+911253824+912040201+912580190+912933119+913306750
2580+913700511+913998532+914233136+914485988+914753487+915024995+915210502
2570+915088904+914690887+914487624+914838016+915514333+916004406+916031656
2560+915734698+915526525+915674145+915960955+915986240+915697220+915288157
2550+914795547+914192713+913635130+913264199+912998909+912764142+912635834
2540+912580518+912355079+911866642+911356929+911048188+910880029+910819721
2530+911121916+911936033+912919208+913636194+914128804+914695143+915337828
2520+915847213+916189831+916437036+916547833+916517638+916518047+916711409
2510+917084958+917471764+917642950+917588779+917741309+918532677+919716906
2500+920589367+920863658+920862758+920900317+920942377+920879533+920778228
2490+920786329+920931821+921090815+921170353+921268220+921545539+921929235
2480+922113841+921950592+921685139+921617876+921660181+921507161+921137867
2470+920783956+920571119+920598777+921132220+922221528+923331457+923804101
2461+923539629+922931395+922315059+921745611+921278367+921204557+921743074
2451+922551217+922954143+922769700+922511203+922659068+923119683+923509844
2441+923684794+923808029+923999754+924163085+924279691+924596205+925203377
2431+925696724+925618577+925017952+924299248+923795345+923687249+924040996
2421+924692109+925250019+925382582+925073432+924555536+924055398+923657218
2411+923353878+923145132+923122793+923460910+924191561+925015415+925522592
2401+925577090+925318265+924895700+924387787+923882247+923513772+923437916
2391+923711880+924151710+924449650+924501938+924453659+924404398+924305713
2381+924175686+924141318+924196962+924199253+924256861+924797341+925890086
2371+926846421+927081843+927082252+927703498+928698702+928904993+927881394
2361+926515095+925902033+926245551+926955826+927409650+927357034+926792905
2351+925857027+924892181+924286483+924220774+924603897+925236927+926038360
2342+926958281+927767734+928172869+928090222+927741958+927486406+927520037
2332+927744412+927911507+927809139+927392057+926918431+926854686+927445409
2322+928435213+929322075+929772053+929733757+929364217+928914076+928681927
2312+929013580+930015085+931146862+931588820+931187613+930601554+930445751
2302+930783296+931406096+932065720+932418157+932193291+931514029+930812018
2292+930410565+930324562+930451643+930777731+931310356+931930702+932416439
2282+932613810+932563731+932440578+932328800+932115717+931685133+931193832
2272+931093509+931772036+933044231+934165861+934646361+934818365+935228983
2262+935866513+936418531+936864254+937389923+937964281+938305181+938268030
2252+938085224+938017879+937977128+937872469+937919684+938101426+938060839
2242+938072868+939001382+940752440+942002133+941902301+940929027+939935869
2232+939355128+939244987+939428447+939709284+940113110+940725519+941523351
2223+942582219+943934361+945065647+945219403+944397186+943451815+943048562
2213+942953559+942448755+941141701+939244087+937276508+935644675+934308816
2203+932742773+930449352+927645236+925143396+923417868+922147555+920957025
2193+920224737+920685843+922498356+925221624+928331863+931209543+933248803
2183+934700695+936400038+937946033+937727632+935598523+933755652+934118646
2173+936361824+939075601+941150784+941718677+940417432+938276622+937227575
2163+938337339+941287438+945453352+950188633+954015857+955252211+953504589
2153+949691440+945511942+943182516+944189422+947416185+949737591+949418867
2143+947758066+946812041+947045417+947851433+948829617+949516653+949034926
2133+947122664+944881286+943734043+944007434+944817787+945088232+944551679
2123+943837475+943646077+944013571+944452829+944487279+943845249+942570272
2113+941265836+940825186+941550928+942868538+944084435+944979153+945515952
2104+945505314+944818032+943642068+942449328+941855986+942252039+943314015
2094+944238847+944716155+945201810+946075907+947103925+947931134+948469978
2084+948530368+947769850+946424581+945416366+945336092+945904558+946632590
2074+947342538+947980232+948552708+949224114+950080864+950969854+951572770
2064+951428097+950274635+948577174+947095169+945945145+944784564+943653851
2054+943017221+943298222+944553315+946082945+946634636+945900957+945342556
2044+946546506+949252182+951542248+951952784+951190056+951240544+952990949
2034+955502608+957468549+958464899+958792706+958832802+958654088+958168596
2024+957682859+957764116+958472182+959290390+959707063+959482606+958753019
2014+957969506+957335086+956777176+956905157+958789106+961850901+963457613
2004+962071430+959287690+957536222+957434345+958263763+959484407+960784587
1994+961657130+961705409+960881964+959429418+958096505+957923519+959050795
1985+960176107+960034461+959169038+959324022+961036048+962756012+963192078
1975+963395996+964768023+966448709+966636097+965319387+964132457+964106845
1965+964654117+964641924+963803996+962905350+962681956+962930062+962959439
1955+962557740+962122246+962069221+962408566+962871145+963263106+963476352
1945+963264661+962534992+961924138+962278458+963359255+964046864+963924775
1935+963820116+964543157+965846038+967065045+967987912+968624378+968855463
1925+968757841+968710544+968905542+969210683+969550109+969921449+970160554
1915+970182648+970268486+970737775+971456480+971869061+971617846+970977125
1905+970520765+970553169+970964196+971378251+971403209+970977780+970437054
1895+970082325+969871125+969691019+969699202+970208751+971227767+972221417
1885+972631953+972504873+972321657+972413633+972885459+973718969+974558208
1875+974929220+974983391+975463564+976772746+978368084+979077050+978260397
1866+976520958+974915637+974126805+974408624+975654634+977384254+979004631
1856+980135590+980612162+980489419+980165212+980131089+980536143+981173673
1846+981771188+982185979+982480727+982799697+983200413+983699979+984225976
1836+984508041+984324498+983783281+983189448+982840447+982887663+983170218
1826+983357443+983283306+983012779+982670816+982339818+982028049+981633715
1816+980999050+980011210+978682798+977246290+976124578+975709296+976182840
1806+977454790+979175736+980942751+982502739+983750959+984750745+985703153
1796+986739190+987891342+989169675+990366096+991121787+991526841+992050874
1786+992952629+994083424+995117988+995922367+996658910+997512550+998496544
1776+999666125+1001202792+1003043372+1004688544+1005742174+1006328888
1768+1006712502+1007057002+1007515326+1008290001+1009501643+1010898301
1759+1012083021+1013083462+1014136356+1015223536+1016250326+1017275725
1751+1018316099+1019282254+1020067730+1020503797+1020508298+1020136385
1742+1019217854+1017456731+1015143507+1012952454+1010786849+1007458864
1734+1001600890+993595641+984827092+975087232+963342726+948716693+929594975
1724+904018013+872121726+834929875+790175470+735030010+677626234+635488761
1714+614851939+610660330+617996013+633393612+654017792+678339169+703998328
1704+726883443+746153435+765319340+785586827+803027532+816584878+828495170
1694+838679689+846572177+853477726+860372719+866722322+872191362+877894434
1684+884882139+891846605+897122448+901042629+904288376+906966230+908876037
1674+909907328+910460983+911597179+914542777+919311607+924320442+928632257
1664+932574369+936404129+939806497+942514873+944676141+946542824+948382912
1655+950682880+953793773+956762447+958798270+960553175+962831785+965630582
1645+968178083+970188703+971911858+973493694+975021360+976762272+978994730
1635+981382091+983260148+984778731+986722906+989760807+993852421+998354488
1625+1002860893+1007318773+1011479286+1015172965+1018921470+1023342609
1616+1027315652+1027358612+1019686980+1000036729+963523649+909515285+846685837
1606+790097569+752743451+739841883+748053995+768417631+791830543+813238645
1596+831610154+847630962+861925833+874656706+885925868+895987807+905070744
1587+913272382+920608842+927050175+932557839+937174713+941239323+945542382
1577+950622326+955232327+957320684+956131054+950983683+941452242+930347720
1567+922454004+920084318+922190679+925824704+928295449+928256171+926750599
1557+926797651+929495471+934312908+940335440+946817442+953514409+960152868
1547+966330384+971759083+975754711+976780929+972573773+962475829+951496915
1537+944941758+943891728+948380867+957204733+966786171+974449539+979448881
1527+980630655+976374975+965314150+944720901+912949157+876194764+843615204
1517+819473442+805790406+802133223+803059527+801040397+790484047+768978815
1507+741099676+723614947+725433924+737880114+753855343+771574103+791021746
1497+811944765+831985422+848097142+860297763+870965400+881865677+892614243
1487+901795947+908780052+913150620+913694456+908826367+898101450+883280910
1477+867880447+855895036+850147531+850764931+854901960+858917717+861037334
1468+860879649+858348597+854337421+851185368+850636951+852756649+856944657
1458+861554821+863279530+861531581+859864643+861532972+867503707+876207611
1448+884258111+888020772+885355602+876987114+866952506+860638172+861367432
1438+869482168+882367698+895074595+904974431+913032868+920508847+927421188
1428+933310830+938291188+942850209+947124546+950905127+954081729+956077538
1418+955270541+951152169+945885982+942226181+941108151+940706207+937980811
1408+931154145+920100602+905766781+890554034+877844273+870447505+869864228
1398+875456176+884572744+894671260+904121773+911816971+917644996+922454741
1388+927181838+932231833+937458496+942553906+947219550+951079341+953780926
1378+955158108+955073415+953158043+948928548+942043293+931959260+917906194
1368+900702057+884409495+874477419+874312615+883362248+897089962+910494042
1358+921825639+931798303+941219111+950068835+957667721+963163356+966247737
1349+967776957+969415092+972360281+976617352+981520873+986540427+991486090
1339+996347141+1001192891+1006101567+1011100827+1016215794+1021533206
1330+1027099869+1032758344+1038220265+1043317066+1048108399+1052784763
1322+1057489521+1062139781+1066426229+1070004365+1072564140+1073741823
1313+1073168611+1070561539+1065410568+1056327876+1041455620+1021154665
1305+999967747+982958772+970112847+958626511+950643520+952169058+962436797
1295+970525102+965162684+943769475+911690382+877658849+850728354+836973881
1285+836273916+842628592+847980045+846074084+833955128+811312145+779428050
1275+740750757+698771828+657893213+623002598+598242780+585574752+584540556
1265+593204487+609074935+629474821+651622248+672836619+690963542+704503131
1255+712132785+712078859+702000800+680010935+646837584+607455170+570030066
1245+542384999+528519649+527534550+535423193+548067368+563012575+579229732
1235+596140962+613204435+630066772+646671839+662984858+678518702+692169865
1225+702756000+710125929+715885626+722552234+731466521+741643348+751004503
1215+758586287+765161901+771937506+779341557+787236500+795597132+804430817
1205+813403367+822028879+830061377+837391700+843617005+848015640+850281731
1196+851395260+853489427+858540404+867075086+878058829+889722734+900003238
1186+906165370+905129169+895140713+876471592+850383035+819820069+791932584
1176+775400345+770561551+764164242+740118792+697745120+655951411+636539814
1166+645006210+669362774+694420735+713121852+726119978+736276921+745601007
1156+755054220+765067389+775802616+787113184+798536020+809545048+819850182
1146+829458052+838420454+846565385+853736715+860260122+866704728+873160218
1136+879131525+884065077+887637158+889509733+888856574+884099445+873212588
1126+854557296+828046011+796402657+765445766+742052329+730525651+730082466
1116+735187940+738099498+732172378+714962595+689952054+664919378+646876657
1106+637764507+634897629+634093700+631229603+623134833+610432928+599200957
1096+597086782+607102897+626093115+648566467+670598719+690579764+708148776
1086+723348267+736373315+747496249+756944552+764890474+771682445+777918878
1077+783880202+788762120+790743445+788239069+781576634+773696256+768805992
1067+769693100+776119785+785727901+796034099+805353276+812519695+816700339
1057+817849136+817184930+816915876+819066424+824231961+831407382+838992603
1047+845865665+851652857+856386501+860018972+861874854+860076089+851403525
1037+832608796+803626193+770311154+742490605+727160516+723268238+723856588
1027+722878568+719291103+715622628+714320074+715893482+719813172+726296238
1017+736478711+750590530+766636214+781599300+793669159+802804630+809438916
1007+812994385+811566388+803579878+790735344+778877995+774343687+778959988
997+789334595+800845644+811313045+821042349+830787364+840141236+846883373
987+847503636+839701487+825504402+811132285+802333049+799153338+795042741
977+781696595+756923031+729062549+711941141+713549572+730228858+751955765
967+770992053+784846029+794170034+800670284+806281626+812333371+818909640
958+825271762+830894478+835909041+840622473+844957118+848531818+851067044
948+852555677+853261452+853765682+854915707+857458707+861457117+866064416
938+870191380+873473050+876260555+878658226+879737878+877373920+869058376
928+854538802+838407689+828141342+827762964+834235720+840917630+843455883
918+842017084+839703124+839910806+844039488+850616248+856778708+860864429
908+863531564+866602033+871153034+876734426+882135467+886518065+889777314
898+892236929+894217846+895750503+896752826+897543703+898732188+900345283
888+901560689+901670994+900954827+900307969+900224094+900209856+899097472
878+896144919+892083991+888732030+886901106+884469967+877187677+862842072
868+845540641+834547488+836831335+850915906+869138568+884899651+896265616
858+904099433+909256706+911518623+909971564+904352776+896117670+887838457
849+881764864+879216627+880697977+885857214+893406920+901548496+908753457
839+914123076+917187081+917861106+916501272+913304295+907630927+898221902
829+883631383+862296764+832740704+793576201+744123667+688688287+641622090
819+622730353+642009714+689931024+745477773+792135684+824639879+844330799
809+852856235+849933548+834506328+807773286+775067874+742501243+710427141
799+672232680+622142657+564759092+515808865+491795982+497658375+524134433
789+556230261+583236284+602670343+618695488+637853742+664040248+695860353
779+728588350+758212165+783294388+804083453+821138416+834511320+843324302
769+845933829+839972505+821379894+785476686+733792347+680678005+647718064
759+647482069+674343418+712148496+747795334+776482943+798549604+815799074
749+830168164+843034546+854841079+865294651+873310374+876836058+873038538
739+858292789+830005324+792736636+761468386+751808882+765088337+787898169
730+805982295+813159271+808161647+790110743+758491447+713993740+659638666
720+603243841+556737764+529793358+523947822+532824877+547351610+561739970
710+575520014+590059513+604125917+614483831+620640236+626478530+635985954
700+649387702+664704413+680976518+698169485+715375177+730946743+743980957
690+754892526+764796698+774570435+784353992+793668423+801739462+807954374
680+812470353+816267791+820304497+824607966+828230535+830330103+831381115
670+833077757+836969463+842109796+846044953+848586480+850554140+852256019
660+853890144+855933087+858606031+861412929+863764367+865745283+867803937
650+869934028+871158926+869587155+864101993+856786809+851839182+850851261
640+851066635+848752920+841858581+830235673+817160709+809764513+813683058
630+827299403+843604485+856904561+866043305+872485210+877577920+881775665
620+885218702+888195641+890992638+893626549+895936418+897843116+899392875
611+900617037+901564944+902521116+903856565+905491590+906922288+907958080
601+908934463+910058221+911126744+912052475+913070264+914199586+914998974
591+915237587+915447315+916272969+917573396+918667695+919260710+919716824
581+920550825+921893148+923294224+923893213+922940559+920317367+916411751
571+911370594+904635004+895477276+883812062+870119861+855099331+839803692
561+825179787+811346922+799057026+791883159+794331810+806834135+824327538
551+840326661+851222355+856351724+854834614+844429239+825558818+804853464
541+791002025+787524538+792180526+801869161+814601098+827728432+837792581
531+841973797+837837095+822803145+796904268+767040286+744774043+736533618
521+738559213+742447481+743981530+746210715+754093302+768180245+784659541
511+799274363+809891921+816257235+818408355+815870838+808121714+795747861
501+781856162+771776957+769881225+776804858+789549969+803858096+816928314
492+827819590+835832940+840094348+840954698+840625173+841957267+846751955
482+854935018+864771027+873960914+881210063+886832943+891609301+895511399
472+897931491+898754200+898570412+898086066+897862100+898373122+899741385
462+901319621+902224076+902544682+903101774+903765162+903684233+902990569
452+902268428+901037392+898342845+894103694+888569845+881350482+872147911
442+861669708+850990697+841346905+835335419+836338725+845121594+858590156
432+873132723+887086449+899860200+910934364+920098638+927504490+933511474
422+938807120+943502713+945447297+942558161+938072786+936629159+938269094
412+939370676+937469379+934682447+934856089+938922499+944502336+948641737
402+950054188+949689558+949699295+950579775+949587681+944944131+939008337
392+935499592+936156024+939155711+940884512+940238145+939472962+939410118
382+937374867+932258182+926888317+925488387+931570491+944564199+956505422
##END=
