##TITLE=LSH-R-55A(X12529)
##JCAMP-DX=4.24
##DATA TYPE=INFRARED SPECTRUM
##DATE=6/6/2019
##SAMPLING PROCEDURE=Diamant-ATR
##ORIGIN=Lara
##XUNITS=1/CM
##YUNITS=TRANSMITTANCE
##RESOLUTION=4
##FIRSTX=3997.453
##LASTX=373.96442
##DELTAX=-1.4165319
##MAXY=0.82732648
##MINY=0.33154538
##XFACTOR=1
##YFACTOR=7.7050782e-010
##NPOINTS=2559
##FIRSTY=0.72029036
##XYDATA=(X++(Y..Y))
3997+934825500+934145991+933848551+933766088+933678674+933609361+933622667
3988+933604333+933399103+933045811+932808478+932957701+933451010+933894888
3978+933935965+933604256+933196736+932973250+933075826+933484970+933866885
3968+933788135+933296450+932940527+933067548+933473753+933807629+933970080
3958+934061903+934241605+934579426+934875473+934853736+934569369+934289644
3948+933993287+933487368+932963735+932852958+933135933+933277033+933012702
3938+932635584+932426641+932317102+932129433+931863709+931656004+931617248
3928+931768018+932047202+932338530+932544688+932690740+932947257+933424631
3918+933896822+933969848+933658174+933307048+933013708+932706675+932530919
3908+932718279+933277806+934040630+934719675+934870677+934340468+933678751
3898+933530688+933872222+934260944+934359421+934004426+933301942+932804378
3888+933044960+933983927+934944786+935185909+934931093+934886071+935026939
3878+934768642+934081784+933500055+933474836+934027556+934736926+934961727
3869+934422003+933677359+933432986+933855204+934567435+935108629+935337994
3859+935393614+935647270+936585076+938118768+938614399+937149168+935485593
3849+934614469+934392530+934582520+935001643+935373734+935540439+935709466
3839+935990815+935893035+935129284+934304265+934000713+934103599+934213601
3829+934343098+934751160+935234026+935235960+934765084+934514523+934734063
3819+934640229+934046818+933873537+934704590+935798814+936249576+935928156
3809+935110795+934034596+932884056+932080697+932202226+933474295+935079543
3799+935847936+935774523+935404986+935072812+934888469+934799585+934749844
3789+934810338+934999245+935067630+934755878+934225669+933910050+933992049
3779+934273708+934495338+934668774+934869594+934976115+934876943+934704436
3769+934668619+934838651+935282916+935999015+936650598+936925450+936955851
3759+937033132+937100974+936874084+936338847+935736850+935346813+935306974
3750+935345343+935119072+934659491+934147461+933848009+933982921+934534790
3740+935448616+936603101+937526828+937509964+936495806+935318346+934542758
3730+934183432+934189698+934502068+934849945+934895354+934792004+935101667
3720+935923978+936623368+936667772+936241067+935851572+935671483+935487991
3710+935416358+935933725+936899458+937640853+937695932+937121551+936307285
3700+935619576+935226213+935101357+934990968+934553433+933747522+932975106
3690+932818766+933483500+934516379+935518470+936467029+937270310+937615480
3680+937368554+936961731+937022843+937495653+937605114+937423633+937613391
3670+937871379+937311000+936248726+935710007+935871762+936234182+936303649
3660+936011160+935732131+935994374+936831228+937411333+937094554+936240139
3650+935837338+936656632+937884762+938264820+937855753+937198445+936732675
3640+936722850+937104378+937464632+937352541+936648355+935699951+935087356
3631+935189081+935739712+935827204+935365379+935115669+935314478+935752090
3621+936274872+936747063+936864105+936732133+936926997+937487376+937694539
3611+937259325+936902088+937211286+937809029+938124338+938115984+937992676
3601+937942006+937945255+937686107+937064694+936677287+937158838+938200458
3591+939049535+939425493+939367320+938860860+938055258+937329102+936927848
3581+936825891+936746909+936425024+935959563+935694768+935722848+935761527
3571+935535798+935080626+934690589+934707994+935215692+936000485+936720375
3561+936927229+936366541+935384950+934625376+934395779+934553356+934640925
3551+934193024+933346268+932843443+933142353+933828670+934272625+934530304
3541+934940918+935445599+935750001+935774369+935726484+935809876+936011083
3531+936170053+936136015+935816838+935201690+934447067+933894501+933841666
3521+934269763+934891564+935407152+935610371+935467104+935205326+935114199
3512+935212288+935314478+935390752+935580820+935887698+936124799+936129672
3502+935918022+935630406+935395162+935297459+935347896+935396245+935264659
3492+935027171+934897830+934874545+934878568+935151176+935959872+936944093
3482+937322527+936864415+936194343+935918718+935943627+935841670+935510347
3472+935169974+934913378+934673415+934519319+934633963+935013324+935406533
3462+935570686+935516226+935438869+935420226+935330877+935076680+934786589
3452+934680919+934848785+935155740+935336215+935278971+935197977+935347509
3442+935696160+935995225+936047441+935888394+935755107+935799433+935882592
3432+935841979+935777772+935782491+935679528+935377756+935129748+935103137
3422+935041483+934635123+933999476+933563411+933606112+934014560+934447454
3412+934719056+934938210+935203702+935384718+935339387+935126035+934855670
3403+934567126+934361200+934423473+934759669+935081863+935044035+934498277
3393+933584529+932776220+932674804+933467410+934705751+935755493+936266286
3383+936161079+935525509+934675426+934049681+933906801+934157749+934442348
3373+934464163+934371102+934604335+935277578+935996772+936361281+936360198
3363+936283923+936443589+936872383+937185758+936907812+936002342+934985708
3353+934490696+934748839+935430591+935945638+935938986+935533632+935117448
3343+934937127+934914461+934845226+934736539+934856675+935390520+936113195
3333+936557228+936511355+936173224+935788525+935398101+935025238+934825578
3323+934870909+935011623+935120078+935300166+935685407+936104454+936160151
3313+935684170+934962268+934434071+934334279+934627697+935076526+935387349
3303+935498279+935649204+936003502+936371801+936503309+936416050+936250195
3293+936048215+935864800+935804925+935796338+935628163+935324379+935146921
3284+935192639+935339928+935565039+935947263+936392920+936690902+936766248
3274+936628242+936221728+935623985+935209349+935267908+935588942+935769495
3264+935794404+935956004+936390213+936993679+937563805+937861400+937813515
3254+937664834+937661894+937723007+937621282+937278974+936793323+936381239
3244+936257235+936431135+936759440+937154815+937507643+937571618+937254220
3234+936862558+936781410+937029651+937283538+937222116+936777620+936121240
3224+935478476+935003655+934827511+935059275+935605188+936173998+936657560
3214+937264199+938075835+938753410+938909441+938534488+937928005+937399111
3204+937063379+936811425+936512438+936191094+935910595+935663979+935519862
3194+935618957+935925448+936217550+936355479+936378067+936369790+936365768
3184+936332891+936184905+935881664+935507717+935182506+934948035+934846774
3174+934985089+935330027+935583914+935541909+935407384+935492555+935802140
3165+936097723+936134236+935767406+935112806+934576795+934468882+934651291
3155+934738396+934554052+934263265+934099499+934071882+934033358+933948342
3145+933861624+933675502+933241526+932594971+931818919+930756799+929129969
3135+926942373+924668059+923038289+922557511+923098086+923988704+924628452
3125+925034425+925599522+926374259+926959546+927113643+927038528+926994512
3115+926974940+926825640+926470414+925998997+925606948+925380755+925136073
3105+924604316+923746343+922779914+921957990+921331316+920631229+919462588
3095+917786017+916062257+914638335+913156396+910812305+906947055+901172154
3085+893407771+884483565+876683984+872984588+875040831+881741315+889994598
3075+897042109+901959732+905266229+907733472+909769138+911497616+913001758
3065+914418640+915827090+917100705+918035495+918675706+919342529+920279949
3055+921365817+922230211+922596035+922462594+921987618+921269043+920266024
3046+918864459+916900504+914209155+910829092+907140294+903620368+900541226
3036+898094405+896645574+896445836+897057426+897439186+896785282+895052935
3026+892560782+889287859+884696453+878296503+870565770+863363777+859088686
3016+859051631+862648683+868062401+873481224+877708121+880244909+881217527
3006+881173510+880909643+881399936+883457184+887150314+891695460+896090069
2996+899791244+902806025+905350626+907525999+909199863+910171784+910525463
2986+910737810+911261057+912062868+912757540+913077878+912993171+912460719
2976+911335011+909550138+907261436+904807421+902615802+901121485+900632662
2966+901164341+902413899+903965228+905531178+907005228+908327192+909357905
2956+909956498+910253242+910689539+911540163+912509918+913082442+913178675
2946+913219442+913590913+914272202+914946528+915295411+915153382+914544965
2936+913714531+912991082+912436196+911776413+910863593+909965007+909401534
2927+909207599+909313037+909728370+910403934+911187567+911991545+912812309
2917+913638411+914479133+915361552+916211557+916887663+917373004+917783154
2907+918210400+918705334+919307177+919955047+920512563+920981582+921487888
2897+922016550+922391425+922540338+922577315+922669603+922958146+923478918
2887+924069311+924474665+924578711+924467393+924361413+924486269+924823548
2877+925005338+924677497+923975940+923454550+923479691+923822154+923981278
2867+923839868+923727700+923830276+923917458+923762975+923486499+923343851
2857+923421209+923633556+923858976+924009746+924040921+923969520+923902992
2847+923970525+924167169+924368144+924504293+924574224+924505763+924213815
2837+923776667+923405738+923290397+923539179+924134601+924844280+925325212
2827+925429181+925337899+925346872+925594571+926016170+926469718+926874375
2817+927276094+927760197+928269520+928602390+928648650+928511108+928324985
2808+928104671+927833687+927549398+927270524+927000468+926842349+926948871
2798+927306418+927731962+928106837+928447133+928699087+928695142+928434060
2788+928206628+928274703+928586145+928932707+929178395+929195723+928851327
2778+928239892+927707826+927487435+927473510+927387024+927012846+926351129
2768+925678117+925356619+925498570+925915837+926400560+926911120+927457652
2758+927949569+928277410+928518921+928874147+929317251+929542439+929398168
2748+929116199+928926518+928705275+928222873+927536789+926914988+926503059
2738+926299067+926358632+926775512+927478306+928250103+928932629+929468021
2728+929843593+930129429+930455414+930835008+931110788+931143123+930978042
2718+930793080+930719358+930749682+930782559+930700019+930395462+929807080
2708+928974170+928058179+927301699+926893328+926790907+926773965+926740005
2698+926804908+927065913+927461288+927900060+928352679+928812184+929289712
2689+929819767+930397164+930958625+931438320+931797182+931994985+931959169
2679+931605490+930941452+930141884+929466165+929087731+929044024+929290331
2669+929719356+930158980+930461448+930610903+930689343+930750379+930784957
2659+930789986+930795710+930800120+930720054+930467482+930116742+929942069
2649+930176076+930740399+931303563+931594350+931570911+931346032+931075358
2639+930900762+930904552+931094156+931415654+931739164+931915307+931951974
2629+932020668+932152176+932134384+931872373+931574933+931432131+931459980
2619+931752314+932453252+933384018+934099576+934332036+934094161+933512277
2609+932854196+932542058+932870364+933788986+934999400+936161698+937047907
2599+937615944+937951289+938139964+938234186+938275650+938291740+938271550
2589+938186456+938004743+937638223+936943938+935955772+935092075+934855360
2580+935244856+935696702+935657791+935037847+934162391+933493712+933306583
2570+933498972+933763922+933892877+933816757+933574396+933382007+933456889
2560+933634116+933480561+932905252+932356400+932279584+932601778+932944705
2550+933227524+933756882+934667923+935646264+936379847+936936435+937477938
2540+937918567+938068718+937929088+937738324+937755033+937972330+938135168
2530+938099506+937948195+937730820+937490779+937522032+938021685+938507181
2520+938289033+937534022+937111186+937347513+937628476+937288721+936319817
2510+935172759+934338611+934156512+934666376+935542760+936279359+936514526
2500+936279359+935961651+935912993+936085578+936196432+936178407+936239365
2490+936528683+936958868+937357492+937616795+937706452+937722388+937914312
2480+938441582+939079318+939379465+939119002+938395709+937420693+936493021
2470+935971631+935917944+935953374+935803146+935776689+936364375+937498592
2461+938577190+939188315+939503315+939870764+940297004+940505560+940294683
2451+939646736+938691524+937746214+937148627+936894120+936672645+936365922
2441+936236271+936535645+937181349+937919650+938576803+939029190+939101442
2431+938728733+938205950+938060750+938534952+939242310+939470902+938914624
2421+938015883+937443591+937347049+937344264+937114589+936746058+936606272
2411+937029419+937945797+938796963+939100050+939028339+939099431+939418144
2401+939615870+939463785+939153659+938905418+938651762+938298625+937997317
2391+937917484+938017971+938231092+938596993+939097961+939573942+939763004
2381+939347671+938264742+937112036+936830377+937775223+939349992+940597306
2371+940917722+940311238+939217943+938213764+937806940+938293906+939532401
2361+940949748+941916718+942066714+941437101+940460615+939651223+939270314
2351+939322608+939662981+940074369+940370184+940451719+940298861+940022152
2342+939932804+940337153+941167277+941957098+942226225+941823966+940943095
2332+939920272+939004049+938170675+937223199+936225209+935660344+935907192
2322+936678602+937348905+937700573+937895824+937984940+937888630+937681156
2312+937586703+937722775+938029498+938485598+939185917+940026484+940527530
2302+940282770+939528611+939022692+939318894+940212452+940875948+940545245
2292+939185453+937577652+936661660+936716894+937314404+938061446+938946108
2282+939870377+940505947+940801298+941035305+941353554+941745216+942223054
2272+942634983+942715512+942558090+942634364+943256706+944142219+944447240
2262+943474158+941611155+940214928+940323538+941742122+943364001+944201165
2252+944200546+944083969+944385044+944893516+945023477+944360909+942880826
2242+940959030+939265131+938512287+938991517+940052786+940423097+939637453
2232+938844770+939558471+941843615+944228395+945368105+945425272+945442368
2223+945638315+945273110+944192733+943350386+943585553+944869999+946785451
2213+948778183+949988830+949803868+948727978+947996562+948181060+948854690
2203+949631051+950558104+951453055+951899485+951886567+951577059+950835663
2193+949630122+948223529+946607761+944566680+942442208+941207348+941723246
2183+943905272+946367410+947332137+946298562+944406086+943137111+943027418
2173+943465649+943481353+942829151+942242703+942494424+943479651+944526918
2163+945282470+945845556+946324554+946882225+947884857+949139443+949721482
2153+949498847+949917506+952311337+955794596+957659378+956116558+952255098
2143+948894297+947711654+947984107+948118245+947726274+947748321+948994398
2133+951117400+953050876+954065189+954043452+953062325+951348622+949544565
2123+948343588+947821347+947526537+947111049+946582001+946106638+945689758
2113+944967315+943548190+941756355+940652075+940942012+942077312+942786140
2104+942497751+941911999+942023935+942943872+944023243+944836349+945560339
2094+946412201+947071984+946916031+945833334+944621913+944365318+945402374
2084+947009479+948094497+948130623+947368882+946327339+945430532+945021311
2074+945228629+945825211+946469445+946903963+946936763+946778334+947282938
2064+949066108+951502254+953357754+954183391+954420028+954279392+953247983
2054+951020703+948365712+946454206+945748704+945984258+946541775+946232421
2044+943847254+940009388+937467263+938340553+941764555+945066255+946496752
2034+946286340+945874101+946741744+949111362+951235448+951084678+949114766
2024+947869541+948657351+950229102+950850284+950232584+949324096+949111440
2014+949685820+950438819+951170080+952499239+954755142+956809373+956975228
2004+955302911+953725512+953491814+953774866+953262449+951855392+950105485
1994+948164892+945954785+943589112+941515386+940600169+941483515+943565905
1985+945345362+945679856+944230948+941491560+938959955+938105850+938539362
1975+938477244+936944170+934194107+930777376+927503989+925824865+927017178
1965+930792771+935378607+938880973+940449863+940734461+941083576+941864888
1955+942054878+941042422+940178492+941378618+944438576+947054346+947682490
1945+947063784+946401989+945484605+943843696+942470057+942688128+944432929
1935+946654407+948818564+951043369+953026740+953990384+953783685+953176969
1925+952834662+952664862+952338567+951769138+950857092+949547814+948319994
1915+947762478+947783906+947964768+948256561+948907293+949981017+951335626
1905+952785153+953918674+954188342+953607232+952937315+952800005+953026431
1895+953136124+953033471+952931204+952886878+952671437+951946519+950517027
1885+948438738+946054422+943984641+942771133+942415442+942476477+942664379
1875+943080099+943838126+944836890+945945347+947031680+947791100+947942257
1866+947464032+946315504+944318207+941315804+937114744+931515600+925025761
1856+919448741+917053904+918817967+923643535+929414645+934513517+938443748
1846+941445842+943596306+944534345+944342807+943653860+942943717+942459304
1836+942370188+942629568+943031286+943654711+944838437+946413825+947722406
1826+948628496+949488635+950426519+951261285+951904359+952433794+952956422
1816+953485239+953882625+953981024+953802947+953591683+953533123+953583406
1806+953670665+953841780+954152139+954553625+954908232+955082751+955073623
1796+955079193+955408736+956177825+956945754+957092734+956737585+956420109
1786+956398604+956518122+956392647+955780517+954837837+953984969+953453677
1776+953109513+952752353+952312266+951764187+951141690+950707250+950817871
1766+951570793+952698512+953825226+954656820+955042061+954948071+954212710
1756+952652639+950514707+948271800+946171696+944355803+942860558+941398267
1747+939837268+938606431+938291431+939165030+941080791+943429678+945436953
1737+946898470+948111902+949102389+949472158+949260508+948746931+948038103
1727+947368727+947148954+947593915+948457381+949317752+950055744+950824292
1717+951600653+952069131+952273896+952512390+952830639+953093500+953268174
1707+953418866+953502954+953498699+953653724+954213174+954893689+955067898
1697+954720331+954132490+953455147+952904902+952720946+952998969+953571261
1687+954239863+955112766+956197938+956847820+956895781+956836680+956888200
1677+957005320+956972984+956363561+954824763+952147494+948099679+943321532
1667+939403214+936945021+935741260+935779397+937093239+939457519+942522118
1657+945804015+948900099+952066036+955771002+958643445+959875829+960303075
1647+960373006+960237321+960235232+960634011+961462046+962607326+963961780
1638+965734585+968290558+970950267+972609897+973557373+974508330+975787361
1628+977261952+978714728+980430906+982881286+985720388+987829388+987139590
1618+978759363+959060944+936896750+924183259+922923490+929968757+940610921
1608+950371440+957352810+962075183+965664885+968842427+971771727+974308438
1598+976358802+978053011+979702352+981664451+984087678+986345205+986579057
1588+982644108+974416739+964865549+958137990+956320628+958136752+960928202
1578+962995274+963430179+961342838+956931985+951311954+946024020+944028039
1568+947438272+954475107+962437681+969467631+974451859+977578344+979750082
1558+981075605+981656560+982816151+985320062+989181367+993943115+998593622
1548+1001831039+1003136526+1003030700+1002505520+1003116567+1007546992
1540+1016949965+1026310081+1032752964+1038545348+1046047489+1054882966
1531+1062251742+1067399505+1071313800+1073741823+1073326877+1068157686
1523+1052875768+1021144217+977125648+929370706+880973773+839520304+813818083
1513+802017721+797157110+795302539+795875372+800002014+807159527+813909675
1503+819571478+825032152+830719561+836934085+844242213+852176319+859119087
1493+864743527+870159024+876546210+883971999+891297069+897170213+898860786
1483+890865258+868427374+835574215+805800354+791175201+794249857+808986404
1473+826358680+839644154+847381462+851922895+855907586+861209367+868316907
1463+875518359+880968280+884857279+889185283+896949125+907434408+914717782
1453+915774564+909583634+895844923+877730864+862742208+857373513+861010868
1443+868700601+876395904+882103658+885190227+885413403+882664037+877304160
1434+868811686+855299246+836788033+819029124+810136170+813290427+826926021
1424+846524959+866234440+882888760+894252593+893321053+874935160+844021821
1414+810297384+784250844+773304046+777276436+790517661+807865260+826191975
1404+842666206+855558780+865687445+874877297+884210570+894172760+904881916
1394+914706255+921062885+923769937+925475363+930184972+941048301+957352810
1384+975425095+990431389+994160335+976135316+932244773+870452287+807700953
1374+763817063+749887355+759592873+779242480+798825405+813746992+824043135
1364+832018782+839399008+846323519+852440805+858021228+863600955+869370208
1354+875129096+880666121+886051062+891524887+897185143+902337779+903983949
1344+895532939+868782832+820811057+763572690+723425869+717632480+737746697
1334+764804301+786429621+799702253+807558460+814140664+821449644+828952636
1324+835326748+839955209+843080611+845245928+846887688+848386260+850253209
1315+852967378+856559014+860536975+864357126+867809209+870885567+873575987
1305+875940887+878160199+880356768+882508393+884455097+885567113+884549009
1295+880510401+874590300+869762102+868518965+871003228+875470398+880095068
1285+884030404+887203149+889814355+892124253+894321983+896406384+898236665
1275+899685651+900761540+901667088+902710952+904074457+905696414+907329279
1265+908408804+907445470+901516473+887677970+866804875+845670776+832900195
1255+832300983+840712849+851765937+860869845+867044452+871564999+875824463
1245+880207468+884245768+887336049+889346728+890832381+892737467+895768725
1235+900014885+905155994+910906140+917209238+924245609+931988951+938160928
1225+936112963+918412613+886360183+853429744+834716551+833991478+843779614
1215+855347826+864708871+871364333+875982892+879588221+882923881+886032574
1205+888613378+890576714+892134542+893533245+894964206+896673964+898723631
1196+900430682+899854135+893597374+878227345+853813515+826030220+802895962
1186+787855012+775438497+754928441+721270918+683039008+656550292+651464183
1176+665157641+689916873+720119295+752110304+782159481+806827585+824136506
1166+834259213+839716947+844066766+848909275+851832310+848464701+837875063
1156+825470305+819107874+822395263+832632924+844519385+854441195+861589270
1146+866699127+870621700+873544889+874876987+874134122+872251470+871139377
1136+871285892+871034093+869241717+867355429+867658594+870551304+874557423
1126+878125775+880607098+882089966+882957763+883530906+883953356+884304791
1116+884655608+885000082+885204460+884970144+883573298+879105896+868279002
1106+849148387+825593846+807086579+801260932+807396396+818700122+829396978
1096+837907398+845088660+852061830+859419157+866915033+873602134+878644458
1086+882028698+884432741+886525806+888536794+890451473+892328478+894239984
1077+896105618+897744361+898963440+899599938+899680236+899522194+899473768
1067+899509971+899125195+897394241+892913843+884191463+871207916+857017358
1057+846860459+844623741+850046587+859503090+869116785+876959377+882921947
1047+887454252+890869204+893314014+894368939+892684323+887451544+880746187
1037+876778824+877714078+881369225+883762979+882703798+878560757+873277464
1027+869520746+869467834+872814943+875685993+872925177+863480741+853287638
1017+850403901+856927159+867804258+877272366+883729019+888481870+892691826
1007+896460766+899419154+901255236+901575342+898904339+889305961+866497379
997+826255640+774318745+729118229+711166390+726530075+762488755+800096235
987+828535291+847385485+859999339+868653026+874499173+878514033+881218068
977+881579483+875852003+859119474+831791119+804713557+792956283+802037447
967+822933595+841672548+851098727+853220801+853921661+857292132+863600955
958+870891368+877498250+882850700+886895266+889733052+891573699+892636748
948+893223892+893763539+894510426+895352000+896053479+896544158+896911839
938+897246178+897591580+898044045+898696866+899378077+899658807+899289038
928+898489006+897748461+897403910+897380781+897362911+897256235+897325779
918+897794953+898548030+899320677+899968625+900490479+900942170+901384733
908+901859864+902378624+902932582+903559024+904380716+905461634+906591751
898+907371671+907541007+907126757+906361071+905643656+905453821+905951540
888+906623855+906635072+905681098+904333683+903461553+903505492+904329196
878+905378475+905794117+904872556+902890267+901204103+901082342+902502241
868+904389922+905914950+907036016+907703535+907058295+902637617+888228215
858+854315644+798003480+735302274+695705001+697740048+733340330+779211228
849+817928635+845040775+862913246+874627432+882391660+887739083+891743113
839+894975578+897555996+899519022+900857464+901347679+901047067+900773608
829+901448398+903129611+904995245+906161566+906532882+906823051+907724963
819+909372139+911553236+913947841+916189897+918030002+919399387+920379663
809+921176987+921895330+922478761+923048732+923784790+924458420+924777288
799+924980816+925549936+926688021+928244301+929800814+930824100+930732354
789+928834076+923504291+908709880+872464435+808990582+738044214+698593070
779+708303075+736316045+730543930+669544823+578442041+498447502+451509920
769+433393851+430294634+435004359+448683003+473413728+507126639+544646937
759+581061911+613628730+641640424+665462662+685819550+703483077+719186363
749+733690219+747609715+760897509+772861173+783006469+791619156+799436220
739+806963967+814164955+820716912+826062555+828669430+826554008+820634913
730+816409486+819255318+828601742+839280573+847667995+853995538+859622530
720+864664932+868501947+871200876+873630369+876543348+880158423+883811405
710+884711925+879096303+868139526+860533030+863175488+869860191+866055822
700+846237807+821300189+806995993+808892956+820856620+834474809+845720904
690+854113740+860123808+864484534+868016295+871218282+874260834+877120281
680+879653433+881847140+883906787+885990491+888037528+889858991+891409701
670+893140114+895854515+899237363+901802155+903453121+905094882+907286268
660+909872874+911471315+907749485+891251273+858008619+817077082+788695193
650+787255723+808024540+834148360+853774140+866228097+875225329+882581728
640+888241598+892397016+895993836+899725335+903320762+906308622+909061780
630+912280089+915698908+917677871+915060476+903031290+877787877+842288314
620+808132454+788411755+787819196+800560536+817303972+832095289+843098867
611+850661889+856290506+861604432+866986124+871607777+874896636+877285594
601+879326210+880946852+882097083+883287539+884951888+886901609+888454176
591+888526583+886300463+882782548+880831357+882486656+886774433+891181419
581+894421310+896565277+897626314+897520179+896816302+896332353+896339006
571+896846162+898064931+900030666+902178654+903654560+903923919+903140906
561+902072365+901626862+902434399+904698733+908091561+911766279+914794984
551+916631067+916634007+912685288+901398812+882563240+863690458+855772520
541+861744450+871549527+871840701+860159392+846704119+842585522+849812348
531+862853681+875642982+885182104+891115820+894510272+896781182+898862720
521+901217254+903810513+905748631+906123892+905489405+905254470+906088849
511+907769057+909743765+911414766+912366884+912613887+912600040+912989845
501+914197706+915831499+916953262+916948388+916025667+915129788+915263307
492+916761724+919278167+922148676+924557747+925990178+926836393+927938971
482+929665748+931789988+933337527+932420607+926310748+909140375+870950547
472+810513443+750762811+724929082+747272281+798431345+839602458+846836246
462+828630441+812681623+820800381+853017815+889983768+914861744+921946077
452+907508439+872579312+830130870+798719347+789523693+799370080+816609146
442+831817730+842066221+849056951+855396948+862008317+867974290+872428309
432+875344382+876902983+878069304+880732494+885380681+889671012+891020670
422+890096092+889857521+891969616+894240216+894164793+893430282+894994144
412+899862722+905604127+908454987+907404702+904521043+902149723+901486923
402+902848107+905365788+906565604+904660673+903024947+906051408+912107968
392+916880159+917767296+915233138+912163124+911692403+914627273+918152846
382+919056306+917228268+914417247+913199020+917038200+926476525+932307587
##END=
