##TITLE=JPK-642,X17773
##JCAMP-DX=4.24
##DATA TYPE=INFRARED SPECTRUM
##DATE=29/4/2021
##SAMPLING PROCEDURE=Diamant-ATR
##ORIGIN=Angelika Moesle
##XUNITS=1/CM
##YUNITS=TRANSMITTANCE
##RESOLUTION=4
##FIRSTX=3997.453
##LASTX=373.96442
##DELTAX=-1.4165319
##MAXY=0.9722079
##MINY=0.59897667
##XFACTOR=1
##YFACTOR=9.0543917e-010
##NPOINTS=2559
##FIRSTY=0.94221628
##XYDATA=(X++(Y..Y))
3997+1040617978+1040456564+1040348735+1040269937+1040119912+1039713348
3989+1039029050+1038461929+1038406895+1038728604+1039029445+1039233319
3980+1039557596+1040062508+1040481052+1040473416+1039997929+1039463986
3972+1039470174+1040291529+1041572111+1042550470+1042711028+1042186893
3963+1041466521+1040893540+1040576834+1040543788+1040747070+1041027569
3955+1041234142+1041338416+1041356388+1041209983+1040838573+1040485726
3946+1040581838+1041168642+1041770719+1041966167+1041838392+1041668420
3938+1041548808+1041519777+1041656439+1041858206+1041863736+1041620496
3929+1041401744+1041459411+1041809624+1042284716+1042593457+1042463904
3921+1041809493+1040800523+1039947767+1039931376+1040869710+1041982427
3912+1042423090+1042148976+1041799882+1041845962+1042093547+1042055037
3904+1041643273+1041348093+1041559801+1042081698+1042528615+1042712740
3895+1042565150+1042094403+1041525833+1041185297+1041037115+1040799404
3887+1040544512+1040626338+1041102944+1041722203+1042432503+1043152415
3878+1043409414+1042973951+1042202166+1041538933+1041126050+1040949627
3870+1041077929+1041360140+1041456778+1041514313+1042084397+1043183553
3861+1043956984+1043825654+1043197509+1042842490+1043094354+1043516189
3853+1043289670+1042578448+1042087096+1041656702+1040870368+1039715389
3844+1038655204+1038285308+1038823004+1039949018+1041068449+1041616875
3836+1041465797+1041034416+1040827974+1041047516+1041483834+1041750444
3827+1041685996+1041467508+1041397202+1041704955+1042461798+1043280125
3819+1043465566+1042964999+1042354035+1042118233+1042181956+1042203943
3810+1042049902+1041856297+1041956687+1042504916+1043099159+1043298623
3802+1043098698+1042759479+1042488064+1042431055+1042691608+1043000941
3793+1042857433+1042304333+1042018041+1042446854+1043159854+1043394997
3785+1043072367+1042819515+1043026220+1043407834+1043453915+1043018255
3776+1042423946+1041992235+1041752550+1041667827+1041899284+1042576407
3768+1043388809+1043920514+1044170864+1044330303+1044423386+1044433195
3759+1044407982+1044179817+1043404542+1042156809+1041058970+1040876622
3751+1041915544+1043395721+1044268028+1044468743+1044466900+1044603364
3742+1044757405+1044675777+1044384678+1044039797+1043724737+1043391047
3734+1043014502+1042726959+1042618998+1042566401+1042252723+1041417873
3725+1040281128+1039532844+1039591103+1040309632+1041450524+1042813393
3717+1044050330+1044848053+1045216764+1045396676+1045546504+1045570005
3708+1045222754+1044364798+1043176838+1042165301+1041900930+1042509195
3700+1043347205+1043674707+1043453980+1043070194+1042598855+1041721939
3691+1040493692+1039891549+1040854043+1042655666+1043981867+1044637793
3683+1045037115+1045396478+1045590544+1045423403+1044941596+1044472956
3674+1044301667+1044257101+1044042365+1043636987+1043304218+1043283943
3666+1043477942+1043685503+1043908731+1044310159+1044903613+1045437359
3657+1045669671+1045616217+1045441835+1045177859+1044780248+1044436552
3649+1044500736+1044744634+1044592897+1044165071+1043933351+1044044274
3640+1044255126+1044382374+1044570186+1044921321+1045155411+1044960489
3632+1044554782+1044584274+1045349608+1046048125+1045823646+1045055021
3623+1044352817+1043850801+1043490384+1043389072+1043606112+1043812159
3615+1043688136+1043267683+1042852364+1042825177+1043383411+1044225239
3606+1044703030+1044547343+1044020904+1043489331+1043248724+1043430479
3598+1043797413+1043915709+1043661936+1043360832+1043328180+1043567141
3589+1043960407+1044345905+1044469269+1044297323+1044157303+1044306539
3581+1044695986+1045040472+1044954236+1044242684+1043265840+1042694242
3572+1042710962+1042966249+1043389007+1044297520+1045397071+1045678031
3564+1045114991+1044709745+1044929023+1045271995+1045065488+1044313385
3555+1043620200+1043520995+1044051910+1044809016+1045334401+1045418597
3547+1045116703+1044663796+1044322667+1044216023+1044334253+1044603167
3538+1044919938+1045170025+1045231510+1045018288+1044568409+1044067314
3530+1043763708+1043780890+1043937893+1043932759+1043771937+1043718549
3521+1043800244+1043837240+1043914656+1044244527+1044675382+1044878729
3513+1044848316+1044755233+1044602443+1044407916+1044407192+1044722121
3504+1045065356+1044983398+1044374146+1043642121+1043218311+1043143792
3496+1043231740+1043369587+1043520600+1043632971+1043711769+1043822626
3488+1043974560+1044096345+1044113987+1044067775+1044193378+1044659122
3479+1045150342+1045136254+1044591383+1044035255+1043867917+1043999444
3471+1044127153+1044100426+1044071132+1044389550+1045191617+1046106977
3462+1046583978+1046452121+1045992236+1045510561+1045036918+1044443662
3454+1043770950+1043323967+1043371035+1043821968+1044366115+1044838639
3445+1045245005+1045499897+1045439202+1045067726+1044578481+1044165993
3437+1043946649+1043929665+1043986871+1043985817+1043965937+1044034334
3428+1044126232+1044066590+1043895565+1043969360+1044585656+1045530837
3420+1046192226+1046200520+1045763807+1045331110+1045138493+1045108013
3411+1045029874+1044816586+1044581640+1044451035+1044410944+1044387180
3403+1044304366+1044040917+1043578530+1043207910+1043296450+1043811435
3394+1044337939+1044560114+1044496918+1044283235+1043910047+1043272291
3386+1042455939+1041878679+1041946879+1042571930+1043273344+1043756599
3377+1044115896+1044439580+1044554716+1044298113+1043838886+1043571881
3369+1043712361+1044089104+1044417593+1044709942+1045177661+1045751563
3360+1046078275+1046023242+1045831678+1045758870+1045849583+1046048718
3352+1046250946+1046272472+1045961823+1045370081+1044804473+1044684664
3343+1045161533+1045861630+1046249629+1046174189+1045809296+1045317746
3335+1044931854+1044974511+1045407933+1045780791+1045866041+1045852809
3326+1045805412+1045522608+1044999066+1044527463+1044321087+1044371776
3318+1044612712+1044993865+1045431895+1045769732+1045849649+1045700808
3309+1045549137+1045548940+1045660257+1045829900+1045993684+1045914689
3301+1045413265+1044745358+1044363416+1044363942+1044520946+1044687626
3292+1044851212+1044983398+1045093728+1045237105+1045329662+1045247243
3284+1045159887+1045423074+1046024031+1046443695+1046239557+1045601274
3275+1045166404+1045339602+1045938519+1046529471+1046901408+1047114498
3267+1047311789+1047616580+1048020049+1048265264+1048018930+1047246881
3258+1046342186+1045856100+1046062673+1046685223+1047123714+1047081781
3250+1046882646+1047048997+1047661673+1048239064+1048273229+1047825391
3241+1047396380+1047235756+1047150572+1047004036+1046921288+1046945184
3233+1046957429+1046983234+1047165318+1047478206+1047758969+1047912089
3224+1047950204+1047935985+1047908665+1047812093+1047659435+1047705581
3216+1048094502+1048409233+1048053425+1047087113+1046256146+1046175110
3207+1046786074+1047584784+1048114712+1048232613+1048104772+1047973047
3199+1047880095+1047720195+1047562665+1047667400+1048043484+1048251966
3190+1047874763+1047067496+1046408081+1046241796+1046395310+1046566138
3182+1046761520+1047158011+1047686030+1047985949+1047778784+1047160579
3173+1046547903+1046377075+1046772974+1047438379+1047919791+1048007607
3165+1047830328+1047590380+1047355631+1047151494+1047085467+1047222392
3156+1047454442+1047644952+1047800705+1047978379+1048159673+1048301799
3148+1048346959+1048154934+1047680434+1047214756+1047138591+1047444567
3139+1047795834+1047993849+1048081863+1048055070+1047767790+1047163278
3131+1046469829+1046084661+1046208881+1046587072+1046739467+1046476478
3122+1046000596+1045510561+1044959107+1044282050+1043659303+1043359712
3114+1043405530+1043592420+1043810118+1044080217+1044285737+1044201014
3105+1043823877+1043373010+1042952688+1042525389+1042184787+1042147264
3097+1042461995+1042962958+1043482550+1043890364+1043972980+1043590248
3088+1042944855+1042392677+1042020805+1041702190+1041407208+1041129342
3080+1040719224+1040108194+1039461419+1038875865+1038194332+1037253101
3071+1036056188+1034651978+1033051596+1031276503+1029402467+1027654956
3063+1026452843+1026126592+1026591151+1027513884+1028759049+1030389121
3054+1032255520+1033941019+1035199548+1036223395+1037341773+1038519332
3046+1039292368+1039294804+1038771525+1038389780+1038567388+1039151559
3037+1039748172+1040172970+1040511992+1040844432+1041070819+1041132238
3029+1041224860+1041492984+1041676451+1041485677+1041184902+1041334927
3020+1042067874+1043035305+1043894907+1044470323+1044649971+1044505673
3012+1044319573+1044220105+1044007673+1043535346+1043018189+1042788180
3003+1042908912+1043146754+1043221405+1043025825+1042650794+1042257989
2995+1041967813+1041841552+1041852216+1041849649+1041657097+1041251061
2986+1040815862+1040608564+1040739763+1041054428+1041300762+1041433079
2978+1041596732+1041829571+1042034235+1042219479+1042440600+1042530853
2969+1042228300+1041553350+1040755167+1039910640+1038840975+1037421493
2961+1035821638+1034429079+1033564672+1033223806+1033128617+1033063972
2952+1033052781+1033158306+1033313861+1033469680+1033724045+1034134295
2944+1034489774+1034474370+1034049967+1033500817+1033045869+1032596583
2935+1031997402+1031283481+1030543952+1029734907+1028826722+1027984433
2927+1027445750+1027301057+1027453584+1027717626+1027932296+1028042100
2918+1028093249+1028180474+1028416538+1028866352+1029420176+1029791388
2910+1029751561+1029358954+1028897884+1028606588+1028505145+1028453930
2901+1028305550+1028017151+1027687015+1027454835+1027311392+1027088559
2893+1026721625+1026381550+1026232314+1026222637+1026287874+1026585226
2884+1027309878+1028377567+1029486729+1030437374+1031217717+1031822493
2876+1032169151+1032237417+1032138672+1031988318+1031805377+1031595118
2867+1031440089+1031420669+1031511053+1031645214+1031826640+1032048025
2859+1032180803+1032109641+1031911824+1031725329+1031555028+1031423434
2850+1031551604+1032133011+1033039418+1033972881+1034788377+1035513160
2842+1036179158+1036802893+1037442888+1038143577+1038856248+1039489462
2833+1040019522+1040492507+1040920596+1041250600+1041477909+1041725428
2825+1042102697+1042525060+1042804638+1042903777+1042961180+1043088100
2816+1043287629+1043550618+1043895302+1044291135+1044655501+1044962925
2808+1045295693+1045709564+1046083344+1046210395+1046032524+1045734184
2799+1045619443+1045897178+1046490039+1047056305+1047297636+1047212716
2791+1047023192+1046966316+1047176246+1047588866+1047952837+1048038152
2782+1047809592+1047384728+1046938470+1046642895+1046559752+1046584307
2774+1046571799+1046503995+1046507484+1046687988+1046954137+1047099094
2765+1047083031+1047066574+1047133523+1047194744+1047198233+1047211136
2757+1047256097+1047226474+1047032211+1046765733+1046665145+1046871060
2748+1047267222+1047644821+1047935721+1048144598+1048191535+1048046512
2740+1047913998+1048028541+1048306671+1048458869+1048438659+1048517655
2731+1048848975+1049219792+1049376467+1049373899+1049414911+1049509442
2723+1049535248+1049525439+1049622735+1049790271+1049829637+1049677110
2714+1049459478+1049285359+1049174041+1049146327+1049216962+1049318866
2706+1049345658+1049267190+1049167260+1049144878+1049179373+1049156596
2697+1049066278+1049052125+1049196357+1049385617+1049491339+1049544398
2689+1049611346+1049606278+1049414319+1049146129+1049063381+1049219529
2680+1049359614+1049237435+1048897359+1048583682+1048464596+1048508438
2672+1048626997+1048837454+1049170618+1049504044+1049668487+1049671383
2663+1049650647+1049670856+1049713448+1049791654+1049947209+1050142064
2655+1050243968+1050156613+1049922654+1049634848+1049303264+1048923362
2646+1048606854+1048495536+1048596057+1048822906+1049117098+1049394043
2638+1049488772+1049344934+1049199714+1049355599+1049764729+1050057737
2629+1050008891+1049758212+1049566582+1049561645+1049706207+1049858207
2621+1049918902+1049972158+1050120406+1050212699+1050014816+1049628001
2612+1049455199+1049725824+1050281755+1050827745+1051201788+1051390127
2604+1051453060+1051512174+1051704002+1052023473+1052225240+1052017285
2595+1051414154+1050792789+1050524731+1050674296+1051116605+1051712560
2587+1052249334+1052465452+1052330172+1052133342+1052161188+1052390736
2578+1052569594+1052527134+1052363811+1052296007+1052342680+1052321878
2570+1052171062+1052022353+1051927888+1051829012+1051842046+1052224187
2561+1052963255+1053667697+1053911200+1053554931+1052825079+1052179752
2553+1051969097+1052158226+1052508175+1052950945+1053544267+1054102172
2544+1054191568+1053599629+1052640427+1051865218+1051547920+1051552331
2536+1051636790+1051758114+1052078901+1052719488+1053502596+1054036013
2527+1054135416+1053998030+1053854060+1053721151+1053648870+1053868082
2519+1054492278+1055316135+1055994113+1056264870+1056088710+1055772136
2510+1055794452+1056291399+1056866354+1057058708+1056813427+1056370197
2502+1055924268+1055552528+1055324692+1055326206+1055571619+1055938684
2493+1056194169+1056151182+1055850868+1055542325+1055463000+1055697880
2485+1056205426+1056810926+1057184706+1057088858+1056727717+1056577889
2476+1056776168+1056964572+1056844960+1056559194+1056386589+1056378755
2468+1056421873+1056421544+1056350053+1056264277+1056294361+1056536219
2459+1056986559+1057520503+1057834378+1057608780+1056959635+1056481054
2451+1056558799+1056897031+1056999791+1056843906+1056774391+1056966415
2442+1057249153+1057362972+1057275814+1057201624+1057226771+1057062461
2434+1056486715+1055882137+1055886350+1056559655+1057318998+1057657955
2425+1057587320+1057417808+1057402536+1057581066+1057825425+1058040622
2417+1058266351+1058472858+1058423420+1057980519+1057414583+1057143628
2408+1057258698+1057475870+1057493249+1057283253+1057083197+1057137243
2400+1057457109+1057857879+1058155165+1058235477+1058024428+1057537947
2391+1056943177+1056489414+1056354727+1056527793+1056825145+1057038169
2383+1057082012+1057054100+1057200571+1057718649+1058466078+1059008513
2374+1059106139+1058955587+1058852366+1058903647+1059130825+1059524551
2366+1059988847+1060403705+1060661888+1060678675+1060565514+1060564921
2357+1060611594+1060326816+1059558585+1058553697+1057601210+1056783804
2349+1056051582+1055402898+1055028525+1055218048+1055918475+1056593820
2340+1056779130+1056510941+1056215169+1056318718+1056856612+1057412147
2332+1057554602+1057251194+1056695658+1055993652+1055282364+1054844203
2323+1054836632+1055142542+1055627179+1056296139+1057113676+1057903170
2315+1058429872+1058481811+1058000597+1057231906+1056631804+1056529241
2306+1056871555+1057331769+1057645908+1057753276+1057657033+1057407210
2298+1057215185+1057279106+1057538342+1057867029+1058307955+1058802335
2289+1058981787+1058587599+1057867819+1057319591+1057215185+1057503782
2281+1058009287+1058568377+1058991529+1059116540+1059080333+1059273017
2272+1059745804+1060002079+1059687216+1059096791+1058737296+1058802401
2264+1059233124+1059916566+1060741608+1061696465+1062804442+1063834214
2255+1064303249+1063942701+1063047617+1062251145+1062018043+1062386556
2247+1063108641+1063852646+1064236827+1064018471+1063482684+1063287039
2238+1063617766+1063882533+1063570369+1062968095+1062587205+1062347059
2230+1061858735+1061163575+1060675252+1060643719+1061052652+1061780464
2221+1062588719+1063279007+1063964293+1064777354+1065353099+1065119601
2213+1063982725+1062240217+1060124785+1057971040+1056436158+1055962778
2204+1056338994+1057156202+1058343767+1059903005+1061451843+1062511303
2196+1063122662+1063856991+1065170553+1066830445+1068006293+1068009387
2187+1066967832+1065628135+1064498895+1063647192+1063379068+1064180675
2179+1065614245+1066247393+1065190697+1063084218+1061335061+1060893016
2170+1061720098+1062928070+1063626258+1063785829+1063873317+1063975616
2162+1064158293+1065084975+1067058347+1069096627+1070336658+1071008251
2153+1071237470+1070603795+1069192212+1067928943+1067563918+1068037957
2145+1068953975+1069983549+1070559491+1069780662+1067241222+1063946256
2136+1061826742+1061876246+1063060585+1063589657+1062964869+1062185381
2128+1062261414+1063093500+1063751071+1063574714+1062861648+1062332115
2119+1062059713+1061511089+1060712050+1060519170+1061378969+1062556265
2111+1063010423+1062540466+1061871835+1061918245+1062891930+1063994838
2102+1064246241+1063609867+1062924713+1062778110+1062932481+1062947687
2094+1062907136+1063162687+1063632775+1063778917+1063235692+1062225735
2085+1061384170+1061244414+1061744060+1062288273+1062415719+1062173795
2077+1061788627+1061354217+1060923034+1060630553+1060671697+1061110187
2068+1061690936+1062133508+1062656984+1063702884+1065091229+1066005140
2060+1065789944+1064500935+1062780612+1061233223+1059875949+1058394785
2051+1056841866+1055758180+1055708808+1056842261+1058708462+1060504095
2043+1061820093+1063061177+1064786899+1066674100+1067477550+1066351140
2034+1064194828+1062993571+1063532188+1064626999+1064732063+1063533439
2026+1061954188+1061150146+1061621288+1063159461+1065329729+1067567078
2017+1069094192+1069416888+1068604815+1066842624+1064499092+1062612681
2009+1062289326+1063616384+1065846162+1068135187+1069529127+1069310178
2000+1068117215+1067711903+1068951407+1070737297+1071321929+1069929108
1992+1067082638+1063957842+1061434661+1059734745+1058891534+1059114104
1983+1060526477+1062869482+1065506679+1067484659+1068025186+1067490584
1975+1067275651+1068378493+1070574566+1072756486+1073741823+1073152649
1966+1071747385+1070608995+1070194993+1070341661+1070572394+1070263324
1958+1069164037+1067949416+1067685900+1068436225+1068946865+1068206217
1949+1066709253+1065641366+1065499964+1066003231+1066667715+1067108509
1941+1067185069+1066942356+1066402422+1065741625+1065331902+1065168447
1932+1064783081+1064021433+1063266368+1062874551+1063039783+1063924466
1924+1065219926+1065974530+1065636363+1064767743+1064238276+1064209245
1915+1064304632+1064470456+1064999528+1065854457+1066469897+1066369046
1907+1065689093+1064906709+1064371317+1064226755+1064482371+1064992287
1898+1065497726+1065753606+1065580277+1064951736+1064163164+1063742842
1890+1064031373+1064793745+1065422549+1065537092+1065178585+1064576244
1881+1063934604+1063468399+1063395592+1063641202+1063807750+1063725793
1873+1063687743+1063852449+1063800838+1063129574+1062335604+1062232120
1864+1062795160+1063308894+1063240300+1062737428+1062302031+1062215268
1856+1062435402+1062804245+1063143991+1063273017+1063116606+1062829260
1847+1062655141+1062584901+1062349758+1061891650+1061434661+1061048242
1839+1060774523+1060868922+1061403458+1061974003+1062246010+1062388334
1830+1062673771+1062938735+1062848416+1062442116+1061971501+1061523860
1822+1061106303+1060945679+1061351979+1062289326+1063311791+1063982133
1813+1064176132+1064042301+1063853173+1063860611+1064189693+1064745492
1805+1065200835+1065252445+1064974052+1064798551+1065023688+1065468827
1796+1065724509+1065552101+1065066740+1064676569+1064692763+1065009469
1788+1065351124+1065539594+1065543544+1065442232+1065368964+1065479821
1779+1065787640+1066053130+1066096183+1066000137+1065857353+1065637482
1771+1065430778+1065379167+1065439204+1065546374+1065716215+1065939508
1762+1066148846+1066247591+1066218165+1066225735+1066425989+1066692532
1754+1066810960+1066780086+1066726961+1066761127+1066877711+1066884162
1745+1066629731+1066242851+1065954583+1065880130+1066017451+1066168266
1737+1066043387+1065563293+1064826594+1063868643+1062651323+1061061605
1728+1058902857+1056185084+1053154490+1050022518+1046987513+1044194563
1720+1041412080+1038144038+1034319144+1030276881+1025794482+1020052895
1711+1011954545+1000351299+983878707+960862988+932509809+905282316+884793859
1701+872549301+869795125+877773929+896312251+922869271+948959888+968065266
1691+982183135+994646642+1005340190+1013392986+1020126493+1027255371+1033622009
1681+1037559932+1039879436+1041675266+1043312381+1044865695+1046392743
1673+1047757982+1048781039+1049478568+1049793694+1049656901+1049459675
1664+1049791719+1050910624+1052480461+1053921667+1054945646+1055547130
1656+1055882927+1056293703+1057228943+1058377866+1059009501+1059152154
1647+1059110286+1059068023+1058996598+1058879685+1058729462+1058442248
1639+1057880985+1056992155+1055894842+1055017532+1054592207+1054318685
1630+1053884869+1053151264+1052116226+1050986591+1050144566+1049913504
1622+1050271880+1050923000+1051663846+1052377833+1052780841+1052552940
1613+1051671943+1050246009+1048416804+1046541583+1045261857+1045232892
1605+1046721890+1049431961+1052608039+1055412904+1057450987+1058906873
1596+1060138017+1061263307+1062180444+1062848087+1063393419+1063946387
1588+1064467889+1064814416+1064953382+1064989654+1064990905+1064946601
1579+1064861089+1064758790+1064659782+1064569398+1064362298+1063805183
1571+1062725842+1061203599+1059559243+1057805479+1055566616+1052637201
1562+1048990113+1044075543+1037092872+1030690357+1029070687+1030420192
1554+1031917419+1031866270+1029154422+1023957311+1018117309+1013865313
1545+1012482037+1014228232+1018608924+1025061338+1032391458+1037747481
1537+1040291266+1041079180+1040263157+1036851870+1030073336+1019814658
1528+1006295443+991843028+981572171+979103300+984005297+992873194+1000935470
1519+1007007258+1013583036+1021625365+1029490547+1035950729+1041094452
1510+1045223018+1048733575+1052145915+1054915035+1056241632+1056693091
1502+1056858257+1056821590+1056376056+1055197444+1053121246+1050211778
1493+1046132979+1039579188+1028402977+1011218768+989506277+966908378+947972247
1483+937813301+940005358+953168633+971485308+989589419+1004979971+1017061930
1473+1026104276+1032542537+1036832714+1039757454+1041981900+1043649757
1465+1044714682+1045547623+1046693386+1048345576+1050584900+1053478042
1456+1056385470+1058328823+1059307380+1059759497+1060006884+1060135515
1448+1059950798+1059233321+1058054248+1056735880+1055662003+1055104624
1439+1055136420+1055726253+1056641810+1057334666+1057475014+1057070294
1431+1056097136+1054610113+1052952920+1051489858+1050362593+1049545780
1422+1048844367+1047821770+1045858997+1042740915+1039100146+1035506512
1414+1032062968+1028904335+1026280370+1024251832+1022499911+1020289355
1405+1016712112+1011511578+1005474548+999717953+995475568+994122310+996041570
1395+999706630+1002570478+1003326004+1002855520+1002535720+1002581472
1387+1001740170+998588844+993166597+986918188+981900068+979775222+980540557
1377+982315453+982464491+978939187+970986254+958303601+940388421+918838660
1367+899217836+887722155+886849847+894272457+903859411+910554012+914398128
1357+918541900+925695135+936122403+947841707+958726292+968029191+976071521
1347+983288216+989653735+994702531+998032716+999606108+999522900+997925348
1337+995183943+991621906+987111069+981423002+975070582+969685463+967315797
1327+969090561+974504383+981959051+989859452+997252636+1003751789+1009140530
1317+1013187203+1015785890+1017006699+1016953838+1015819858+1014109278
1309+1012583810+1011896088+1012273950+1013480145+1014975002+1016094170
1300+1016241101+1015123711+1012877409+1009977684+1007115547+1005060481
1292+1004291460+1004564258+1005058967+1005164491+1004986488+1004964699
1283+1005215443+1005437552+1005277981+1004568931+1003261754+1001352039
1275+998950907+996299490+993569144+990611818+986936555+981978735+975426523
1265+967397491+958407019+949136179+940057693+931139502+921905658+911860004
1255+900902150+889396200+877911973+866922060+856700839+847361734+838856755
1245+830984792+823512942+816344171+809658194+804038918+800405983+799529924
1235+801399944+805035446+808920310+811672973+812462927+811058849+807716025
1225+802987818+797391517+791163779+784407693+777396650+770599223+764480301
1215+759338027+755161669+751527944+747761046+743320646+738041973+732054644
1205+725595384+718933500+712381354+706279483+701011869+697140367+695489033
1196+696910622+701815713+709856002+720021399+731081223+742054020+752451401
1186+762252366+771654207+780788846+789706313+798566969+807624587+816964878
1176+826393314+835525122+843876323+851001910+856648110+860552592+861856411
1166+858768084+849048221+831249625+806104978+777090345+749304617+727028822
1156+711793562+702468940+696895284+693418497+691479290+691507531+694514230
1146+701467738+712469237+726043222+739314458+749413960+754869254+755485155
1136+751552762+744326258+737077702+734113858+737808146+746833640+757385786
1126+765750943+770075483+770839106+770055603+769432789+769264002+769634886
1116+772161358+779228093+791499773+807119214+823276680+837806642+849528513
1106+858030267+863508996+866695278+868806694+871248905+874901391+879518411
1096+883844926+886283977+885525094+880815780+871974544+859403998+844116008
1086+827529861+811096964+796208692+784430536+777450564+776429745+781354388
1077+791058649+803773098+817691372+831398268+844130886+855706023+866207481
1067+875737492+884305667+891819254+898193133+903438760+907640989+911027655
1057+914092350+917415425+921291995+925661299+930288523+934819702+938808512
1047+941985840+944490193+946651114+948574916+950101306+951104548+951639677
1037+951794903+951571280+950933589+949930742+948755289+947545606+945999533
1027+943483857+939871922+936039392+933192857+931947428+932232667+933611269
1017+935236403+935797995+934173190+930475479+926352970+923965793+924489204
1007+927523946+931697605+935545934+938026325+938795148+938301822+937547547
997+937673149+939575031+943438040+948384669+952788599+955110144+954390496
987+950030934+941274881+926954323+905974382+878793299+849046444+823248176
977+807480750+803250412+806437418+810620029+811726689+810061860+808793720
967+810913234+817104041+825793541+834910998+843536840+852056434+861126164
958+870761239+880464448+890004465+899577857+909123733+918072140+926054696
948+933385408+940562342+947623680+954181092+959927352+964980889+969703763
938+974255086+978455932+981997628+984613101+986199396+986985993+987310006
928+986614319+982609118+972755160+958160948+945276856+941292392+947415856
918+958298466+967813073+973456179+975690433+975630924+973909942+970585748
908+966066879+962389509+962556321+967792139+976111677+984198375+990172537
898+994206177+997240853+999883711+1002266017+1004309366+1005980053+1007402893
888+1008698682+1009732864+1010127380+1009500156+1007736715+1005177591
880+1002421440+999721902+996761943+993303522+989826011+987131805+985414510
870+984057302+982307553+979886738+977054553+974496088+973170413+973799282
860+976222007+979357073+981841743+982642296+981237296+977452756+970854464
850+959961057+942589958+918042254+889457553+863783900+848756925+848754292
840+862423796+883905687+906601672+926260019+941494159+952759766+961293052
830+968325029+974610039+980413966+985764591+990664547+995209221+999591494
820+1003910899+1007925711+1011103567+1013022103+1013581456+1012752399
812+1010548755+1007602159+1005365995+1005221434+1007343120+1010533022
803+1013039350+1013526291+1011635140+1008238073+1005156723+1003829600
795+1003959613+1004059477+1003181508+1001326102+998520711+994432894+988524956
785+979850597+967218830+950587194+932572413+918085372+911596752+913965759
775+921522003+927983502+926967028+912781881+880681356+830387455+771791133
765+723318406+698651748+694988795+697511712+694012345+682716654+669419614
755+661531655+663617595+675831279+696204008+723230260+754765375+786479612
745+813998401+835841235+853069484+866894083+877530425+884845601+889098650
735+890740702+890245993+888830592+888558256+890576063+893667747+895597738
725+895713927+895651323+897831861+903641647+912481106+922140538+930348823
715+936034784+939274387+940341682+938328746+930549932+915078871+895314671
705+880133852+876859688+884890497+898138495+911846443+924753115+936746401
696+947395778+956390002+963711498+969359475+973519968+976703813+979293811
686+981147439+981832922+981099318+978997512+975619403+970992640+965354603
676+959236537+953245983+947990021+943851120+940573533+937353152+934014014
666+931410193+929624764+927957894+925918100+923578979+921190157+918773554
656+916540550+915316582+916066183+919142989+924070067+929718637+934779283
646+938546971+941160140+942952481+944004701+944391976+944267229+943407363
636+941099972+936971472+931969941+928140242+927136868+929027098+932567147
626+936383549+939895291+943174985+945296144+943068473+933558079+918477058
616+903237717+890832205+880720854+873662413+871701417+872909060+871836302
606+866296087+859549086+855635915+855892387+859692726+865726004+872290591
596+877775640+881223989+882544464+882554075+882635769+883952163+886759200
586+890145867+892661148+894011706+895893444+900274795+907177944+914763811
577+921139007+925674136+928973841+931784697+934051866+935047012+933931398
567+929982679+922972426+913757277+903943673+894865121+887618868+883741771
557+884331143+888338517+893068567+896533636+898187077+897563539+893722649
547+886381404+876741853+866844382+858382850+852322714+849363742+849921779
537+853009579+855721822+855152792+851116190+846277719+843731301+845259007
527+851358838+860963565+870767559+876365176+874408920+864533238+851385960
517+843615967+847389646+861522722+880248395+898273708+912836059+923291699
507+930164237+934615236+938145147+942137709+947194208+952713093+957555514
497+961269814+964498753+968151174+972098642+975051821+975977779+975034376
487+972901960+970130865+967226203+964406658+961020781+955385772+945179758
477+929369345+911388730+899024034+898185629+905354729+910016382+906771776
467+899680947+896130562+900070526+910204128+922551182+933720349+941939233
458+946400501+947959739+949306941+952291323+956317787+959363062+959778446
448+956930068+950876383+942262719+932999318+926984999+928078362+936603551
438+949259675+961576777+970516166+975713869+977895986+977614697+976683077
428+978286948+983541528+989543405+992979904+994685218+997344468+999965011
418+999321922+997489096+998295376+1001248226+1003338972+1002655530+999698730
408+996169674+994116978+994943994+997641557+999072296+996400012+989202802
398+981935814+982491942+992000295+1003528298+1010816221+1011505324+1006325000
388+998292151+991815445+990434078+993029474+993495086+987430671+976268943
378+964008126+953649716+947028778+944479266
##END=
