##TITLE=NiM- X13568
##JCAMP-DX=4.24
##DATA TYPE=INFRARED SPECTRUM
##DATE=10/10/2019
##SAMPLING PROCEDURE=Diamant-ATR
##ORIGIN=Fabienne
##XUNITS=1/CM
##YUNITS=TRANSMITTANCE
##RESOLUTION=4
##FIRSTX=3997.453
##LASTX=373.96442
##DELTAX=-1.4165319
##MAXY=1.0003797
##MINY=0.46241108
##XFACTOR=1
##YFACTOR=9.3167618e-010
##NPOINTS=2559
##FIRSTY=0.99911058
##XYDATA=(X++(Y..Y))
3997+1072379652+1072218050+1072172115+1072468195+1072859790+1073061761
3989+1073134566+1073146017+1072898815+1072358988+1071946473+1072036998
3980+1072471265+1072769392+1072598321+1071959716+1071164626+1070661585
3972+1070740211+1071364933+1072251829+1073016466+1073334298+1073108336
3963+1072517456+1071914101+1071620964+1071740279+1072115113+1072480222
3955+1072638882+1072533002+1072218881+1071844815+1071602219+1071582259
3946+1071657750+1071587953+1071271273+1070916912+1070888442+1071259629
3938+1071684556+1071810396+1071670993+1071555517+1071594222+1071661653
3929+1071675152+1071755889+1072017806+1072278315+1072118695+1071481113
3921+1070936040+1070975833+1071298399+1071200260+1070601511+1070005578
3912+1069680837+1069565489+1069640468+1069937571+1070279586+1070300378
3904+1069859137+1069334600+1069163273+1069319438+1069629208+1070111393
3895+1070728567+1071190344+1071207425+1070880062+1070538687+1070131610
3887+1069356544+1068411303+1068048113+1068517758+1069269729+1069728435
3878+1069780639+1069626138+1069511429+1069615710+1069732145+1069259941
3870+1068135696+1067366708+1067672192+1068603358+1069515012+1070233779
3861+1070752046+1070928299+1070782563+1070640920+1070816342+1071205378
3853+1071183370+1070572530+1069998540+1069742573+1069597349+1069241068
3844+1068632723+1068162181+1068190331+1068598048+1069112093+1069705212
3836+1070273700+1070427625+1070037629+1069575277+1069580267+1069850564
3827+1069671560+1068874039+1068146763+1068085539+1068482124+1068712692
3819+1068559599+1068081508+1067197108+1066206380+1065878888+1066518454
3810+1067732521+1068802322+1069158411+1068980751+1068898990+1068860029
3802+1068310541+1067378927+1066848440+1066790734+1066757787+1066712044
3793+1066956815+1067537843+1068148875+1068488074+1068575720+1068685759
3785+1068949531+1069180611+1069220276+1069209400+1069290649+1069262756
3776+1068866298+1068237801+1067768411+1067727786+1068102748+1068654858
3768+1069107934+1069356352+1069485967+1069617309+1069704188+1069505799
3759+1068885043+1068215089+1068119126+1068722481+1069633047+1070368640
3751+1070725880+1071065783+1071852300+1072883205+1073334298+1072564670
3742+1071254767+1070499598+1070210108+1069800344+1068943773+1067814090
3734+1066929561+1066713196+1067172029+1067958675+1068689021+1069138963
3725+1069181698+1068772126+1068139342+1067704819+1067589023+1067493699
3717+1067276054+1067205745+1067474123+1067811019+1067837249+1067707250
3708+1067751393+1067879921+1067902568+1067748834+1067444758+1067217772
3700+1067323140+1067627600+1067848701+1067999875+1068257441+1068577256
3691+1068653963+1068186748+1067256925+1066377451+1065844853+1065604177
3683+1065682035+1066166523+1066804041+1066984197+1066287181+1065021038
3674+1064211170+1064282375+1064607691+1064618823+1064369190+1064261710
3666+1064330676+1064360553+1064340017+1064420818+1064556702+1064405208
3657+1063708896+1062848935+1062715801+1063672366+1065229407+1066319425
3649+1065832250+1064232474+1063042333+1062621373+1062638647+1062988082
3640+1063642106+1064281095+1064594832+1064747798+1065057696+1065385316
3632+1065251095+1064452742+1063452930+1063046620+1063265929+1063625408
3623+1063879520+1063874593+1063490867+1062992880+1062836843+1062846184
3615+1062526433+1061938497+1061581576+1061678691+1061992044+1062185507
3606+1062167466+1062207003+1062566802+1063059991+1063175659+1062724118
3598+1062072014+1061577929+1061273469+1061175522+1061404619+1061789817
3589+1061739724+1060869846+1059856855+1059764282+1060480490+1061127668
3581+1061168485+1060671330+1060015259+1059535505+1059385930+1059543438
3572+1059833312+1060022424+1059951987+1059557065+1058796649+1057711365
3564+1056539650+1055598952+1055098661+1055018436+1055138646+1055299801
3555+1055609444+1056260972+1057110378+1057615978+1057393342+1056557436
3547+1055434854+1054330761+1053564908+1053316298+1053389167+1053416996
3538+1053262495+1053011518+1052683323+1052296333+1052093658+1052288976
3530+1052669888+1052765851+1052452562+1052114515+1052057576+1051988035
3521+1051404960+1050479743+1050034792+1050429778+1050930964+1050595347
3513+1049471870+1048459518+1048223064+1048597834+1048959233+1048933130
3504+1048692774+1048677420+1049008814+1049302398+1049231257+1048930699
3496+1048650550+1048327216+1047787198+1047129527+1046628853+1046446970
3488+1046571019+1046832040+1046913417+1046540823+1045754625+1044918207
3479+1044379979+1044203278+1044292460+1044647526+1045304812+1046035607
3471+1046362394+1046000868+1045128879+1044173785+1043472740+1043104943
3462+1042855310+1042412406+1041773353+1041265578+1040988691+1040565747
3454+1039756007+1038947482+1038599710+1038543795+1038306445+1037847228
3445+1037503358+1037366322+1037148037+1036584667+1035776206+1035119943
3437+1034877923+1034847982+1034646779+1034252752+1033950339+1033762890
3428+1033354789+1032601347+1031905867+1031755716+1032206489+1032946304
3420+1033649333+1034061657+1033974010+1033439301+1032911374+1032848997
3411+1033168236+1033342122+1033071697+1032622843+1032417993+1032495148
3403+1032503592+1032157804+1031619320+1031345248+1031494312+1031644783
3394+1031355420+1030788084+1030436921+1030453811+1030546959+1030323172
3386+1029596216+1028584185+1027741944+1027167570+1026432681+1025230130
3377+1023839810+1022709167+1021893541+1021132614+1020298435+1019554845
3369+1019070997+1018674475+1017942145+1016686878+1015215692+1013976995
3360+1013047364+1012115110+1010904177+1009425763+1007835071+1006310593
3352+1005072024+1004209247+1003435205+1002265857+1000518233+998470882+996560247
3342+995034683+993866038+992879533+991884711+990698153+989223577+987592452
3332+986036947+984573311+983074552+981625438+980421927+979371382+978229287
3322+977067233+976138625+975339057+974226903+972559952+970532626+968534792
3312+966832079+965364028+963812425+962055077+960519787+959801788+959903254
3302+960101514+959627518+958316336+956589824+955001435+953857101+953163221
3292+952819031+952735927+952758894+952664466+952349641+951904626+951464729
3282+951114079+950898736+950814544+950833993+950939681+951027583+950901807
3272+950550069+950297173+950554035+951492687+952936299+954464806+955747008
3262+956827237+957960055+959242704+960574615+961862638+963109780+964385136
3252+965729074+967024518+968092912+969052420+970363282+972340131+974795775
3242+977288333+979501636+981280609+982601643+983640161+984626666+985639594
3233+986792820+988419211+990610634+992762969+994139982+994788952+995399344
3223+996369088+997448294+998246519+998734078+999174999+999768181+1000504798
3213+1001326822+1002243977+1003237008+1004224410+1005188779+1006152765
3204+1007039341+1007797645+1008578276+1009519615+1010524098+1011517704
3196+1012698440+1014239679+1015947127+1017409675+1018376988+1018948099
3187+1019461248+1020182575+1021078874+1021984194+1022924190+1024088675
3179+1025467160+1026695941+1027415348+1027723199+1028075322+1028738686
3170+1029582206+1030438904+1031333605+1032212823+1032821424+1033065363
3162+1033217753+1033587981+1034198181+1034853356+1035306624+1035319611
3153+1034824887+1034098891+1033618497+1033681129+1034221468+1034956485
3145+1035594003+1035915417+1035817342+1035385954+1034835635+1034291650
3136+1033755533+1033365217+1033446338+1034122754+1035080086+1035867627
3128+1036275088+1036358449+1036216807+1035807042+1035029481+1034045279
3119+1033331566+1033263368+1033747024+1034340847+1034625155+1034412180
3111+1033698467+1032557268+1031174305+1029882827+1028859216+1027791653
3102+1026232310+1024278875+1022485060+1021077211+1019684971+1017903696
3094+1015782645+1013665177+1011826451+1010423656+1009568684+1009175554
3085+1008812172+1007974026+1006591895+1005200999+1004541281+1004926863
3077+1005967428+1006959435+1007536560+1007803978+1007920990+1007898151
3068+1007851001+1008043887+1008530295+1009073768+1009479822+1009654412
3060+1009422756+1008720878+1007898407+1007419420+1007386985+1007684600
3051+1008354489+1009500358+1010998286+1012571768+1014040203+1015312935
3043+1016297586+1017017504+1017669737+1018311157+1018663855+1018514088
3034+1018069073+1017647729+1017337319+1017154028+1017140977+1017202522
3026+1017195485+1017102656+1016868121+1016379027+1015793649+1015467629
3017+1015455729+1015433850+1015065094+1014215176+1012993432+1011704897
3009+1010559540+1009428834+1008069989+1006419224+1004415377+1001700888
3000+997840785+992793550+986821609+979939294+971883089+962679351+952741429
2990+942335716+931491257+920462932+909744762+899549977+889660419+879810591
2980+870012136+860603804+852195540+845505536+841082320+839203033+840099717
2970+844037166+850905662+859936217+870147188+880907007+891792794+902171573
2961+911318756+918881901+924992093+929949123+933958992+937140440+939558530
2951+941100729+941474475+940488225+938231034+934907368+930698790+925843801
2941+920666375+915478201+910488415+905723249+901070487+896594171+892761898
2931+890190522+889249248+889974412+892179527+895530063+899626108+904095387
2921+908685452+913393936+918443859+923944043+929624446+935048051+939977443
2911+944413199+948410209+952017096+955299242+958313713+961102606+963718509
2901+966189955+968478814+970510618+972221137+973597894+974761420+975921108
2891+977115406+978066469+978435545+978167999+977493247+976653054+975713699
2881+974596235+973189473+971354394+968923189+965939554+962910240+960545122
2871+959233492+958994990+959794111+961532715+963857080+966381370+969080057
2861+972198489+975842546+979831687+983869322+987755974+991433234+994823435
2851+997740215+1000121519+1002200090+1004221467+1006154621+1007858870
2843+1009310542+1010537980+1011603688+1012700615+1014009558+1015482663
2834+1016979439+1018470265+1019905752+1021098451+1021946513+1022597530
2826+1023247715+1023942875+1024652173+1025346694+1025947618+1026395512
2817+1026819607+1027425265+1028122536+1028514387+1028430643+1028268784
2809+1028588023+1029498909+1030629872+1031554321+1032065871+1032176613
2800+1032093444+1032178532+1032748427+1033823731+1035070362+1036027311
2792+1036473605+1036594007+1036757657+1037171452+1037803724+1038542580
2783+1039307281+1040033981+1040626204+1040941477+1040894519+1040636057
2775+1040540733+1040861507+1041413617+1041769322+1041816600+1041921840
2766+1042402362+1043060544+1043484383+1043612782+1043719430+1043991199
2758+1044367440+1044697938+1044895112+1044990755+1045079873+1045190487
2749+1045274999+1045340766+1045466863+1045668642+1045837794+1045826726
2741+1045581955+1045233799+1045026134+1045089854+1045323493+1045555277
2732+1045720014+1045787829+1045661605+1045347164+1045139563+1045375633
2724+1046013663+1046708951+1047254472+1047666667+1047911374+1047883801
2715+1047661549+1047481138+1047436675+1047428422+1047434499+1047640949
2707+1048198369+1048959616+1049587026+1049876580+1049883042+1049770317
2698+1049669171+1049629890+1049573399+1049348653+1048985782+1048776198
2690+1048908756+1049170544+1049240406+1049117956+1048990964+1048874337
2681+1048685161+1048511083+1048524134+1048725401+1048963647+1049127872
2673+1049208034+1049212512+1049110791+1048884957+1048619521+1048469307
2664+1048496176+1048595083+1048628798+1048594827+1048586574+1048626175
2656+1048640633+1048613828+1048617090+1048651701+1048622592+1048525221
2647+1048491442+1048585231+1048682729+1048637307+1048493169+1048431753
2639+1048490930+1048436103+1048035807+1047419273+1046979632+1046900366
2630+1046953146+1046880982+1046833384+1047148144+1047764486+1048232980
2622+1048375198+1048543838+1049054812+1049716385+1050127493+1050181552
2614+1050078743+1050013552+1050046372+1050153531+1050214820+1050064541
2605+1049795395+1049855276+1050508596+1051327165+1051580637+1051102035
2597+1050457864+1050270351+1050626823+1051167290+1051517685+1051548266
2588+1051404000+1051406111+1051779282+1052378734+1052814537+1052870451
2580+1052695350+1052640395+1052970893+1053632082+1054253350+1054516866
2571+1054475346+1054373753+1054309329+1054253990+1054252711+1054343556
2563+1054386484+1054260068+1054130389+1054206008+1054400111+1054587432
2554+1054903088+1055370110+1055589931+1055240048+1054531325+1053923044
2546+1053745127+1054112412+1054814289+1055384185+1055572082+1055576944
2537+1055651348+1055727287+1055539838+1054936419+1054026173+1053163396
2529+1052806604+1053213681+1054110301+1054806101+1054855234+1054482959
2520+1054222450+1054373177+1054916715+1055622750+1056116771+1056115044
2512+1055692484+1055225333+1055093096+1055409392+1055946404+1056373186
2503+1056583730+1056693448+1056800095+1056920434+1057050496+1057144157
2495+1057175313+1057277930+1057603886+1057997529+1058082744+1057748727
2486+1057280745+1056960994+1056822359+1056830100+1056999828+1057303073
2478+1057632228+1057809952+1057607469+1056991895+1056313496+1055937703
2469+1055836877+1055845002+1056014282+1056354377+1056538819+1056273256
2461+1055745264+1055446625+1055684935+1056354249+1057055934+1057435182
2452+1057514128+1057622247+1057939951+1058290666+1058483168+1058625770
2444+1058922873+1059327712+1059547660+1059343194+1058809892+1058351570
2435+1058233407+1058221764+1057946732+1057501269+1057224318+1057039493
2427+1056615654+1056083312+1055921709+1056185993+1056443303+1056389627
2418+1056043903+1055495375+1054869181+1054361981+1054074154+1053974416
2410+1054051635+1054285658+1054528318+1054597220+1054428196+1054130517
2401+1053938078+1053965780+1054019263+1053889457+1053716722+1053747750
2393+1053920933+1054014785+1053981838+1053887409+1053734188+1053530681
2384+1053372661+1053354748+1053465106+1053574120+1053539637+1053405416
2376+1053494471+1054193917+1055570354+1057197513+1058410876+1058837274
2367+1058662428+1058303717+1057948779+1057588596+1057298338+1057107755
2359+1056660692+1055540798+1054017792+1052917730+1052585376+1052575715
2350+1052531252+1052687545+1053414629+1054618012+1055643031+1055989011
2342+1055874303+1055702592+1055519814+1055211515+1054882040+1054838728
2333+1055186052+1055594537+1055658257+1055358211+1054875834+1054228912
2325+1053529977+1053343808+1054176324+1055623582+1056646170+1056686667
2316+1056001679+1055140310+1054591846+1054662219+1055213946+1055675275
2308+1055565172+1054865150+1053869304+1052954388+1052465933+1052547566
2299+1053072807+1053814605+1054548534+1055031615+1055139990+1054997580
2291+1054813458+1054694079+1054688897+1054819471+1055026177+1055266086
2282+1055638233+1056246770+1056973214+1057506579+1057617129+1057364745
2274+1056957028+1056427053+1055721913+1055154896+1055291740+1056139034
2265+1056931182+1057039045+1056615270+1056091373+1055585389+1055119646
2257+1054987472+1055485779+1056357064+1056802974+1056224570+1054786204
2248+1053032886+1051140932+1048893977+1046228557+1043386244+1040653650
2240+1038213425+1036064608+1034002863+1031963062+1030340958+1029673243
2231+1030059720+1031135216+1032439553+1033559575+1034008557+1033371743
2223+1031941886+1031040596+1031957432+1034357864+1036571360+1037716205
2214+1038462034+1039435744+1040266661+1040732148+1041475098+1042934320
2206+1044644135+1046083013+1047290426+1048327536+1049023592+1049510895
2197+1050217379+1051153215+1051956303+1052762844+1054224241+1056442215
2189+1058512725+1059460205+1059273716+1058761783+1058538763+1058511510
2180+1058423991+1058376009+1058505496+1058664348+1058605746+1058110190
2172+1057223935+1056753713+1057663000+1059433720+1060218638+1059430393
2163+1058924025+1060709907+1064400090+1067574501+1068498246+1067664003
2155+1066249372+1064547362+1062689635+1061694621+1062383064+1063742420
2146+1063911635+1062672426+1061442685+1060959092+1060595454+1059967149
2138+1059685848+1060091262+1060339808+1059420349+1057516048+1055843723
2129+1055314324+1055645910+1055958623+1056014986+1056262316+1056765932
2121+1056976477+1056601323+1055931177+1055304215+1054847685+1054627033
2112+1054608224+1054660620+1054797976+1055046073+1055001354+1054171270
2104+1053012989+1052909413+1054548342+1056836114+1058063424+1057787049
2095+1056972702+1056656470+1056987352+1057249589+1056611943+1055223414
2087+1054289369+1054531709+1055260008+1055662543+1056107750+1057244663
2078+1058646370+1059329055+1059136169+1058825950+1058969384+1059287215
2070+1059197329+1058714633+1058443759+1058765301+1059402243+1059800300
2061+1059655715+1059063748+1058332762+1057734845+1057476511+1057746104
2053+1058536332+1059561735+1060551503+1061352031+1061638962+1061092290
2044+1060021336+1059333214+1059710287+1060822888+1061432065+1060739848
2036+1059643496+1059812712+1061408458+1062878236+1063230806+1063236692
2027+1064085201+1065811330+1067441495+1068186172+1068051695+1067573797
2019+1067385900+1067647561+1067506686+1065792137+1062663277+1059990372
2010+1059744386+1062158445+1065658556+1068654539+1070874624+1072576122
2002+1073334298+1072378629+1069487822+1065764692+1063191205+1063137273
1993+1064737882+1065295046+1063163567+1059671965+1057485467+1057958248
1985+1060152167+1061907340+1061841637+1060290674+1058530319+1057694988
1976+1058265011+1059743810+1060940539+1061163559+1060947065+1061289207
1968+1062460090+1063921040+1065239451+1066464842+1067488773+1067647177
1959+1066286286+1063534243+1060474029+1058601524+1058706316+1060100474
1951+1061271934+1061269247+1060230921+1059013911+1058563394+1059160287
1942+1060116020+1060639278+1060789941+1061076936+1061595587+1061851426
1934+1061300659+1060130607+1059347096+1059754302+1061028378+1062084233
1925+1062107968+1061128564+1059908483+1059152098+1058793003+1058401599
1917+1058014099+1058034507+1058498459+1058975717+1058973926+1058317727
1908+1057319642+1056588464+1056574965+1057149147+1057522637+1056932077
1900+1055605797+1054598755+1054607072+1055470488+1056705283+1057900606
1891+1058636454+1058573438+1057807329+1056910709+1056569463+1057213251
1883+1058747836+1060563659+1061885845+1062211929+1061684001+1060995559
1874+1060733578+1060960372+1061444732+1061935362+1062268099+1062557525
1866+1063018087+1063511403+1063683306+1063480759+1063268552+1063333679
1857+1063474681+1063285761+1062738577+1062268483+1062292282+1062801977
1849+1063435528+1063877920+1064182892+1064586323+1064974272+1064995576
1840+1064640063+1064150841+1063725914+1063513003+1063631614+1064052894
1832+1064544163+1064800962+1064770573+1064759569+1064948042+1065109836
1823+1065022446+1064865769+1064960773+1065389346+1065895906+1066033774
1815+1065583129+1064808575+1064194280+1064016172+1064192041+1064436492
1806+1064489208+1064299392+1064036004+1063916434+1064024105+1064255185
1798+1064445513+1064548578+1064606923+1064651962+1064771277+1065094546
1789+1065559394+1066014773+1066458061+1066965196+1067546927+1068158151
1781+1068716787+1069118618+1069340806+1069424358+1069398320+1069307411
1772+1069157580+1068893936+1068630676+1068560878+1068637713+1068692092
1764+1068692604+1068722865+1068908906+1069276510+1069555892+1069476371
1755+1069242795+1069197117+1069264035+1069199995+1069019008+1068845314
1747+1068678210+1068463059+1068197368+1068080421+1068348799+1068797076
1738+1069009348+1068987468+1068949467+1069053811+1069426789+1069913261
1730+1070276963+1070619233+1071096491+1071518987+1071632800+1071482841
1721+1071267626+1071241972+1071718591+1072578873+1073189969+1073334298
1713+1073206410+1072906748+1072713413+1072725505+1072798885+1072933170
1704+1073146593+1073114605+1072441901+1071032132+1069174341+1066943572
1696+1063844525+1059667935+1054627161+1048073937+1038974991+1027850895
1687+1015447732+998820509+974002412+946453512+923928177+905035510+887094034
1677+869108991+850475169+832326220+816855678+803245294+788621086+772997194
1667+759421101+748258747+737153012+724537386+711396327+699603109+689534740
1657+680804550+672950444+664838644+655877247+649167922+646390865+646544662
1647+650062367+657289895+665908062+674221578+682562219+691030172+699342856
1638+708376162+720050513+733389513+744816086+754371754+764356763+776065661
1628+788952161+801913128+815283859+829788944+843711338+854654894+863380925
1618+872864876+884554582+896295020+906419752+915634302+924604336+933194418
1608+941029140+947910751+953923636+959345193+964388654+968991899+972891730
1598+975990649+978514939+980642195+982243123+983183310+983472481+983059454
1588+981835470+979681088+976337526+971487271+965081447+957478382+948879087
1578+938306845+924243129+908608297+895815778+886135742+877291676+868501733
1568+860960724+855095943+849991385+845217838+840856549+836068671+828454154
1558+818041916+809715797+803593450+797398810+790734396+784033196+777665694
1548+772144718+767745812+764182685+761261746+759354438+759281954+761563136
1538+764727246+767364325+770152834+774385723+780164009+785991493+791169943
1528+796404691+802102304+807416318+810822897+810313714+803305943+789813146
1519+773843145+760784743+756304205+762613873+776442862+792760059+808278135
1509+823503522+841549342+859639562+871557917+879159766+886003952+893407349
1499+901496374+909987550+917900321+924211333+929159470+933789520+938800226
1489+943594694+946871785+948345722+948385451+947015603+944018853+939256053
1479+932453708+923078835+910506904+893464991+870510634+844708975+823192088
1469+808478443+798877800+793169759+790912376+790813214+791171990+791075195
1459+789947879+786972560+782059674+776618987+771405927+766218840+760907641
1449+755518455+750032602+744423595+738729501+732749628+726236901+719222540
1439+711081311+699510472+682663812+662886106+643060481+622350968+599362257
1429+575550178+554088822+536181125+521164171+508993080+500518570+496321667
1419+496888908+502320478+511070851+521602597+533571812+546410841+558502826
1409+567927408+573606404+575705959+575455174+574882847+576299909+581983895
1400+593895404+612542340+637173372+667005950+699154063+728269409+751491952
1390+769263764+781560151+786715442+784205291+776212102+765911757+756191735
1380+748815144+743420264+737826036+729488018+717035466+701001490+682103769
1370+659716749+634218782+609506373+590955017+582370500+585098936+596769449
1360+612485274+629014742+645525465+661681699+676749642+689909893+700724539
1350+709075352+714848904+717998429+718836830+718025234+716299937+714371198
1340+713126934+713693055+716957416+723150137+732021776+743071533+755559911
1330+768577561+781281729+793137516+804010699+814046889+823420929+832160395
1320+840107394+846923302+852279220+856267402+859509819+862676233+865948271
1310+869088518+871997942+874952020+878181770+881378636+883815663+884932870
1300+884654256+883184734+880730626+877489169+873688436+869479410+864889345
1290+859985351+855026593+850385284+846319627+842849777+839848612+837215628
1281+834979293+833284257+832268450+831895984+831907563+831947100+831681665
1271+830801103+828976644+825836140+820981344+814100116+805090289+794020700
1261+781032608+766294395+749850591+731412280+710493374+686908601+661146158
1251+634337073+608022073+583947565+563901033+549525435+542079686+542147692
1241+549398059+562521141+579327943+596916081+611980826+621401057+623063914
1231+616730190+604505264+590336628+578555565+572446524+573713947+582732155
1221+599019475+621514230+648498289+677587660+706330859+732960300+756413219
1211+775892735+790907130+801786072+809821805+816705143+823829478+831983374
1201+841280005+851139109+860547249+868560719+874508540+877823698+878029955
1191+874960657+868799412+859967054+849276265+838310188+829336955+824255493
1181+823167586+824035928+824038679+821427638+816256546+809635508+802424677
1171+794533146+785309704+774400758+762118893+749057036+735358301+720226383
1162+702160922+679871785+653165189+623216112+592313157+563447445+539877130
1152+524598995+519691610+525722696+541556365+564735404+592311558+621670395
1142+650833402+678210271+702276270+721481202+734363287+739878697+737968126
1132+730122273+719479786+710011573+704959987+705612219+711335934+720552531
1122+731695180+743662348+755821636+767854443+779704728+791485471+803101412
1112+813931924+822985447+829277842+832108703+831226926+826781510+819112357
1102+808827814+797149368+785976139+777523028+773723895+775451431+782052700
1092+791858641+803252523+815226345+827262927+839112955+850649759+861687040
1082+871936845+881242368+889785876+897901451+905619864+912545810+918307591
1072+923016779+927145707+931052192+934762015+938160405+941237445+944076879
1062+946666423+948816583+950294550+951011334+951047032+950448347+949020921
1052+946443724+942554449+937314838+930553117+921955678+911096121+897087488
1043+878376128+853348958+821482465+784436243+746729024+715292000+697260958
1033+696808202+713060655+740500029+771319431+798230366+816804242+826804669
1023+831520958+834830613+838119157+839978163+838630131+834038018+827800451
1013+821968937+818320722+818083884+821693713+828762517+838370389+849372164
1003+860600285+871083729+880235134+887883494+894213571+899622781+904471628
993+908938540+913131444+917176756+921101346+924832985+928443454+932159163
983+936026239+939812258+943337575+946629893+949651274+952165072+954032075
973+955452271+956764925+958136692+959592396+961258515+963355959+965905391
963+968620200+971190936+973546202+975752404+977793613+979529210+980789211
953+981475927+981593450+981196609+980361150+979242279+978036849+976758998
943+975088976+972538840+968784362+963852154+957997481+951357954+943677606
933+934377713+922967773+909507156+894808417+880250424+867361302+857432208
924+851208651+848577970+848385275+848568501+846686592+840821875+830633551
914+817949983+806366989+799881259+801137550+810292346+825369438+843788940
904+863565431+883302450+901753428+917879721+931184558+941771130+950090531
894+956558539+961276940+964177151+965460120+965761701+965850563+966305687
884+967524296+969867854+973536477+978203633+983017613+987234636+990703655
874+993536564+995598245+996633692+996635099+995772387+994165829+991983489
864+989558746+987136306+984442992+980518658+974120703+964699896+953231291
854+941969455+933213035+928064654+925999966+925407679+924737213+923449510
844+922116704+921744430+922933034+925490016+928651951+931423187+932615502
834+931032807+926154211+918653187+910156062+902514099+896994467+893786213
824+892297370+891876538+891965336+891840264+890916519+889365875+887997947
815+887511028+888092567+889560106+891404781+892456926+890763041+884184355
805+871137468+850765811+823112055+790056381+756335553+729166412+715896315
795+720763075+742803922+776349202+813832122+848978714+878412402+901304382
785+918196337+930259597+939005332+945707811+950884278+954742589+957923781
775+961199209+964605212+967411443+968815198+968417205+966261991+962634696
765+957724881+951473046+943689825+934070822+922097640+907362178+890419427
755+873436180+859736293+852138090+851252410+854962170+859147973+859166014
745+851574784+835143902+810536669+779625590+745278247+710831934+679052576
735+651655874+629541454+612974304+601631667+594906029+592433495+594319819
725+600818472+612068536+628253495+649367079+674160737+699639383+722393240
715+740719338+755648134+770126796+786733419+805548227+824082182+839254022
705+849458723+855169707+858245531+860756002+863968222+868028825+872470914
696+876926822+881302825+885405587+888632650+890187579+889734056+887953803
686+886348781+886147577+887361005+889253918+891745260+895555013+900787203
676+906425894+911508764+915874722+919829253+923985563+929105795+934547952
666+938561661+941256829+943815346+946781580+949557422+951115102+951232434
656+950538809+949351676+946942478+941917314+932888615+919240037+902244889
646+885447235+873307780+869042072+873346997+884619901+899704286+914626812
636+925904002+932089814+934198645+934470414+934687484+935355518+935974931
626+935903086+934997574+933610836+932327484+931830200+932687923+934888623
616+937524870+939411898+940320865+940904707+940977063+938920948+933667071
606+926128493+917733473+908872389+899636536+890718642+882714705+875522683
596+869152750+864531784+862769254+863557498+864968035+865591990+866198544
586+868343521+872344690+877720249+884627962+893358279+902932372+911396039
577+917301829+920650061+922689735+924597427+926203409+926277237+923956646
567+919362166+912776891+903894375+892324688+879084019+867559947+862102435
557+864699913+873250714+883661865+893105192+900633085+905787544+908081265
547+907558008+904986121+901419923+897680031+894083572+890435101+886226459
537+881190675+875902123+871367717+867864023+864826648+861776798+858430741
527+854456762+850404028+848072370+848597290+851201678+854334760+857070873
517+859505277+862388342+866188755+870446978+874623697+879566268+887107661
507+897693721+909226687+918875951+925386823+929479477+932619917+935676868
497+938814940+941995365+944991795+947252633+948128972+947165434+944113409
487+938726846+930571926+919454035+906369979+893408245+882367445+874007163
477+867952949+862441314+855234514+845954006+837024340+831311630+830085151
467+834142107+844603351+861694398+883327976+905405801+924780973+941464558
458+956379599+969015122+979294419+987911627+994183102+997202947+998451305
448+1000525270+1004360294+1009096928+1013258611+1015261691+1014510488
439+1012652378+1012595631+1016065610+1022051369+1027938926+1031782138
431+1032589896+1030036369+1025263205+1020597073+1017526303+1015699541
422+1014539405+1014934647+1018021347+1022113745+1024241641+1024582632
414+1025001865+1026407923+1027891200+1027727422+1025243053+1021478466
405+1018481780+1018109825+1020985150+1026442214+1033260553+1039091427
397+1040173448+1036593176+1034043808+1036934742+1044387017+1052991366
388+1060774522+1066711276+1069262436+1069144656+1069813011+1071956581
380+1073334298+1073741823+1073415419+1073095668+1073334298
##END=
