##TITLE=JMB-166
##JCAMP-DX=4.24
##DATA TYPE=INFRARED SPECTRUM
##DATE=7/2/2019
##SAMPLING PROCEDURE=Diamant-ATR
##ORIGIN=Angelika Moesle
##XUNITS=1/CM
##YUNITS=TRANSMITTANCE
##RESOLUTION=4
##FIRSTX=3997.453
##LASTX=373.96442
##DELTAX=-1.4165319
##MAXY=1.0010445
##MINY=0.57019341
##XFACTOR=1
##YFACTOR=9.3229535e-010
##NPOINTS=2559
##FIRSTY=1.0010445
##XYDATA=(X++(Y..Y))
3997+1073741823+1073123461+1072703547+1072396412+1072270528+1072412779
3989+1072601766+1072475562+1071947921+1071321887+1071079260+1071488497
3980+1072194959+1072414889+1071850934+1071153359+1071087316+1071585483
3972+1072063832+1072290731+1072438928+1072586997+1072621457+1072495956
3963+1072310166+1072175523+1072122203+1072104174+1071971704+1071508060
3955+1070722832+1070048337+1069926672+1070281182+1070661520+1070781779
3946+1070686327+1070548103+1070535700+1070733062+1071109437+1071583374
3938+1071938523+1071791860+1071026579+1070162202+1069949496+1070546505
3929+1071403721+1072034039+1072414441+1072630919+1072536426+1071941272
3921+1070989498+1070176139+1070065855+1070796356+1071749856+1072118814
3912+1071735535+1070969806+1070065535+1068987365+1067846093+1067139759
3904+1067444529+1068827468+1070665229+1072045675+1072206019+1070880044
3895+1068510999+1066249233+1065560225+1066742670+1067904272+1067543369
3887+1066675923+1066957421+1068067941+1068705164+1069083137+1069663331
3878+1069523445+1068273870+1067158619+1067078767+1067458082+1067793668
3870+1068463049+1069124502+1068931232+1068399435+1068736044+1069930508
3861+1070785167+1070507505+1068969400+1066427351+1064133491+1064713365
3853+1069082945+1072621457+1072362592+1070143150+1068070818+1066967139
3844+1066608282+1066170595+1065154632+1064236168+1064650199+1066464432
3836+1068252964+1069118684+1069458361+1069727072+1069758144+1069386756
3827+1068826957+1067969996+1066408235+1064868979+1065243436+1067575911
3819+1069215607+1069502219+1070047506+1070910412+1070599633+1068954631
3810+1067026917+1065928480+1066426776+1067796929+1068151119+1067421768
3802+1067382705+1068357047+1068585801+1067869940+1067617020+1068110841
3793+1068375460+1068000939+1067330024+1066540896+1065716925+1065322393
3785+1065694804+1066313102+1066422876+1066043304+1065668783+1065454032
3776+1065275019+1065172342+1065267219+1065652864+1066371090+1067152354
3768+1067579236+1067697640+1067635114+1066944187+1065404931+1063979028
3759+1063977494+1065146960+1065757651+1065027341+1063796947+1063451899
3751+1064755433+1066574589+1067130233+1066893680+1067965329+1070717078
3742+1071907451+1069740754+1066014982+1063105637+1062434849+1063858003
3734+1065838846+1067091361+1067419786+1067002494+1066090679+1065182188
3725+1064736509+1064722316+1064949535+1065494693+1066311120+1067019245
3717+1067302341+1067148837+1066928204+1067317557+1068444508+1069116318
3708+1068389909+1066798995+1065250277+1064335904+1064432954+1065421298
3700+1066447362+1066797716+1066560588+1066156914+1065807391+1065596922
3691+1065835457+1066871367+1068124714+1068320286+1067340254+1066145086
3683+1065544369+1065673514+1065829192+1065136284+1063937024+1063749764
3674+1064640418+1064855936+1064514981+1065234421+1066917975+1067725771
3666+1067305346+1066752260+1066725663+1066809608+1066155763+1064733185
3657+1063620043+1063520180+1063531688+1062905270+1062700108+1064515428
3649+1067938413+1070232337+1070209640+1068909878+1067337696+1065993436
3640+1065094919+1064590422+1064251704+1063873858+1063272311+1062238638
3632+1060945589+1060458609+1062023567+1064567662+1065413051+1064331748
3623+1062772800+1061886622+1062202963+1063410023+1064271906+1064153630
3615+1063843490+1063899623+1063661344+1062683230+1061883361+1062073435
3606+1062625754+1062782262+1062839610+1063292833+1063977110+1064359942
3598+1064268710+1064091934+1064282519+1064592404+1064161813+1062842807
3589+1061855486+1062619936+1064647578+1065769670+1065205779+1063996674
3581+1063153650+1062755922+1062388753+1061977087+1061859514+1062167161
3572+1062516620+1062455755+1062027211+1061765341+1062011611+1062289849
3564+1062077079+1061661321+1061517791+1061581277+1061522650+1061322475
3555+1061165008+1061131507+1061184379+1061123067+1060702451+1060114713
3547+1059943308+1060358746+1060836007+1060967774+1060901539+1060915924
3538+1061124730+1061469777+1061781452+1061966155+1062033029+1061810989
3530+1060961828+1059514316+1058137834+1057639986+1058232263+1059281279
3521+1059837243+1059542894+1058858617+1058397339+1058377839+1058760991
3513+1059514635+1060466281+1061121149+1061028318+1060350434+1059738913
3504+1059655992+1060035372+1060459568+1060507007+1060067786+1059458950
3496+1059152198+1059278722+1059533560+1059584003+1059425513+1059305510
3488+1059346044+1059369443+1059251870+1059237549+1059571728+1060028211
3479+1060203452+1060063438+1059832256+1059564056+1059165240+1058755173
3471+1058647062+1058830358+1058807342+1058292424+1057804230+1058082467
3462+1059109682+1060175961+1060764274+1060936766+1060921230+1060724444
3454+1060273779+1059706371+1059296367+1059163450+1059200532+1059196312
3445+1058973505+1058552760+1058185464+1058076969+1058144738+1058176257
3437+1058097172+1057994559+1057985353+1058053506+1058041742+1057950062
3428+1058076074+1058557108+1059056618+1059286330+1059487080+1059958843
3420+1060473634+1060623749+1060464555+1060397489+1060584622+1060803465
3411+1060825394+1060688002+1060547477+1060444608+1060349923+1060302293
3403+1060327227+1060289698+1060052378+1059732903+1059579783+1059564887
3394+1059331019+1058666881+1057867460+1057422165+1057408483+1057416603
3386+1057107933+1056621274+1056307489+1056306530+1056532918+1056829057
3377+1056976039+1056792998+1056377624+1056098364+1056227125+1056687892
3369+1057215213+1057637045+1057896614+1057912021+1057640177+1057258880
3360+1057039205+1057028017+1057102435+1057256706+1057528550+1057708714
3352+1057490062+1056884423+1056205324+1055661764+1055228105+1054878838
3343+1054695157+1054707752+1054850196+1055124917+1055595209+1056119973
3335+1056339456+1056094720+1055658567+1055396313+1055410762+1055626920
3326+1055942111+1056171567+1056107251+1055753124+1055355843+1055167880
3318+1055259112+1055463763+1055490998+1055211994+1054821937+1054619269
3309+1054729617+1055074026+1055462036+1055691685+1055635487+1055226634
3301+1054510071+1053842928+1053761796+1054393393+1055305208+1056058853
3292+1056529210+1056659889+1056406906+1055978105+1055729597+1055742448
3284+1055737461+1055485180+1055161359+1055163021+1055566503+1055948952
3275+1055862514+1055385764+1055054398+1055204194+1055529806+1055484477
3267+1055036113+1054694326+1054800647+1055162445+1055432308+1055514270
3258+1055503977+1055424891+1055181434+1054813818+1054641390+1054943794
3250+1055617522+1056303909+1056657076+1056427236+1055643926+1054807041
3241+1054540119+1054984967+1055719496+1056234606+1056382163+1056402430
3233+1056530425+1056614752+1056293040+1055528335+1054755766+1054451508
3224+1054724822+1055285581+1055638812+1055406990+1054717342+1054193537
3216+1054359828+1055109061+1055870825+1056188638+1056034175+1055662979
3207+1055264419+1054785943+1054189638+1053756426+1053817290+1054249095
3199+1054581356+1054549837+1054260092+1053906669+1053584254+1053328393
3190+1053153791+1053046575+1052980149+1052997986+1053228593+1053695881
3182+1054149679+1054293657+1054170458+1054108059+1054284067+1054563967
3173+1054780061+1054937337+1055082529+1055158418+1055114943+1055068911
3165+1055176894+1055382631+1055458264+1055322023+1055112450+1054862471
3156+1054382972+1053675870+1053155198+1053161336+1053512137+1053811920
3148+1053962419+1054100259+1054229276+1054182029+1053868181+1053385677
3139+1052907073+1052556975+1052427574+1052573661+1052888788+1053097594
3131+1053011732+1052734070+1052555632+1052683946+1053049836+1053359976
3122+1053401277+1053257044+1053135762+1053098297+1053093822+1053096635
3114+1053044146+1052803310+1052373423+1052019936+1052058807+1052554098
3105+1053273922+1053931731+1054430090+1054815480+1054986437+1054680581
3097+1053895992+1053058147+1052564519+1052378026+1052221517+1051928064
3088+1051509237+1051097443+1050848104+1050774708+1050756424+1050739609
3080+1050752588+1050709305+1050437716+1049971899+1049592647+1049465100
3071+1049376553+1048995511+1048316220+1047662439+1047274173+1047060444
3063+1046807588+1046491758+1046286085+1046293181+1046357690+1046211283
3054+1045759851+1045168852+1044689864+1044458490+1044415463+1044397178
3046+1044367896+1044550937+1045172944+1046048189+1046626849+1046588169
3037+1046215567+1046034444+1046240884+1046590407+1046659071+1046151761
3029+1045144238+1044094198+1043510104+1043568348+1044057437+1044626442
3020+1045038684+1045215907+1045144557+1044862740+1044504777+1044188116
3012+1043847991+1043345221+1042739965+1042339935+1042441077+1043032268
3003+1043790324+1044400183+1044822845+1045198133+1045591131+1045894110
2995+1045923392+1045633966+1045258870+1045083565+1045102873+1045108371
2986+1045041305+1045029989+1045172752+1045463904+1045801151+1045970255
2978+1045799042+1045387312+1045063298+1045084844+1045422922+1045806394
2969+1045978630+1045927739+1045791561+1045596565+1045319095+1045142192
2961+1045285594+1045608457+1045773085+1045707681+1045516904+1045149096
2952+1044609116+1044215416+1044207424+1044404722+1044577853+1044770420
2944+1045018481+1045181830+1045201714+1045184452+1045169363+1045098014
2935+1044988240+1044894387+1044774576+1044603746+1044536872+1044748811
2927+1045139698+1045376699+1045248065+1044864530+1044515135+1044391296
2918+1044414887+1044345903+1044090554+1043828939+1043769162+1043909943
2910+1044130768+1044380555+1044670237+1044959215+1045166806+1045311103
2901+1045575339+1046119219+1046827471+1047378576+1047573572+1047479079
2893+1047271424+1047071504+1046932705+1046891021+1046996191+1047267588
2884+1047603876+1047829561+1047897586+1047952504+1048094820+1048205168
2876+1048134650+1047958578+1047857883+1047830328+1047705083+1047408049
2867+1047090109+1046990949+1047203910+1047541733+1047706617+1047621394
2859+1047448007+1047266245+1047004247+1046733362+1046680873+1046857520
2850+1046994401+1046968572+1046982190+1047196366+1047461497+1047568393
2842+1047566987+1047665380+1047923670+1048178444+1048230933+1048053647
2833+1047825085+1047740118+1047785063+1047786789+1047675162+1047563343
2825+1047536747+1047517055+1047404149+1047243868+1047151996+1047139018
2816+1047126231+1047128149+1047266884+1047556054+1047823039+1047913441
2808+1047817861+1047588341+1047297317+1047071760+1046985770+1046941400
2799+1046803944+1046594371+1046433898+1046397073+1046489840+1046652870
2791+1046735535+1046642065+1046558696+1046845501+1047571079+1048317435
2782+1048604431+1048396137+1048031078+1047765691+1047570375+1047323274
2774+1047030076+1046836294+1046883285+1047160691+1047511557+1047784999
2765+1047919962+1047860377+1047540646+1047035958+1046579858+1046359288
2757+1046410627+1046689631+1047062490+1047281781+1047210559+1047048616
2748+1047109353+1047401272+1047628235+1047573252+1047311702+1047054051
2740+1046915699+1046873695+1046883477+1046975349+1047191891+1047439760
2731+1047483107+1047188055+1046756953+1046562149+1046673392+1046750752
2723+1046575830+1046447324+1046735471+1047252883+1047470320+1047247001
2714+1046951694+1046926056+1047150718+1047403765+1047498131+1047372566
2706+1047113125+1046884308+1046785020+1046785915+1046799213+1046781184
2697+1046774279+1046848250+1046964992+1046971065+1046774535+1046484661
2689+1046323102+1046419641+1046678123+1046812319+1046583566+1046027859
2680+1045394984+1044900460+1044638270+1044639165+1044875207+1045255545
2672+1045672901+1046011300+1046176887+1046220745+1046311338+1046494891
2663+1046628447+1046605303+1046506846+1046511961+1046710985+1046957767
2655+1046950926+1046596736+1046152976+1045867067+1045712796+1045644259
2646+1045781780+1046164804+1046578132+1046741289+1046522190+1046031503
2638+1045646305+1045791625+1046529479+1047463032+1048130750+1048389871
2629+1048385588+1048297872+1048206831+1048127553+1048069822+1048030950
2621+1047965355+1047843626+1047750667+1047784680+1047832118+1047673436
2612+1047374292+1047272063+1047489692+1047768057+1047841324+1047712051
2604+1047513155+1047324616+1047200138+1047260235+1047602086+1048064643
2595+1048279331+1048124421+1047907495+1047915615+1048054925+1048092454
2587+1047968935+1047746064+1047496021+1047316369+1047297956+1047465525
2578+1047780588+1048115278+1048253182+1048060807+1047642428+1047210559
2570+1046916850+1046892683+1047247321+1047901102+1048616323+1049234813
2561+1049675632+1049796722+1049579349+1049332311+1049390810+1049729592
2553+1050042034+1050061661+1049753183+1049341581+1049114682+1049114938
2544+1049140831+1049061362+1049003311+1049200673+1049714760+1050294698
2536+1050590773+1050506189+1050185500+1049726268+1049167875+1048707939
2527+1048607948+1048870330+1049200033+1049333462+1049298682+1049345929
2519+1049655941+1050106606+1050338556+1050116644+1049571421+1048989118
2510+1048488137+1048109908+1048049299+1048432643+1048953635+1049115897
2502+1048869115+1048697646+1049009129+1049693534+1050380752+1050873485
2493+1051164062+1051220898+1050949758+1050325194+1049540542+1049019997
2485+1049064175+1049427699+1049557100+1049285128+1048938291+1048780567
2476+1048748089+1048693299+1048568565+1048386931+1048202675+1048087787
2468+1048052879+1048056460+1048089257+1048143025+1048137399+1048006528
2459+1047815368+1047680149+1047695365+1048021424+1048748920+1049539774
2451+1049812450+1049495660+1049171903+1049264798+1049498857+1049393943
2442+1049005612+1048907283+1049483385+1050404151+1050934605+1050712757
2434+1050021319+1049331160+1048863297+1048642983+1048663633+1048828325
2425+1048916170+1048766438+1048412823+1048001989+1047679765+1047528499
2417+1047496724+1047432599+1047261514+1047075277+1047069842+1047425439
2408+1048090280+1048677507+1048886888+1048962010+1049315433+1049828497
2400+1050022918+1049835593+1049689762+1049793270+1049827090+1049488308
2391+1048969618+1048641832+1048557824+1048544270+1048524003+1048507317
2383+1048495297+1048509746+1048491461+1048231253+1047691849+1047249367
2374+1047290732+1047764029+1048362764+1048922563+1049446496+1049812386
2366+1049666426+1048926783+1048267887+1048434305+1049233406+1049879579
2357+1049994340+1049770957+1049622696+1049745575+1049701845+1048873974
2349+1047318990+1045793415+1045077108+1045194105+1045435837+1045448304
2340+1045591386+1046091472+1046625187+1046871138+1046966974+1047163568
2332+1047339704+1047162354+1046586763+1045964373+1045705955+1045929977
2323+1046393429+1046798829+1047159029+1047620307+1048058825+1048222558
2315+1048141107+1048121736+1048420240+1048948967+1049203805+1048677251
2306+1047577728+1046815899+1046990821+1047751626+1048368837+1048509363
2298+1048269229+1047862614+1047499154+1047313620+1047249495+1047089853
2289+1046734832+1046478140+1046781951+1047605347+1048279651+1048383222
2281+1048311681+1048540306+1048851405+1048841624+1048639659+1048469213
2272+1048044440+1047167149+1046529798+1047076299+1048743742+1050487329
2264+1051435714+1051526627+1051158372+1050696838+1050334528+1050147843
2255+1050093308+1049949522+1049505123+1048871033+1048387953+1048272554
2247+1048570355+1049164614+1049649356+1049684775+1049579477+1049931877
2238+1050678361+1051105691+1050764287+1049914167+1049103686+1048575342
2230+1048263923+1048363659+1049383969+1051203445+1052631393+1052670712
2221+1051772578+1051044315+1050707387+1050249177+1049705873+1049764691
2213+1050651317+1051773473+1052574748+1053125661+1053696712+1054022069
2204+1053400062+1051905751+1051100640+1052419774+1055048900+1056705026
2196+1056422313+1055257258+1054391666+1053860893+1053136018+1052055291
2187+1051082099+1050970919+1052153492+1054200059+1055853883+1056018575
2179+1054936761+1054002953+1054327925+1055734328+1056985118+1056735458
2170+1054647783+1051767783+1049446879+1048065666+1047408177+1047809997
2162+1049764116+1052618798+1054942579+1056467962+1058059004+1059522947
2153+1059442583+1057377284+1054857931+1053743639+1054409568+1055802353
2145+1056476529+1055463251+1052991976+1050501202+1049423352+1050037622
2136+1051681729+1053549091+1054923335+1055213656+1054476953+1053648826
2128+1053607653+1054148145+1054419925+1054145779+1053734113+1053385741
2119+1052856246+1052069164+1051391216+1051195645+1051420306+1051687931
2111+1051741251+1051558210+1051109143+1050394050+1049732789+1049495021
2102+1049523535+1049374507+1049082460+1049131369+1049759065+1050733599
2094+1051653023+1052113854+1051793101+1050727334+1049432878+1048517290
2085+1048194875+1048302794+1048675461+1049302774+1050113064+1050876362
2077+1051528225+1052384483+1053676573+1054942707+1055348171+1054691385
2068+1053654708+1052984688+1052959307+1053638213+1054838624+1055735862
2060+1055356035+1053713591+1051772322+1050294826+1049459155+1049433389
2051+1050446859+1052226824+1054016698+1055415301+1056702852+1057945075
2043+1058295045+1056884806+1054204534+1051780186+1050681430+1051152298
2034+1053108910+1055857463+1057830698+1057800394+1056072599+1054041760
2026+1053032510+1053545958+1054955557+1056003231+1056015442+1055370740
2017+1054818165+1054938104+1056065566+1057877434+1059115245+1058571876
2009+1056472437+1054174357+1052526543+1051340773+1050361572+1049709133
2000+1049398162+1049129579+1048618561+1047782442+1046816858+1046270741
1992+1046717123+1048086317+1049516758+1049971515+1048918599+1046569437
1983+1043595263+1040835970+1039325931+1039984635+1042710556+1046033485
1975+1048132476+1048073338+1046172028+1043544500+1041335863+1040389204
1966+1041281328+1043909815+1047097270+1049221771+1049375402+1048093285
1958+1047071888+1047611229+1049071464+1049627235+1048816434+1048147884
1949+1048832225+1050248794+1051224223+1051663252+1052048322+1052135655
1941+1051397674+1050359270+1050073297+1050589750+1051048087+1051139000
1932+1051367433+1051823980+1051853454+1051202102+1050579265+1050644860
1924+1050967851+1050532785+1049165445+1047814025+1047434262+1047957939
1915+1048519464+1048534808+1048117516+1047652018+1047287215+1046921901
1907+1046559208+1046339213+1046240181+1046077535+1045796932+1045518886
1898+1045334439+1045196279+1044886075+1044126229+1043009571+1042176393
1890+1042193655+1042837591+1043507483+1044126421+1044963243+1045984768
1881+1046913909+1047617175+1048090344+1048349530+1048526816+1048837852
1873+1049364853+1050038837+1050782892+1051468704+1051843672+1051809532
1864+1051609357+1051564923+1051758960+1052031763+1052189039+1052133865
1856+1051913167+1051688122+1051538391+1051328114+1050869266+1050191701
1847+1049632797+1049634651+1050216571+1050678489+1050479273+1049914998
1839+1049467530+1049212244+1048888551+1048234066+1047236069+1046230271
1830+1045689780+1045674564+1045796356+1045810677+1045620348+1044963626
1822+1043670577+1042032416+1040697618+1040169082+1040290363+1040451475
1813+1040434597+1040705993+1041699452+1043123117+1044383368+1045317241
1805+1046132325+1046952908+1047618261+1047872204+1047722728+1047438929
1796+1047223026+1047190356+1047550492+1048321783+1048937204+1048946218
1788+1048675141+1048655898+1048902232+1048976203+1048685563+1048259767
1779+1047876552+1047458492+1046976052+1046701267+1047037620+1047874634
1771+1048373185+1048103834+1047480102+1046897670+1046434985+1046255333
1762+1046588361+1047273278+1048002564+1048798533+1049536130+1049745959
1754+1049405706+1049145370+1049490674+1050228527+1050791459+1051028140
1745+1051075131+1050999498+1050902639+1051018166+1051290394+1051213866
1737+1050698756+1050552157+1051482449+1052556975+1052606651+1051958624
1728+1051289754+1050901488+1050865558+1051000073+1050856607+1050301539
1720+1049918451+1050555162+1052194346+1053605671+1054062730+1053858463
1711+1053385166+1052859635+1052494384+1052453083+1052474693+1052057720
1703+1051375553+1051265396+1051849426+1051881776+1050969513+1050041778
1694+1049462415+1048892578+1048385524+1048180362+1048019954+1047617750
1686+1047535020+1048561788+1049822935+1049909308+1049015010+1047835506
1677+1046830604+1046230143+1045866875+1045403742+1045026728+1045291795
1669+1046115895+1046681576+1046831691+1047192658+1048151976+1049269593
1660+1049886996+1049891087+1049471238+1049057270+1049744680+1052267293
1652+1054156776+1053756682+1052661697+1052550134+1053672290+1054652130
1643+1054747902+1054347936+1053760646+1053061280+1052646609+1053314967
1635+1054934012+1056101816+1056350005+1056237035+1056249182+1056394886
1626+1056444946+1056434525+1056550947+1056581891+1056144843+1055440555
1618+1055239741+1056002400+1056987419+1057412319+1057486610+1057659613
1609+1057976914+1058198314+1058288141+1058454814+1058789569+1059194394
1601+1059621212+1060077184+1060299032+1059333513+1054949676+1043582541
1592+1022672733+994977565+969941188+957865226+961409811+974473094+988985488
1582+1000545254+1008453474+1013598180+1017414993+1021293438+1025141131
1574+1027693665+1029066247+1030564714+1032866885+1034880079+1035173212
1565+1033586901+1030690726+1027107333+1023121033+1018531395+1013622027
1557+1009942862+1008302080+1008623919+1010405291+1012842553+1015285761
1548+1017363847+1019097396+1020901911+1023055629+1025569484+1028915173
1540+1033108681+1036072433+1036937514+1037031623+1037656059+1038963238
1531+1040044860+1040539319+1040984614+1041699516+1042252602+1042306562
1523+1042414225+1043287425+1044621264+1045696812+1046531333+1047379854
1514+1048122503+1048549129+1048658007+1048624506+1048994999+1050664552
1506+1052992552+1053969707+1053662764+1053147526+1053049836+1053547109
1497+1054448311+1055087004+1054919883+1054187464+1053423270+1052409737
1489+1048808506+1038860561+1021300471+998972560+977136489+961394787+955648085
1479+960443525+973155239+989428929+1005199336+1018410178+1028301734+1034462211
1469+1037708229+1039646684+1041519160+1043571225+1044973856+1044935751
1460+1043406213+1040336204+1034790316+1025496088+1012173556+994055073+969782250
1451+940170108+910638075+890593859+887218633+898356759+913648818+921209753
1441+914900503+897385613+876122703+859431145+853254685+858177159+872040055
1431+891275196+910164713+924436015+934395852+942008125+947973733+952319722
1421+955955796+960347177+965478394+969875593+973240590+976323833+979446140
1411+982399024+984920486+986952603+988763000+990622498+992247872+993203930
1401+993675821+994190611+994980890+995957470+997009235+997992912+998720472
1391+999225800+999892623+1001180430+1003032320+1004761458+1005884125+1006455816
1381+1006630865+1006486120+1006167989+1005994922+1006423082+1007701491
1373+1009454860+1011099670+1012522439+1013876993+1015159237+1016328384
1364+1017519460+1018860843+1020196855+1021201630+1021775431+1022142024
1356+1022560019+1023051218+1023529822+1024042822+1024669815+1025334465
1347+1025882629+1026230937+1026371590+1026303757+1025990292+1025307038
1339+1024027286+1022033145+1019621456+1017407065+1015910133+1015362801
1330+1015795692+1017029092+1018636629+1020175246+1021393685+1022179552
1322+1022523066+1022504014+1022129493+1021277902+1019862740+1017894620
1313+1015474620+1012938900+1010873282+1009801122+1009908721+1011059647
1305+1012964729+1015300466+1017738239+1019989840+1021859311+1023202548
1296+1023901849+1023980615+1023633969+1023072891+1022469681+1022078794
1288+1022216634+1023026284+1024333527+1025763457+1026991358+1027915577
1279+1028612002+1029154155+1029500418+1029523945+1029149105+1028485350
1271+1027764567+1027132907+1026644073+1026466211+1026888298+1028026182
1262+1029607058+1031075285+1031904051+1031891648+1031232177+1030320489
1254+1029474653+1028808724+1028338687+1028159163+1028403196+1029020343
1245+1029729618+1030228233+1030311986+1029776162+1028437336+1026374147
1237+1024011879+1021909435+1020568563+1020384755+1021517971+1023721366
1228+1026420754+1029041058+1031261075+1033011247+1034334728+1035318085
1220+1036116291+1036882979+1037626969+1038249359+1038719780+1039096730
1211+1039410834+1039653525+1039832346+1039979328+1040134494+1040298355
1203+1040366124+1040181933+1039677180+1038910940+1038014852+1037117294
1194+1036211808+1035046049+1033172486+1030188403+1026080694+1021418172
1186+1017087271+1013648303+1010751617+1007156588+1001880691+995965206+992616384
1176+994554072+1001253890+1009471482+1016181274+1020373119+1022511941
1167+1023310148+1023124549+1021911672+1019427483+1015743459+1011904908
1159+1009806684+1010810052+1014434107+1018779839+1022131475+1023792588
1150+1023644902+1021434922+1016560078+1008592720+998431941+988939840+983657741
1140+984306280+989692589+997078347+1004214829+1010152115+1014887521+1018738411
1130+1021928423+1024526093+1026605266+1028302117+1029736715+1031007707
1122+1032205304+1033332511+1034289975+1034996245+1035430480+1035551058
1113+1035255111+1034417905+1032889262+1030388450+1026354520+1019789665
1105+1009149578+992746104+970312256+944904363+922570443+908877929+905489980
1095+910264449+919941509+932058837+945103771+958143271+970574575+981856359
1085+991404146+998812855+1004075902+1007515765+1009524035+1010377416+1010290275
1075+1009607788+1008882210+1008753192+1009742815+1012017878+1015205781
1067+1018550383+1021405833+1023561725+1025121567+1026264182+1027173952
1058+1027993831+1028707070+1029163937+1029302417+1029238419+1029100771
1050+1028913447+1028639109+1028170543+1027310385+1025944452+1024221388
1041+1022429276+1020751988+1019218933+1017769055+1016099311+1013276851
1033+1007914069+999798258+991678036+988095282+991291112+998963929+1006749334
1023+1011854082+1013520565+1011484867+1005969540+999108419+994722344+995583716
1013+1001127877+1008339289+1014568558+1019000217+1021778883+1022618454
1004+1020592410+1015177522+1007511290+1000352175+996232638+995673862+997622355
994+1001186248+1006111408+1011844555+1017171152+1021028243+1023264371
986+1024536515+1025659693+1026960798+1028069592+1028362726+1027574046
977+1025858590+1023515821+1021099017+1019690121+1020390253+1023249091
969+1027050049+1030368503+1032620870+1034049970+1035078463+1035913559
960+1036575971+1037069791+1037484015+1037952070+1038503941+1039027682
952+1039457697+1039898645+1040427500+1040878229+1041067983+1041156019
943+1041463730+1042020652+1042623926+1043227200+1043901695+1044538278
935+1044957680+1045203376+1045419854+1045555136+1045383092+1044698879
926+1043413246+1041667933+1039954650+1038895277+1038768050+1039335073
918+1040166717+1041036336+1042010039+1043245421+1044689864+1045975305
909+1046718337+1046947730+1047098932+1047539368+1048225691+1048878641
901+1049332375+1049577431+1049586062+1049340942+1049039113+1049011942
892+1049364086+1049882968+1050355307+1050776051+1051175953+1051446007
884+1051469087+1051335850+1051279205+1051413465+1051667856+1051950504
875+1052228166+1052478017+1052699930+1052870503+1052763735+1052032914
867+1050603623+1048712159+1046471491+1043794479+1040860520+1038207547
858+1036091293+1033994667+1030981303+1026541972+1021241460+1016674646
850+1014610818+1015906808+1020149097+1026202486+1032886129+1039230734
841+1044510787+1048294291+1050551773+1051714527+1052482045+1053407415
833+1054647783+1056066781+1057464169+1058729024+1059878735+1060967262
824+1061984440+1062887944+1063662367+1064294858+1064751406+1065022866
816+1065187174+1065469376+1066176989+1067446191+1069042476+1070535572
807+1071644238+1072322122+1072621585+1072621457+1072432407+1071799148
799+1070362313+1067669382+1062704264+1053268232+1036287185+1008832725+969619988
789+922182305+877788802+851660765+852137260+873883697+903413749+930182013
779+951600026+969945536+987358452+1003846510+1018266200+1029792337+1038321668
769+1044256781+1048316604+1051105243+1052476611+1051412187+1046575958
761+1036943204+1021736112+999202273+965649862+917841559+858468631+798343976
751+750690199+722922530+714683904+722049075+741272388+769448973+803401221
741+836975241+859993566+865141149+858101398+855564975+869293356+895900892
731+924308852+947688335+965685217+979995710+991622350+1000970026+1008405907
721+1014484486+1019775663+1024388381+1027846913+1029489869+1028824835
713+1025507404+1019216184+1009986720+998815029+987166780+975039735+959605680
703+936124478+900187231+849921334+788569929+726755519+680176203+660582717
693+667711079+691808405+723200512+757478436+792980746+827107851+856630678
683+879785245+896844163+909331983+919027328+927300031+935006861+942476116
673+949331739+955077801+960375691+967199923+975786539+983285458+988766005
663+993380386+997937609+1002545468+1007137856+1011580639+1015506714+1018560804
653+1020731401+1022360547+1023926720+1025742231+1027788989+1029838369
645+1031681627+1033305659+1034909808+1036603335+1038143166+1039315126
636+1040427181+1041905317+1043546738+1044733658+1045239562+1045321141
628+1045241608+1045107604+1044833842+1043827341+1041147452+1036754409
619+1032643631+1031946567+1036108108+1043303536+1050315988+1055274712
611+1058150556+1059683867+1060571452+1061098901+1061129717+1060811137
602+1061023076+1062378780+1064135729+1064961618+1064491070+1063415777
594+1062536695+1062312673+1062880975+1063969694+1065018583+1065717628
585+1066352357+1067403739+1068837889+1070116554+1070996594+1071722300
577+1072028796+1070501496+1064787208+1050529397+1020820652+973235859+921107012
567+889020399+887906107+901761714+907992071+904521712+907518198+927392287
557+958072433+987701070+1010175834+1025820549+1037053808+1045611270+1052082910
547+1056674466+1059832448+1062116078+1064036760+1066073481+1068370346
538+1070527836+1072013836+1072621457+1072555606+1071657856+1069989007
530+1067532693+1063346985+1054923015+1038949428+1012081556+969678678+905763806
520+819069847+722628693+644668012+611601686+628503328+679207615+740965892
510+797389836+842251841+874794298+893633692+894901552+874249523+831643913
500+776117463+724508586+694809750+697641417+729534184+776035757+822422569
490+860580217+889023532+910157361+927305338+942014838+953470776+961126076
480+966650289+971968447+976842332+979725017+979882484+977587346+973554502
470+968854515+964025319+958240002+950379029+940699539+930625965+921236669
460+912741925+905522458+900883208+899629158+900850794+903345788+906487594
450+909607471+911979778+913321224+914157663+916354856+922414638+932539870
441+943514135+952241851+958046924+960185618+955445481+940501730+916857435
431+892773279+878963128+880715857+895408415+916736537+938930315+959379164
421+979011202+998083313+1012153161+1018595840+1020937650+1022311702+1022866259
411+1021598527+1017937391+1011988533+1004485011+996932643+991381513+989308479
401+989879338+989094942+983025633+975656243+976583530+988196360+1004818039
391+1020258423+1032540954+1042838230+1051871483+1059042680+1064255220
382+1068196128+1070733957+1071038726+1069066770+1066737235+1067686644
374+1072621457
##END=
