##TITLE=SVS-X17787
##JCAMP-DX=4.24
##DATA TYPE=INFRARED SPECTRUM
##DATE=22/3/2021
##SAMPLING PROCEDURE=Diamant-ATR
##ORIGIN=Angelika Moesle
##XUNITS=1/CM
##YUNITS=TRANSMITTANCE
##RESOLUTION=4
##FIRSTX=3997.453
##LASTX=373.96442
##DELTAX=-1.4165319
##MAXY=0.91483217
##MINY=0.36230484
##XFACTOR=1
##YFACTOR=8.5200386e-010
##NPOINTS=2559
##FIRSTY=0.91478622
##XYDATA=(X++(Y..Y))
3997+1073687885+1073324802+1073063019+1072907782+1072836984+1072745828
3989+1072442560+1071974819+1071698974+1071797265+1072059329+1072295857
3980+1072623541+1073140672+1073623104+1073741823+1073434357+1072954304
3972+1072648307+1072702734+1072996768+1073166977+1072936394+1072397367
3963+1071931305+1071888001+1072336153+1073020624+1073528800+1073559442
3955+1073101356+1072386663+1071679805+1071142177+1070856607+1070912784
3946+1071342887+1071922001+1072168393+1071771381+1071055079+1070684021
3938+1070953709+1071652522+1072382955+1072739392+1072434165+1071698414
3929+1071304830+1071671970+1072310618+1072449625+1072017634+1071708558
3921+1072020152+1072667125+1072954444+1072560649+1071911507+1071621600
3912+1071813566+1072162797+1072335663+1072262557+1072071711+1071909828
3904+1071814685+1071636921+1071225007+1070752090+1070578104+1070754329
3895+1070989458+1070999042+1070688288+1070270358+1070223346+1070649461
3887+1070954339+1070490936+1069438765+1068488943+1067876109+1067730736
3878+1068390931+1069656195+1070752580+1071158967+1071001001+1070553898
3870+1069844313+1069069036+1068612139+1068528539+1068696648+1069164739
3861+1069988147+1070957557+1071761657+1072172031+1071840220+1070261123
3853+1068075770+1067435023+1068567016+1070027533+1071000721+1071438100
3844+1071460487+1071083062+1070389147+1069533418+1068601016+1067887652
3836+1067930606+1068690772+1069381329+1069349288+1068760170+1068227159
3827+1068087592+1068380717+1068976271+1069404905+1069113809+1068441091
3819+1068485794+1069322215+1069998011+1069916439+1069449748+1069206504
3810+1069375663+1069714260+1069748470+1069302067+1068646488+1067913676
3802+1067349254+1067788171+1069224483+1070152198+1069599319+1068411079
3793+1068085144+1068864198+1069855366+1070321847+1070256716+1069987377
3785+1069751058+1069692993+1069832979+1069964011+1069877892+1069633319
3776+1069354535+1069027551+1068696928+1068482716+1068359520+1068209530
3768+1068019453+1067799575+1067594807+1067572770+1067699814+1067599914
3759+1067161836+1066997924+1067640909+1068708052+1069453946+1069457724
3751+1068868816+1068420873+1068589612+1068899247+1068553934+1067615375
3742+1067278176+1067888981+1068698817+1069213360+1069337955+1068904844
3734+1068010149+1067529466+1067898635+1068462708+1068616546+1068451865
3725+1068260599+1068046177+1067703802+1067309657+1067045775+1067067322
3717+1067444047+1068089132+1068668875+1068600036+1067471821+1065801499
3708+1064633197+1064430738+1065054066+1066058245+1066855909+1067100413
3700+1066939019+1066653939+1066429723+1066461694+1066737819+1066880744
3691+1066523467+1065636398+1064505663+1063650704+1063444258+1063765506
3683+1064260530+1064819076+1065599040+1066524447+1067056199+1066830864
3674+1066558446+1067022409+1067565984+1067115733+1065795273+1064800677
3666+1064517556+1064457742+1064365117+1064486775+1065115419+1066106167
3657+1066944406+1067309797+1067467203+1067767464+1068093749+1067990211
3649+1067085232+1065755676+1064950388+1065058473+1065665150+1065988497
3640+1065508864+1064534276+1063959850+1064319435+1065351738+1066478904
3632+1067264325+1067186951+1065783939+1064011898+1063646997+1064751916
3623+1066296943+1067381714+1067430055+1066432382+1065195661+1064555054
3615+1064578210+1065021955+1065749590+1066619870+1067395286+1067777258
3606+1067619013+1067165264+1066807078+1066637079+1066384390+1065758684
3598+1064766607+1063701494+1063025348+1063093417+1063698276+1064189872
3589+1064173572+1063845118+1063616985+1063557660+1063590540+1063843019
3581+1064309990+1064626761+1064548408+1064317196+1064215687+1064167625
3572+1064096478+1064201905+1064501816+1064486495+1063801954+1063166454
3564+1063444957+1064269065+1064484676+1063415155+1061702719+1060785007
3555+1061335368+1062592447+1063428447+1063687572+1063961808+1064476281
3547+1064886796+1064814669+1064261929+1063610828+1063223120+1063073130
3538+1062909218+1062702911+1062676956+1062893687+1063095166+1062979526
3530+1062506188+1061963313+1061713142+1061825215+1062034181+1062029144
3521+1061733290+1061378462+1061299690+1061551189+1061798631+1061735529
3513+1061453178+1061222106+1061133539+1061198530+1061498791+1061926655
3504+1062065732+1061720978+1061320467+1061335928+1061614571+1061733990
3496+1061643744+1061596312+1061684530+1061782821+1061810035+1061773656
3488+1061632271+1061329702+1060888335+1060331328+1059670293+1059082575
3479+1058832824+1058910198+1059023110+1058958119+1058662616+1058081753
3471+1057309904+1056839645+1057237498+1058474568+1059793910+1060377221
3462+1060050306+1059283774+1058620711+1058299883+1058369141+1058826808
3454+1059511908+1060071783+1060223313+1059988183+1059610829+1059322391
3445+1059183315+1059084254+1058851153+1058357388+1057618210+1056868188
3437+1056506504+1056743313+1057275765+1057598622+1057648292+1057777015
3428+1058152201+1058627497+1059090830+1059496098+1059704993+1059679808
3420+1059630347+1059689392+1059640771+1059169183+1058267772+1057298641
3411+1056677832+1056561072+1056806345+1057120527+1057250929+1057161453
3403+1057019368+1056962212+1057053647+1057406097+1057983392+1058388170
3394+1058293936+1057935190+1057781562+1057927075+1058040338+1057735320
3386+1056970187+1056187355+1055873243+1055999587+1056186306+1056223034
3377+1056129150+1055993851+1055962789+1056044361+1055923823+1055370873
3369+1054714316+1054522560+1054925030+1055517715+1055820774+1055681418
3360+1055296997+1054957490+1054818553+1054888861+1055086983+1055254882
3352+1055268384+1055178488+1055111258+1055063687+1054997296+1055028288
3343+1055214796+1055287553+1055000445+1054652263+1054819113+1055612159
3335+1056533998+1057007125+1056839086+1056290194+1055801256+1055592081
3326+1055581028+1055676381+1055844140+1055907313+1055678969+1055321133
3318+1055201364+1055401515+1055639303+1055644690+1055413967+1055104542
3309+1054827018+1054587132+1054352002+1054127996+1053968701+1053865023
3301+1053633741+1053131232+1052640685+1052701758+1053414562+1054255250
3292+1054722221+1054834644+1054872981+1054904252+1054759439+1054379636
3284+1053983253+1053790937+1053744485+1053667042+1053545104+1053455628
3275+1053395954+1053338378+1053329213+1053451360+1053745465+1054097704
3267+1054220691+1053926307+1053420579+1053104298+1053068269+1052990406
3258+1052608784+1052127192+1051998259+1052375543+1052937727+1053226025
3250+1053043854+1052586537+1052249409+1052237866+1052399329+1052488806
3241+1052443053+1052316918+1052181130+1052148809+1052264030+1052349519
3233+1052182599+1051839664+1051673653+1051918367+1052464670+1053074146
3224+1053610655+1053935891+1053840188+1053348732+1052884070+1052813482
3216+1053018459+1053170478+1053166421+1053020768+1052627043+1051968387
3207+1051352965+1051104053+1051163518+1051255303+1051271883+1051299167
3199+1051430828+1051702686+1052015259+1052059053+1051527860+1050477298
3190+1049375876+1048797042+1049010135+1049745046+1050392369+1050558799
3182+1050392229+1050296806+1050463726+1050750485+1050906561+1050817715
3173+1050556491+1050280646+1050128277+1050166334+1050359978+1050574330
3165+1050649955+1050533265+1050336962+1050167453+1049911546+1049377905
3156+1048696512+1048354207+1048683290+1049440168+1050003821+1049983253
3148+1049558607+1049181323+1049027065+1048872317+1048463552+1047843162
3139+1047279579+1046982957+1046974142+1047189963+1047541992+1047807834
3131+1047736196+1047400677+1047167017+1047182687+1047186675+1046925941
3122+1046496677+1046212297+1046304922+1046736564+1047195979+1047334357
3114+1047052915+1046530327+1046022501+1045685442+1045541118+1045552591
3105+1045660187+1045742668+1045698944+1045640109+1045804791+1046205511
3097+1046568035+1046643589+1046382505+1045834383+1045124238+1044496223
3088+1044170987+1044119078+1044083889+1043833719+1043321905+1042617706
3080+1041799894+1040982853+1040346163+1040007706+1039875834+1039724305
3071+1039442793+1039163310+1039079500+1039201298+1039383888+1039546331
3063+1039736058+1040010224+1040346373+1040559746+1040293345+1039357304
3054+1038124781+1037245057+1036936891+1036890159+1036775567+1036455928
3046+1035813223+1034822125+1033789892+1033197276+1033280736+1033856632
3037+1034455264+1034617078+1034274282+1033834036+1033669774+1033599886
3029+1033159918+1032251651+1031158974+1030053705+1028864906+1027495824
3020+1025786815+1023405788+1020153992+1016279498+1012209261+1008117756
3012+1003929010+999520594+994768265+989636062+984385491+979558586+975647083
3002+972767255+970607925+968690721+966669979+964310639+961323634+957564082
2992+953322797+949082071+945086409+941427037+938352374+936245583+935459323
2982+936272447+938771284+942679078+947397758+952258663+956810702+961023724
2972+965143351+969196309+972753053+975342905+977006371+978301437+979831702
2962+981802145+983945803+985820473+987219847+988282162+989160836+989712876
2952+989645926+988832872+987299529+985047155+982122973+978809753+975602170
2942+973031347+971514094+971220619+972001492+973487684+975308136+977228628
2932+979149750+981079966+983146601+985496986+988054588+990456322+992340856
2922+993629905+994454992+994920774+995025011+994779528+994318784+993819212
2912+993337690+992836859+992364991+992123845+992369748+993256818+994709290
2902+996477343+998401543+1000531700+1002912727+1005374905+1007635954+1009546932
2893+1011188711+1012728210+1014193764+1015472390+1016497348+1017263879
2884+1017649769+1017430030+1016537434+1015189619+1013739876+1012491682
2876+1011638612+1011281055+1011454552+1012155393+1013338526+1014876836
2867+1016523932+1017983469+1019057957+1019715774+1020028557+1020090610
2859+1020007989+1019922221+1020016454+1020437812+1021144810+1021890354
2850+1022470447+1022969949+1023628955+1024520152+1025480468+1026283588
2842+1026780641+1027012483+1027258526+1027768941+1028427807+1028935843
2833+1029269054+1029642071+1030094840+1030424274+1030457784+1030213629
2825+1029880628+1029697128+1029724202+1029776601+1029710490+1029668515
2816+1029867057+1030247699+1030549499+1030691794+1030845072+1031085798
2808+1031239356+1031207455+1031209484+1031488897+1031949642+1032292507
2799+1032394996+1032393736+1032450612+1032558558+1032583883+1032435082
2791+1032161825+1031882342+1031656377+1031493445+1031463223+1031686529
2782+1032184212+1032808239+1033321172+1033482776+1033173630+1032578496
2774+1032138179+1032167771+1032576817+1033012796+1033184754+1033030706
2765+1032700993+1032437600+1032419831+1032647335+1032931435+1033060508
2757+1033029377+1033016084+1033083244+1033069602+1032860987+1032596335
2748+1032508118+1032669022+1032950324+1033172161+1033243868+1033160198
2740+1032937591+1032644257+1032436621+1032439769+1032622290+1032854481
2731+1033010488+1032971801+1032691548+1032306638+1032063394+1032074237
2723+1032239898+1032399823+1032454530+1032369251+1032203590+1032095785
2714+1032107957+1032139788+1032083472+1031970559+1031898992+1031906618
2706+1031944185+1031920889+1031803639+1031665961+1031572917+1031490087
2697+1031400190+1031373396+1031427264+1031455317+1031378853+1031276714
2689+1031320928+1031608176+1032023098+1032297544+1032255639+1031957407
2680+1031604398+1031380952+1031371228+1031526675+1031731582+1031927395
2672+1032115233+1032238709+1032179594+1031911864+1031584670+1031368849
2663+1031279163+1031223546+1031186258+1031239216+1031393124+1031549481
2655+1031582012+1031425375+1031138477+1030895092+1030835138+1030917968
2646+1030993733+1030974914+1030878862+1030779871+1030789245+1030992684
2638+1031318199+1031558925+1031605238+1031575226+1031660785+1031923128
2629+1032243186+1032399613+1032247034+1031894655+1031632801+1031648962
2621+1031866741+1032018761+1031864713+1031427334+1030963791+1030674584
2612+1030618897+1030887327+1031528983+1032333922+1032976838+1033294028
2604+1033279337+1033033714+1032755140+1032564294+1032459497+1032576187
2595+1033153762+1034110650+1034999189+1035442654+1035357935+1034896281
2587+1034427001+1034391392+1034879561+1035421667+1035390185+1034638065
2578+1033637453+1032943118+1032660977+1032563595+1032522949+1032600253
2570+1032808029+1033000064+1033046656+1033045957+1033274440+1033888113
2561+1034702077+1035263491+1035142743+1034317726+1033319843+1032796346
2553+1032904361+1033304592+1033582676+1033490751+1033121441+1032982854
2544+1033463187+1034228670+1034644151+1034560272+1034149197+1033394348
2536+1032328815+1031355067+1030902508+1031077683+1031725706+1032471950
2527+1032803691+1032494616+1031877725+1031487078+1031505967+1031627624
2519+1031424536+1030871726+1030449319+1030610712+1031266710+1031926975
2510+1032236960+1032234721+1032178895+1032222968+1032203590+1031786779
2502+1030992474+1030451277+1030783089+1031759565+1032497624+1032516793
2493+1032183862+1032025337+1032021559+1031789088+1031195213+1030520676
2485+1030061470+1029832917+1029735325+1029806963+1030162140+1030789175
2476+1031492605+1031954889+1031890597+1031332960+1030750559+1030630021
2468+1030845842+1030705995+1029834946+1028775429+1028392968+1028882255
2459+1029697758+1030274423+1030451767+1030330530+1030052726+1029752325
2451+1029538183+1029433876+1029368535+1029292210+1029285774+1029461089
2442+1029777020+1030063569+1030189214+1030159482+1030095750+1030090013
2434+1030049578+1029800526+1029368605+1028962147+1028696866+1028537082
2425+1028421441+1028276907+1028038909+1027752011+1027491766+1027227884
2417+1026989816+1027008285+1027368850+1027723398+1027720669+1027511914
2408+1027435240+1027434401+1027210464+1026759584+1026382789+1026298629
2400+1026463871+1026678992+1026791485+1026834159+1026879772+1026795612
2391+1026384608+1025755964+1025270734+1025109200+1025105493+1025059040
2383+1025063308+1025410230+1026161022+1026970438+1027486659+1027774747
2374+1028083473+1028319232+1028134892+1027584391+1027306937+1027770550
2366+1028595706+1029042809+1028947806+1028709598+1028606900+1028566954
2357+1028359598+1027767821+1026732790+1025437374+1024285373+1023739629
2349+1024017853+1024927099+1025993892+1026850879+1027485610+1028005819
2340+1028463136+1028824400+1028751573+1027835401+1026328152+1025155373
2332+1024978239+1025511950+1025890214+1025570645+1024727159+1023915154
2323+1023593067+1023813085+1024181345+1024275509+1024159938+1024211077
2315+1024500214+1024731496+1024733805+1024563177+1024189880+1023565783
2306+1022955258+1022779943+1023144565+1023751732+1024200723+1024215554
2298+1023730394+1022946583+1022274005+1022082879+1022407625+1022863822
2289+1022996253+1022783650+1022603718+1022690746+1023024446+1023723119
2281+1024916046+1026213490+1026946932+1026935809+1026454007+1025642422
2272+1024555481+1023638819+1023529894+1024288241+1025242051+1025766737
2264+1025898888+1026016978+1026262041+1026435678+1026202297+1025430168
2255+1024511967+1024115444+1024546946+1025659771+1027089367+1028254241
2247+1028659718+1028430675+1027977906+1027326735+1026410632+1025511460
2238+1024848816+1024415425+1024446067+1025170764+1026101557+1026506475
2230+1026465690+1026583359+1026844513+1026679971+1026123734+1025975073
2221+1026564820+1027205847+1027302809+1027288538+1027880384+1028931506
2213+1029537554+1029019023+1027498832+1025721195+1024502733+1024185193
2204+1024511827+1025131237+1025970665+1026808065+1026977434+1026203276
2196+1025355663+1025531398+1026547471+1027081811+1026313111+1024883935
2187+1023988260+1023845965+1023601671+1022707816+1021777372+1021763520
2179+1022734190+1023870031+1024542749+1025020074+1025848099+1026904887
2170+1027623917+1027803640+1027627625+1027237468+1026595882+1025442901
2162+1023660156+1022243433+1022928674+1025829840+1029111648+1031554518
2153+1033185103+1033788493+1032790469+1030434278+1027867652+1026006204
2145+1024896667+1024182184+1023695905+1023425657+1023256078+1023117771
2136+1023290847+1024206600+1025741203+1026873616+1026456455+1024462157
2128+1022153817+1020840142+1020779138+1021441712+1022259244+1022742795
2119+1022370827+1020949696+1019019690+1017544482+1017052396+1017254085
2111+1017578971+1017713920+1017431639+1016529249+1015362906+1014876067
2102+1015649524+1017175382+1018242175+1018118139+1017418137+1017376652
2094+1018172496+1018841297+1018836889+1018510045+1018090365+1017366368
2085+1016404933+1015728157+1015689470+1016080607+1016454393+1016680078
2077+1016888064+1016994331+1016922274+1017118716+1017943173+1018996184
2068+1019970562+1021253035+1022758116+1023376476+1022469398+1020802784
2060+1019526327+1019145615+1019518002+1020130976+1020362188+1019900114
2051+1019036550+1018425395+1018468000+1018994855+1019638330+1020142449
2043+1020211638+1019741379+1019236700+1019342687+1020263127+1022102397
2034+1024668814+1026514800+1025973884+1023751942+1022634429+1024203522
2026+1027196613+1029153203+1028883165+1027320719+1026186976+1025841733
2017+1024994469+1022687808+1019512895+1016543590+1014413503+1013645012
2009+1014599872+1016931998+1019783493+1022301778+1023712555+1023578095
2000+1022353827+1021237295+1021133826+1021914490+1022820798+1023340727
1992+1023411175+1022915312+1021588415+1019628046+1017962902+1017569737
1983+1018507666+1019859608+1020735694+1021031827+1021006153+1020705752
1975+1020357151+1020476149+1020877080+1020334764+1018020267+1015051732
1966+1013673415+1014607637+1016449566+1017880841+1018932452+1019808958
1958+1020117754+1019775308+1019265243+1018633031+1017337895+1015286511
1949+1013234428+1012035275+1012014077+1013066318+1014804010+1016427249
1941+1017120605+1016867776+1016264177+1015657220+1014996395+1014289607
1932+1013635568+1012931579+1012066826+1011238101+1010648004+1010164872
1924+1009672647+1009368329+1009332790+1009317889+1009260383+1009435139
1915+1009872727+1010214123+1010213144+1010050911+1010202720+1010911186
1907+1011717454+1011917885+1011477988+1011013395+1011014864+1011519753
1898+1012252215+1012758852+1012694560+1012098447+1011248805+1010494236
1890+1010209366+1010416932+1010658567+1010657098+1010649753+1010942178
1881+1011487572+1011931806+1011977279+1011715845+1011519543+1011679467
1873+1012302375+1013271716+1014092255+1014215381+1013733090+1013127742
1864+1012606483+1012266766+1012321613+1012859382+1013671317+1014400001
1856+1014761125+1014666122+1014203698+1013613671+1013252547+1013333139
1847+1013639066+1013644453+1013011681+1012126990+1011798116+1012205413
1839+1012738284+1012771375+1012344140+1011897107+1011642739+1011526119
1830+1011481346+1011553403+1011686673+1011412507+1010308637+1008861342
1822+1008002115+1007918025+1008110340+1008083476+1007660090+1007051663
1813+1006644087+1006526977+1006431274+1006155989+1005767161+1005483760
1805+1005478723+1005612273+1005562953+1005321177+1005097101+1004915630
1796+1004815310+1004901708+1004987477+1004760812+1004306504+1003844080
1788+1003331077+1002604351+1001528115+1000153226+998604002+996695123+994276319
1778+991765660+989473969+986838574+982815909+976879047+969518117+961033518
1768+950699365+938031826+922904347+903515296+877299025+845583551+812036152
1758+776575397+738851075+702916632+671949081+644617677+619829953+600183945
1748+588254675+582980422+581422418+580587992+577362255+568297598+552042429
1738+531719680+510214079+486073398+459411493+438016951+427160490+425238493
1728+430966075+444194538+465009198+492925207+524865037+557629744+592559062
1718+633396384+677728327+716012735+744472775+766354016+784531742+800013558
1708+813422584+825477988+836015580+844194182+850442427+856494650+863147184
1698+869130568+874063319+879177752+884595944+889441598+893748434+897997694
1689+902059956+905742415+909632720+914194553+918392744+921418016+923796664
1679+925989363+928154849+930362520+932450911+934164817+935493603+936577535
1669+937581855+938639203+939742723+940829174+941860358+942845509+943902297
1659+945154339+946575469+948106224+949791447+951392510+952290633+952715210
1649+953231081+954004539+954842708+955451624+955844090+956175761+956460141
1639+956574453+956437475+956158132+956010870+956105943+956244390+956103425
1629+955347107+953778924+951304853+947493950+941726597+934446539+927221257
1619+921251026+917661191+918157824+922775414+929294468+936083001+942416315
1609+947739574+951827230+954935263+957469008+959664576+961544143+963042227
1599+964115386+964788174+965185956+965484328+965782350+966063721+966227074
1589+966134169+965731420+965128310+964520654+964120983+964124341+964578859
1579+965339094+966247082+967265253+968364646+969416467+970330051+971114912
1570+971792877+972271951+972416274+972308749+972258239+972466225+972813287
1560+973023022+973078499+973265147+973550227+973804385+974048819+974288565
1550+974422955+974426943+974430301+974520057+974613521+974520617+974103036
1540+973603115+973543581+973856574+974130250+974153826+974006774+973896590
1530+973821105+973536095+972794468+971551102+969621165+966203778+960905984
1520+955378308+951839053+951166545+953248851+957030580+961038485+964359890
1510+966779953+968453773+969651667+970648991+971553620+972274119+972682325
1500+972693099+972309938+971649113+970942605+970388606+969930170+969313349
1490+968234174+966386718+963529766+959568034+954415473+947880050+940084889
1480+931979533+924859049+919453660+915726917+912885076+909448030+904396559
1470+898343147+892371726+887169636+883763861+883476963+886216525+890212537
1460+893951382+896612522+897249141+895101845+890671603+884364872+875844315
1451+865000166+852613370+840773366+832413013+829385293+831621227+837915015
1441+846603542+856625822+868096865+880467292+891176141+898880426+904633648
1431+909438306+913219476+915434982+915644716+913398779+908506113+901220458
1421+891366287+878840694+866611863+859482284+859000342+864162557+873388433
1411+884395444+894708610+902905331+908748168+912271822+913404026+912241740
1401+908839814+903067634+895194399+885849105+875303678+863857679+852169905
1391+840093863+826278660+810009953+794113075+784521738+785099592+794952853
1381+809564320+822684488+828934063+825436433+811430315+788871108+763867702
1371+744029589+734788882+739105233+756714758+783918978+816012856+847909731
1361+874126282+892054256+903027618+909188625+911585043+910477605+906028194
1351+898549244+888498142+876495136+863302281+849873178+837425937+826993423
1341+818758225+812159629+806667281+802187509+798827767+796794782+796548739
1332+798683443+803515105+810699671+819070868+826839864+832140176+833605591
1322+830729330+824114853+815635781+807937022+803035612+801124494+800476891
1312+798290908+791959762+779891415+761471914+736672647+705736017+669248485
1302+628802929+587632047+550335554+521759698+505598903+503136234+512727852
1292+530469388+551652936+572198222+589424376+602104297+610198319+614509143
1282+616225357+616481894+616184361+616053050+616612855+618124442+620626426
1272+624042625+628233260+633044284+638412176+644407663+651123089+658501999
1262+666260781+673938692+681020489+687060329+691717516+694726557+695915217
1252+695238022+692749889+688610043+683140432+676733522+669609400+661787935
1242+653348179+644554715+635700597+626995910+618640034+610839626+603706270
1232+597228911+591409649+586428556+582670857+580634689+580855477+583824328
1222+589787389+598552590+609495100+621661038+633899313+645147051+654722927
1213+662280790+667625526+670872845+672693716+674014457+675391444+676811805
1203+677976889+678559570+678269594+676908627+674460370+671086427+667005206
1193+662363551+657214628+651535283+645129631+637507337+628009324+616186040
1183+602116120+586468223+570331457+554934115+541415290+530708889+523382553
1173+519419177+518236044+518989529+520816277+522883262+524467360+525061865
1163+524349760+522114072+518239158+512746530+505786251+497636716+488760037
1153+479839214+471681775+465016543+460401647+458330919+459287143+463563337
1143+471072509+481381792+493885698+507953065+523015203+538554910+553997725
1133+568708043+582208888+594347683+605196239+614930221+623837997+632154206
1123+639670794+645582261+648733527+647957551+642313884+631262030+614831720
1113+594082612+572005242+553902022+545806391+551205379+568621330+592300077
1103+615374805+632854138+642792748+645990956+644880230+641800181+637391276
1094+630591830+620903811+611147512+607375926+614814090+633422758+657838165
1084+681566303+700787665+714754117+724130893+729777918+732473686+732862374
1074+731390314+728411914+724328175+719553249+714493453+709676972+705777362
1064+703412916+702998903+704714838+708403803+713514528+719336308+725304581
1054+730993231+735858823+739153434+740147750+738384453+733650803+725724400
1044+714237406+698960847+680368059+659883183+639445738+620863655+605626972
1034+595047125+590133262+591177738+597486987+607382782+618305074+627296590
1024+632431241+634514806+636896462+642641848+651845547+662178791+671702968
1014+680458375+689626046+700010989+711546954+723804957+736487537+749304996
1004+761661781+772830395+782397527+790341489+796788626+801927684+806066970
994+809547950+812620373+815479424+818307274+821156042+823901970+826441243
984+828852631+831282209+833737392+836044963+837989101+839510621+840779803
975+841995396+843129768+843985287+844493533+844809464+845044244+845023256
965+844476813+843456193+842389121+841688699+841424327+841344925+841122738
955+840642894+840129052+839903226+840038246+840303667+840321996+839649978
945+837836522+834506722+829321281+821860520+811633193+798197654+781274139
935+760970944+738147225+714522486+692198339+672887640+657375392+645267938
925+635050475+624854839+613781018+602615621+593194562+587072591+584668478
915+585452080+588845192+594820810+603568242+614895522+628282720+643344438
905+659917602+677724340+696143001+714354796+731625653+747353093+760965137
895+772041127+780539857+786699956+790755432+792988497+794051162+794928647
885+796379790+798511626+801021306+803672162+806258096+808204263+808522642
875+806263693+800965829+792761343+782235994+770284967+757938606+746019550
866+734876470+724558407+715168899+707012264+700683637+697031120+696524623
856+698463164+701144242+702995335+703626288+704168954+706712494+712924571
846+722858563+735042481+747502034+758627205+767496923+773731107+776948414
836+776317531+770778172+759753951+743741292+724497823+704765347+687485815
826+674890473+668103270+667361783+672333082+682194808+695707371+711459366
816+728100950+744416318+759382683+772380984+783423044+792979752+801362072
806+808360549+813641623+817342271+820062105+822362121+824449603+826273623
796+827708045+828648563+829166044+829616295+830388773+831535458+832859556
786+834326300+836120657+838357640+840961974+843771285+846582205+849168069
776+851376439+853203327+854757308+856175641+857554237+858896105+860125130
766+861187725+862136008+863073238+864025299+864885855+865448388+865537795
756+865227950+864837164+864538092+864136113+863418132+862450540+861303925
747+859817034+857916900+855962898+854581084+854234161+854941158+856324442
737+857922007+859411487+860564188+861244461+861522965+861553256+861337296
727+860843321+860239722+859769323+859527827+859477107+859426807+858996635
717+857988397+856829820+856219644+856178299+855854183+854585071+852828841
707+851675790+851702304+852634077+853861983+854894077+855419533+855285772
697+854558627+853608595+852956864+852739784+852355434+850904991+847931558
687+843543221+838027158+831611642+824549573+817358641+811043236+806972579
677+806192265+808718036+813505554+819023646+824209297+829060967+834029607
667+838648876+842177707+845070898+847856493+850469641+852765179+854971520
657+857360243+859769672+861740884+863086740+864131356+865195070+866034918
647+866184908+865673444+864780498+863029794+859269192+853602928+848701868
637+847705593+850795366+855109828+857963282+858816282+858234230+856574962
628+853977834+850554850+846228496+840820098+834474751+827736658+820996327
618+814036257+806394235+797962664+788821578+778924173+768649484+759365753
608+752723783+749446732+749158924+751038280+754167930+757565099+760368464
598+762040325+762353178+761387405+759597455+757521236+755141398+751829997
588+747246477+741986321+737176975+733912516+733396854+736900710+744740015
578+755648595+767600531+778956214+788752039+796238405+800611631+801485688
568+799458860+796022304+793205857+793288618+797964693+807135022+818722336
558+829967065+838919894+844928393+848337315+850183582+851812628+854014422
548+856457152+858447533+859938552+861090903+861475113+860682837+859208678
538+857917669+857105105+856588464+856126530+855356010+853888847+851857961
528+850026806+849050259+848782459+848696691+848797640+849336109+849959576
518+850074587+849830923+849854709+850334342+850993418+851289481+850534212
509+848700189+846963756+846668953+848021524+850038559+851198465+850437670
499+848287575+846754651+847624791+850644467+853585089+854617812+854472019
489+855474520+858673008+862713023+865380249+865924034+865606564+865949079
479+867052460+867875238+867644656+866407865+864519973+862572687+861579561
469+862115440+863298363+863117382+860196767+855507330+851963038+851759180
459+853962164+855203991+853723186+851475290+850860357+851902455+853061452
449+853575085+854113133+855506700+857944323+861091462+863886712+864897677
439+864045867+862847623+862469779+862814043+863562735+864341930+864071751
429+862379882+860734326+860204672+859868314+859143267+859643048+863096114
419+868677588+872921951+873791042+872416853+870455576+868849196+867356988
409+864941891+861744942+859725389+859960868+860811140+860385165+858780254
399+856524522+853499320+851309629+852367607+855618144+858159655+858278514
390+855843129+852661641+852297718+856274422+859679566+856428050+848789735
380+843289972+841315542+838154482+830516517+822981740
##END=
