##TITLE=X9646
##JCAMP-DX=5.0
##DATA TYPE=LINK
##BLOCKS=1


$$ === CHEMSPECTRA SPECTRUM ORIG ===
##TITLE=X9646
##JCAMP-DX=5.00
##DATA TYPE=INFRARED SPECTRUM
##DATA CLASS=XYDATA
##ORIGIN=Default
##OWNER=
##XUNITS=1/CM
##YUNITS=TRANSMITTANCE
##XFACTOR=1
##YFACTOR=9.7463648e-010
##FIRSTX=3996.5625
##LASTX=399.65625
##MAXX=3996.5625
##MAXY=1.0465079507975033
##MINX=399.65625
##MINY=0.4811318197365738
##NPOINTS=1765
##XYDATA= (X++(Y..Y))
1765I85794994I86117285I86454070I86390468I85687299I84855825I84703425I85222943
1757I85778666I86021576I86135020I86410160I86773242I86538648I85174202I83917145
1749I84542218I86077778I86766576I87178705I87799130I88123806I88159093I88344762
1741I88551652I88642774I89039858I88499914I86826325I86570082I87777053I88831867
1733I89560905I89467887I88751386I88447381I88160805I88424325I89926678I90675653
1725I89065299I86596318I85224044I86102975I90008260I95401832I98287834I97329278
1717I93804076I89472841I88122155I90831967I92668047I92004935I93312384I95074465
1709I95171458I94979001I93196004I92289920I94192660I97198466I99635646I98731091
1701I97120492I97413062I96041277I93262909I93497135I99007331A007169792A005378417
1693I96153620I91280055I91532567I94636895I98639418A002108357A002401905
1686I99144932I96493952I95032879I93426317I92467395I92770788I95841297A001344705
1678A002861735A000706544I97010045I92113670I90226036I92896280I96979406
1671I98663514A000907380A001925073I98340917I95110792I91970932I88881465
1664I87943396I88245261I88882443I89444587I89919339I91890879I93217042I91472329
1656I90256308I92183204I95640706I96881190I95901780I94268126I93346692I94702332
1648I95966483I96069714I99505078A007467804A011010374A007831008A007487129
1641A006872820A001245082I98591411A002477677A008652942A008423852A001053848
1634I94212413I92075080I93246336I94490672I94325123I93105188I91998024I92939762
1626I97505223A002289378A000025636I93913790I91157316I92635940I93841075
1619I92188647I90342598I90751792I94882069A001417908A003130331I96889874
1612I91141109I90196436I93240954I98830347A005521094A007207464A004344701
1605A003609058A000341750I93941310I90240101I89293716I89598822I91947326
1598I94384873I95059604I99141263A007064176A007924210I99422946I92408440
1591I90329389I90132895I89556747I89905396I91547918I95093056A000528214
1584I99884733I93739679I91601062I94332034I97946952I98470567I98644433A000327256
1576A000611264I98965012I96461356I93387361I91191318I91037940I91898279
1569I92573011I93128794I93267067I93932503I96779549I98642109I96219546I93073999
1561I91084907I90046971I90200595I90731366I90895141I92333891I95932786I97723855
1553I95193107I92418348I91118604I90510593I90957214I92101010I92142841I91524923
1545I91991419I92469474I91533424I90090331I89156238I89161803I89724436I90157725
1537I91096282I92658017I93406869I92911385I91999002I91055430I90163657I89928452
1529I90553525I91083806I90887313I90156440I89950223I91391114I93004954I92151341
1521I89891942I89170303I89815558I89892431I89627993I89935546I90429256I91004365
1513I91446338I90794050I89618269I89364473I89720889I89768101I89648419I89807669
1505I90262668I90782186I90969629I90392685I89459081I89299159I89874268I90001594
1497I89914386I90551812I91330753I91625341I91479178I90835636I90019451I89518524
1489I89477795I89690128I90084521I90577314I90923884I91397169I91940538I91792235
1481I91230274I90992990I90679995I90147389I89942150I90016332I89829073I89019126
1473I87970427I87279551I86940442I87050706I87601903I87841327I87774973I88177929
1465I89212195I90281810I90349326I89500973I88858103I88763312I89003348I89459754
1457I89943251I90314100I90503255I90485886I90577987I90918319I91196945I91085335
1449I90643240I90342721I90454880I90780963I91011459I91300848I91694691I92064133
1441I92513506I92976027I93171970I92858853I92424280I92305087I92294446I92134401
1433I92043035I92206993I92391989I92649027I92817756I92269433I91476549I91588525
1425I92009888I91834922I91544554I91068150I90471698I90535545I90867988I91001430
1417I91088087I90802918I90453902I90742068I91438693I92071717I92352911I92079361
1409I91464195I91053290I91208136I91641792I91437592I90952505I91371728I92183326
1401I92176354I91579046I91809358I92868760I93622933I94230882I94726611I94293322
1393I93560370I93579390I93905106I93880521I93484354I93105249I92762960I92319642
1385I92236531I92379575I91992581I91461382I91757804I92428683I92334931I91716340
1377I91809114I92646826I93282051I93399959I93124207I92815065I92647376I92581022
1369I92948018I93623606I93885780I93685923I93632351I93701457I93444419I93113628
1361I93198145I93231047I92403059I91535625I91855225I92482133I92232679I91698483
1353I91698116I92261789I92931506I93015411I92787300I92356641I91352892I90835392
1345I91226972I91552565I91863237I92648110I92942819I92266804I92234452I93302782
1337I94118539I94041605I93374885I92883988I92802284I92644318I92529835I92316156
1329I91605954I91106128I91454838I91953686I91801530I91380718I90953912I90392379
1321I89755687I89115386I88691148I88234926I87773139I87842612I87877960I87332511
1313I86835988I86365272I85003516I82785519I81019829I80255933I79557289I78691507
1305I78202811I77526306I75764164I72967510I69433991I65731193I62611943I60545489
1297I59651820I59269780I58905964I58705557I58662931I58283031I57449845I57044444
1289I57231091I56877488I55546066I53642654I50656418I46368664I41882338I38203146
1281I36206226I36347985I37529026I38186022I37627670I35313658I31259397I26168118
1273I20374221I13979712I06795988H98960650H91543556H85705993H82389210H82401747
1265H85719508H90504886H93986851H95418447H95819506H94899356H92089065H88696632
1257H86281469H84978667H84105547H82532070H78627702H72662079H67689564H65370721
1249H64076237H61525002H56203349H47404501H35840251H23409056H11656691H00715862
1241G90321277G82173616G79503188G84277130G96232349H13227354H32046575H49592593
1233H64156106H75450782H83331559H87776055H89663811H90494796H90991747H90800941
1225H89686377H87623471H84968760H83537042H85731923H92252046I01343523I10108735
1217I16520918I20274047I21860856I21787897I20711678I19302343I18055928I16680045
1209I13688244I07720603H98489384H86732921H74325027H64520656H61103271H66393612
1201H79428598H95492384I09712263I20769837I29402341I36026612I41182104I45518416
1193I49019216I51852441I54218007I56000515I57436330I58618104I59542229I60594842
1185I61778084I62465841I62818466I63837810I65410675I66530621I67340262I68339975
1177I69068035I69380785I69701792I70050808I70480978I71160969I71690822I72061243
1169I72504561I72662649I72547737I72292595I72161233I72440348I72825140I73110248
1161I73412969I74018717I74689596I74873063I74883643I75203059I75703925I76322027
1153I77049413I77517683I77376474I76788645I76434492I76528672I76718377I77153317
1145I78072610I78740798I78638118I78490977I78788745I79214817I79442072I79547321
1137I79661988I79947769I80247554I80146647I80099007I80242662I80403196I80793981
1129I81143670I81422295I81700799I81666001I81383523I81188497I81294113I81679027
1121I81991411I82027371I81892461I81785928I81917657I82059967I82128889I82430938
1113I82677640I82589331I82531111I82581748I82619297I82822029I83196119I83768475
1105I84444308I84738956I84912272I85398949I85659779I85292233I84490114I83683102
1097I83198137I82932965I83028796I83690685I84553043I84999419I84566986I83909440
1089I84257416I85021007I85129681I85088767I85224961I85639720I86537915I87269827
1081I87498366I87345599I86685483I86316592I86967656I87418068I86986003I86724868
1073I87198825I88135242I89079120I89255799I88441021I87468033I87059451I87583984
1065I88266482I88282750I88096653I87827690I87594564I87500506I88069928I89696855
1057I90417820I89369182I88397600I88123256I88174504I88757380I89400005I89799596
1049I90324068I90540560I90435127I90756623I90972686I90644953I90431152I90507658
1041I90528573I90250681I90174359I91158844I92835369I93565018I92802284I91903171
1033I91854430I92099726I92056367I92258548I93006972I93586178I93567587I93182917
1025I92655877I92578637I93181449I93473223I92943492I92151219I91489147I91164471
1017I91516606I92457548I93308776I93363510I92929243I92812435I93018836I93048925
1009I92779105I92801794I93192518I93179370I92539191I91828317I91771870I92645297
1001I93395984I93089777I92623648I92522496I91994049I91124414I90569731I90239979
993I90618289I91819143I92626277I92499012I91795660I91333261I91519847I91900419
985I92060770I91828011I91380412I91205690I91321091I91527675I92074469I92887412
977I93549790I93657241I92708960I90889453I88940725I86736426I84301876I82681004
969I81632977I80593207I79913827I79342571I79580651I80818810I80977938I80088733
961I79350032I78754375I79181303I80946137I82432833I82133292I80340450I79265026
953I79514664I80130686I80844863I81178712I81213143I81717433I82611592I82938225
945I81946095I80403073I80255321I81957103I83562075I83627206I83444350I84463083
937I86268401I88154934I89461711I89687742I89684073I90775214I92794089I93916114
929I93750320I94239750I95640645I96617547I96799425I96123837I94865006I93773131
921I92940006I92703150I94335642I97223723I98693602I98559365I98744117I99559935
913A000232281I99819052I98183135I96217527I94596043I93815635I94201833
906I95231819I96019444I96806519I98038624A000042699A002493394A002645733
899A000195527I99028186I99746338A000197056I99727441I97802746I95456566
892I94785137I95502250I96036812I96856850I99606413A002749270A004189671
885A004547127A003877165A002309804A000955938A000242678A000607656A001845815
878A002210487I99862839I97302553I99543729A004984635A007067478A004018435
871A000754429A002054173A006064402A007534770A007122947A007607484A006642813
864A003699875A002300325A002710008A001540954I99528073A001162338A005176297
857A006870190A006212643A005935179A005998659A004378887A003129169A004444874
850A005778559A005971017A005660284A004863486A004296755A003793871A003139749
843A003384250A004148575A004422124A003759135A002801191A003060369A003600130
836A003211301A002890784A003080367A003549187A004080508A004503829A004678367
829A004421696A004378643A004895654A005659856A006410054A006526923A006522152
822A007610909A008274755A006740356A004747718A004406163A005667011A006807872
815A006823039A006977824A008040406A009055591A009299481A009128734A009146469
808A009409928A008836042A007146186A006944800A009417939A011963487A013061111
801A013338942A014272484A018098450A021593258A018924176A012528811A009066722
794A010332340A012196919A011207846A010027418A011934622A014559060A013742264
787A010703739A007821529A005935241A007961025A013855830A017929661A017656600
780A016045818A013987682A011164365A010134563A012702860A016248978A018007328
773A018130496A017489828A017233524A017228082A016815647A015929011A014940244
766A014282820A013604786A012800587A012760530A012716926A011131952A009581286
759A010974048A013045210A010721413A006986569A005939950A005860202A005585368
752A005815314A006441794A007603692A009947854A011857260A012034550A012050573
745A011584199A009829762A008427155A006315874A001604923I96470957I93461848
738I92499134I92482500I93349628I95482068I98149744A000813628A003529006
731A005321726A006224385A007404875A008910591A009911099A010185811A010671816
724A012175698A015171841A018807857A019363641A016403029A014946482A015592287
717A016130091A016640069A017311253A017724972A017703690A017793406A019322177
710A022427056A023020940A020498203A019323584A019550839A019622942A020833520
703A023975398A025499766A024508187A023247827A021007019A018765232A018459698
696A019091009A019587471A020828444A022517444A022640979A021499323A021305887
689A022480873A023629990A023142517A022346330A023837736A025735828A022923213
682A018209693A016174735A016489931A017797014A018142238A016659088A016105384
675A018815808A020277492A015047328A007596904A002283324A000169841I98919573
668I96021156I92434860I88510861I85907888I86602556I86797093I82504386
661I76458037I72132917I69865200I67130681I65597751I69081734I72085216
654I66948498I58845726I49368905I37692923I21612747I02357608H76365305
647H26696057G57703603F91015987F32858195E87257151E57977236E45289676
640E45811885E58147677E76675673E99855606F30712912F58834598F86522506
633G16682942G48464311G88091660H17404599H29910587H42112570H57567000
626H71755567H81568377H88803349H90422632H89946290H95062765I02801905
619I07543006I12317254I21844711I36053337I39954769I38626833I43451901
612I45442888I42127389I42837102I49079944I59487372I67048243I64093991
605I61145488I63590374I67818500I71315020I73491676I72993440I74506923
598I78645946I77658219I74125801I73602858I73857143I71829646I67599807
591I60842156I49764766I34028653I15799708H98601238H87000905H82673951
584H83824047H90556563I04056026I21545415I38424102I54471926I68406391
577I73173116I75106189I79410332I78969399I73415782I67823943I65807821
570I64485266I41527329I15682350I10288350I19367841I33633648I45903146
563I56699708I69635499I83688423I89498160I84772409I85023147I90980514
556I94018060I96064638A001143258A006864013A012616264A015338919A012425335
549A008429601A003858329A001367027A005063159A015951638A024646154A009444603
542I82283675I54695940I35470156I37764109I51826511I61444051I65277784
535I60677952I49004417I37717202I28541513I19756364I13485757I14033896
528I21762640I29105430I27888063I22435965I13295379H96167483H81172455
521H79603626H87127620H84223455H68877209H54522972H43478668H35195852
514H31991045H37707153H48541937H53006798H41866357H25632191H32886916
507H64002666I01635970I29213981I45976778I56221348I61743041I60803689
500I44368687I14885551H85300408H72889089H86241412I12709507I36022881
493I49527666I56803857I59751809I53670419I34808634I08905373H88337770
486H76659893H73031704H77318235H88387979I02622902I15282880I23997150
479I25926125I16528807H94382407H58893346H20504891H02801641H20643103
472H61160024I00084265I28191885I46107284I57579801I66056908I72990627
465I78550298I83297331I88160989I92248701I93806522I93777045I93295688
458I91441445I85774201I72918402I53056048I34228265I27974537I38171039
451I55129045I66427635I69282080I66022722I58186283I46175473I29496705
444I07409075H80597957H52545867H27981123H10074897G98980690G92783959
437G89891230G90367022G94131037G97101801G92214232G75972727G51403335
430G21654600F84440396F38171837E88423575E43892328E11034525D93652587
423D93771046E09705580E34316252E58693614E77040590E89097389E98556046
416F08950937F21533981F35808716F50981769F66825333F83337697G00425169
409G17918227G35807207G54031443G72053987G88684993H01107687H07174829
402H09874183H12827457H13512463H07469600G93602101G74622958G57549673
395G49728156G50185968G48598242G34167132G03473907F62229599F21783864
388E92930755E80692017E81035468E81823338E73564435E60227462E53702325
381E62886882E89080816F22422146F47703330F58156564F59865256F65351173
374F83482269G12790927G45394230G75831763H02814973H26124128H45202588
367H59477873H68632097H71265893H66113335H54473435H36547701H11059749
360G88824857G90414173H17708971H51146990H74649458H84599991H83954614
353H78696930H76044849H80380182H90983553I04189346I15984337I22398110
346I19025981I01564602H69282550H30374882G98969437G84937062G90399495
339H08829826H25301032H29830534H25997963H17148295G95540616G49577774
332F76917931E93890411E27677793D95736593D99401627E30678706E77652086
325F29148731F78167099G21505441G57826464G87073661H09608951H26158497
318H39318118H51070973H58726024H55047810H33586722G97444457G63167198
311G48142876G53588553G68501571G83691502G95247558H01630141H00930091
304G91649580G76803711G63876482G60316299G69402396G88797826H12600202
297H35034157H53793506H69512679H82825250H93810784I02344460I07745554
290I10163164I12678807I18628835I27607970I36749351I43426521I46380957
283I46464006I44926611I41757825I38037047I36475923I37849543I40240734
276I41426544I40654330I38921053I37563273I38224061I41784611I43662399
269I36431647I22388386I13625620I16058519I25245645I32830122I30132296
262I15552944H99494418H94788726I02577463I13174719I17460576I11750768
255H95830331H72330981H49439949H38789365H46914399H68843635H91919113
248I05993686I07306578H99326300H90678813H85069239H78312627H67123384
241H55047627H48666328H48577102H48402930H43511141H34280412H24739745
234H21460266H26937561H34981624H36807307H29621076H18587780H13457178
227H21471274H41004856H64912725H87619863I06462751I21103564I32288099
220I39216742I40276510I35463245I27154989I20045264I19404596I26585323
213I36168616I40869660I38436455I29932195I16046594H99725648H85530476
206H75634372H70751267H69999173H67626757H55962945H32659845H03951920
199G81616365G73580497G76098463G79931829G84623272G96741655H13150848
192H18970982H07199536G89321075G79455242G80848432G91227911H07571974
185H24656206H36214585H38142215H30320086H20149576H21685075H40507904
178H66685142H90374013I09742535I24856755I36994647I47900739I57361292
171I65133211I71984064I78354539I84397401I90152832I94639953I97034997
164I98188761I97994041I94002282I82645961I58923883I11921392H30860581
157G37191101F78087168F67089832F76498464F87265548G07151448G43678811
150G86884629H22726558H49167133H70421393H86485729H95202322I00151536
143I08579658I22049889I35874028I46202198I52786718I55906457I53279878
136I42177048I19634603H87368390H57709371H60358027H88377644I19207491
129I45921249I62737067I70212198I69953142I58715586I34117879I06695815
122H92395945H89058491H79464129H52425390H06031399G43757151F80493831
115F39286951F33405050F61524473G11390032G66437442H15711502H55406061
108H85276313I07710512I26513465I43624788I57332976I65864084I71979233
101I78719639I84019642I85503954I86038945I88469581I91573053I95298112
94A000720610A007035861A011860501A014969905A017923300A018647874A014225945
87A006550039A004033908A012187562A025200225A034186760A037830788A040087069
80A042577576A044441360A045338270A044074058A040990340A039411053A040210359
73A042882744A045083495A043778676A041494140A039239694A035753571A032596465
66A027685779A018158628A005662363I87504053I57245034I10262542H39827607
59G54885973F91846544F78750769G10256265G61877790H11170625H46976839
52H68976710H80787724H86683751H96532949I16498413I42100909I64396468
45I79060643I91771075A005462323A013693706A014524935A008740761I98516556
38I94325429I99331824A004532878A005310167A007066683A012223399A014120818
31A014078804A022046912A032852463A038348533A046763689A057877893A062984890
24A062622970A062283310A064620562A069625673A073741823A072043160A063142305
17A048831121A035093700A029078051A030685715A034135512A039689312A051894046
10A057510102A049255542A043285760A043854142A043475465A036110230A029363404
3A028697296A027195432A023123314
##END=


$$ === CHEMSPECTRA PEAK TABLE EDIT ===
##TITLE=X9646
##JCAMP-DX=5.00
##DATA TYPE=INFRAREDPEAKTABLE
##DATA CLASS=PEAKTABLE
##$CSTHRESHOLD=0.93
##MAXX=3996.5625
##MAXY=1.0465079507975033
##MINX=399.65625
##MINY=0.4811318197365738
##$CSSOLVENTNAME=- - -
##$CSSOLVENTVALUE=0
##$CSSOLVENTX=0
##NPOINTS=69
##PEAKTABLE= (XY..XY)
426.1640625, 1.0045438972538834
473.0625, 0.9739852512953396
513.84375, 0.6615352602954532
552.5859375, 1.0145871606916033
572.9765625, 0.978568073893764
630.0703125, 0.6173396683462241
668.8125, 0.8359548422144542
713.671875, 0.6501700857042714
766.6875, 0.7993476958261325
783.0, 0.7596855133804282
801.3515625, 0.7539597725927306
836.015625, 0.8960852591412621
862.5234375, 0.7928250405966535
874.7578125, 0.8006251421141037
911.4609375, 0.8175147141650353
927.7734375, 0.8720937342523246
942.046875, 0.8904528583146177
954.28125, 0.9137833681739991
966.515625, 0.9127235971974711
1011.375, 0.7410320013439876
1031.765625, 0.7291673392017165
1068.46875, 0.48316296800871267
1092.9375, 0.7650282951292219
1115.3671875, 0.8538252679514916
1131.6796875, 0.7688174819629834
1176.5390625, 0.539658485005816
1186.734375, 0.5659636234129802
1203.046875, 0.7307124109207309
1262.1796875, 0.4811318197365738
1288.6875, 0.7698568079900705
1321.3125, 0.9044378362713098
1364.1328125, 0.7824397655224637
1386.5625, 0.850888546914962
1411.03125, 0.8507495491333668
1435.5, 0.8046912524109278
1445.6953125, 0.8108888234903217
1459.96875, 0.8572937818398766
1478.3203125, 0.8903165427326154
1498.7109375, 0.911743339988891
1512.984375, 0.975968834383345
1537.453125, 0.9597951143088804
1553.765625, 0.8872002332290081
1590.46875, 0.8602862325903325
1631.25, 0.9367674551922023
1643.484375, 0.9182317221265508
1649.6015625, 0.9148199525486679
1665.9140625, 0.8673741194746593
1704.65625, 0.5314592103969805
1737.28125, 0.9411067931305566
1751.5546875, 0.9615788423388429
1902.4453125, 0.9673258623648084
1933.03125, 0.9800801834070247
1981.96875, 0.9845139948086583
1998.28125, 0.9804211823961918
2149.171875, 0.9757693370168903
2181.796875, 0.9741917816386341
2251.125, 0.9693695863714488
2275.59375, 0.967755552299019
2320.453125, 0.9553925955607102
2340.84375, 0.9546707242293428
2353.078125, 0.9543458184377336
2367.3515625, 0.9545029961135901
2850.609375, 0.8392626609639262
2889.3515625, 0.8611274325644922
2924.015625, 0.7597322433010983
2981.109375, 0.8600087136243809
3009.65625, 0.9124607406627245
3028.0078125, 0.9327704281037172
3042.28125, 0.9353116718703937
##END=


$$ === CHEMSPECTRA PEAK TABLE AUTO ===
##TITLE=X9646
##JCAMP-DX=5.00
##DATA TYPE=INFRAREDPEAKTABLE
##DATA CLASS=PEAKTABLE
##$CSTHRESHOLD=0.93
##MAXX=3996.5625
##MAXY=1.0465079507975033
##MINX=399.65625
##MINY=0.4811318197365738
##NPOINTS=159
##PEAKTABLE= (XY..XY)
3984.328125, 0.9597278799859441
3965.9765625, 0.9589615428144497
3937.4296875, 0.9615471919937915
3923.15625, 0.9630975686591665
3910.921875, 0.9602352942555252
3894.609375, 0.9630598989592145
3888.4921875, 0.9668441979910289
3876.2578125, 0.9671219547682817
3866.0625, 0.9718300064587483
3859.9453125, 0.9680702653423204
3847.7109375, 0.9661377034994065
3827.3203125, 0.9672949283775697
3811.0078125, 0.9651104181313934
3790.6171875, 0.9628856739166862
3774.3046875, 0.9651399223269159
3762.0703125, 0.9681519233105242
3727.40625, 0.9669125638669185
3717.2109375, 0.9668374622783156
3704.9765625, 0.9660180775924878
3696.8203125, 0.9652240237087751
3682.546875, 0.9650815688915854
3662.15625, 0.9642017450483598
3637.6875, 0.9644581046563306
3623.4140625, 0.9664505686319419
3600.984375, 0.9659017293880513
3578.5546875, 0.9649358948501022
3558.1640625, 0.9653877577642327
3550.0078125, 0.9663763607849911
3539.8125, 0.9640677539743623
3517.3828125, 0.964820381909129
3507.1875, 0.9648416007199352
3496.9921875, 0.9640814622364535
3490.875, 0.9645275436069848
3476.6015625, 0.9642707074017751
3470.484375, 0.9645474515317252
3456.2109375, 0.9642070499947204
3450.09375, 0.9648066726724014
3433.78125, 0.9643811551569617
3409.3125, 0.9648337324796321
3397.078125, 0.9619081583605242
3388.921875, 0.9627215227168151
3374.6484375, 0.9636847939608219
3362.4140625, 0.9653636774207214
3350.1796875, 0.9652241435890622
3319.59375, 0.9668813316409169
3307.359375, 0.9663292137199077
3295.125, 0.9653498492783431
3282.890625, 0.965332504647545
3268.6171875, 0.9659166900580193
3260.4609375, 0.9658184613203825
3252.3046875, 0.9664291110351981
3238.03125, 0.9683601816842977
3221.71875, 0.967069919901251
3215.6015625, 0.9663144314084154
3207.4453125, 0.9665629227760832
3191.1328125, 0.9674056733968827
3180.9375, 0.9684303369927646
3174.8203125, 0.9679247706339495
3166.6640625, 0.9663867913446001
3156.46875, 0.9665451610008717
3142.1953125, 0.9657043187183002
3127.921875, 0.9670678936320091
3105.4921875, 0.9659681879003496
3083.0625, 0.9627197352335108
3028.0078125, 0.9327704281037172
3009.65625, 0.9124607406627245
2981.109375, 0.8600087136243809
2924.015625, 0.7597322433010983
2889.3515625, 0.8611274325644922
2850.609375, 0.8392626609639262
2773.125, 0.94750380212358
2740.5, 0.9516686762334683
2726.2265625, 0.9536730015350411
2707.875, 0.9552402462339754
2689.5234375, 0.9563021029325707
2677.2890625, 0.9568843809794535
2663.015625, 0.9576106635155294
2632.4296875, 0.9580023250835633
2620.1953125, 0.9589540332403713
2612.0390625, 0.9601034483564203
2595.7265625, 0.9613001313924763
2587.5703125, 0.9616980520759847
2573.296875, 0.9620241488733726
2559.0234375, 0.9624540171660589
2546.7890625, 0.963060972033979
2532.515625, 0.9653142058476331
2524.359375, 0.965310331667625
2516.203125, 0.9650600518420164
2503.96875, 0.9666975103276065
2499.890625, 0.9668943254944683
2485.6171875, 0.9674033488888778
2473.3828125, 0.9660250511165022
2461.1484375, 0.9676312169486289
2455.03125, 0.9675987323147505
2442.796875, 0.9666170443398177
2424.4453125, 0.965124007487834
2412.2109375, 0.9661895600079614
2399.9765625, 0.9660652246575713
2367.3515625, 0.9545029961135901
2355.1171875, 0.9539297188346001
2342.8828125, 0.9544274179277485
2320.453125, 0.9553925955607102
2312.296875, 0.9585007395598881
2300.0625, 0.9645822012207831
2291.90625, 0.9685453138836737
2273.5546875, 0.967524703800912
2265.3984375, 0.9732323845746353
2249.0859375, 0.9686089722653649
2216.4609375, 0.9695538842819978
2183.8359375, 0.9720074497509336
1900.40625, 0.9673096502616001
1753.59375, 0.9609017935645543
1737.28125, 0.9411067931305566
1704.65625, 0.5314592103969805
1665.9140625, 0.8673741194746593
1649.6015625, 0.9148199525486679
1643.484375, 0.9182317221265508
1631.25, 0.9367674551922023
1621.0546875, 0.9483149014246913
1610.859375, 0.9489088624390599
1590.46875, 0.8602862325903325
1553.765625, 0.8872002332290081
1537.453125, 0.9597951143088804
1498.7109375, 0.911743339988891
1478.3203125, 0.8903165427326154
1459.96875, 0.8572937818398766
1445.6953125, 0.8108888234903217
1435.5, 0.8046912524109278
1411.03125, 0.8507495491333668
1386.5625, 0.850888546914962
1364.1328125, 0.7824397655224637
1321.3125, 0.9044378362713098
1288.6875, 0.7698568079900705
1262.1796875, 0.4811318197365738
1203.046875, 0.7307124109207309
1186.734375, 0.5659636234129802
1176.5390625, 0.539658485005816
1131.6796875, 0.7688174819629834
1115.3671875, 0.8538252679514916
1092.9375, 0.7650282951292219
1068.46875, 0.48316296800871267
1031.765625, 0.7291673392017165
1011.375, 0.7410320013439876
966.515625, 0.9127235971974711
954.28125, 0.9137833681739991
942.046875, 0.8904528583146177
927.7734375, 0.8720937342523246
911.4609375, 0.8175147141650353
874.7578125, 0.8006251421141037
862.5234375, 0.7928250405966535
836.015625, 0.8960852591412621
801.3515625, 0.7539597725927306
783.0, 0.7596855133804282
766.6875, 0.7993476958261325
713.671875, 0.6501700857042714
668.8125, 0.8359548422144542
630.0703125, 0.6173396683462241
513.84375, 0.6615352602954532
475.1015625, 0.96910583609505
##END=

##END=

