##TITLE=X7600
##JCAMP-DX=4.24
##DATA TYPE=INFRARED SPECTRUM
##DATE=29/10/2018
##SAMPLING PROCEDURE=Diamant-ATR
##ORIGIN=ComPlat
##XUNITS=1/CM
##YUNITS=TRANSMITTANCE
##RESOLUTION=4
##FIRSTX=3997.453
##LASTX=373.96442
##DELTAX=-1.4165319
##MAXY=0.89728135
##MINY=0.45842865
##XFACTOR=1
##YFACTOR=8.3565838e-010
##NPOINTS=2559
##FIRSTY=0.86177027
##XYDATA=(X++(Y..Y))
3997+1031247094+1031757721+1032541956+1032951299+1032641314+1031803655
3989+1030975767+1030653300+1030976481+1031665709+1032311785+1032762712
3980+1033061356+1033067847+1032519417+1031519490+1030633329+1030377623
3972+1030757223+1031348591+1031720417+1031757221+1031635966+1031553584
3963+1031596951+1031794597+1032118276+1032484396+1032789816+1032816635
3955+1032285466+1031332472+1030664498+1030861788+1031684611+1032264425
3946+1031997164+1031236109+1031091816+1032249945+1033858074+1034496447
3938+1033891241+1032677976+1031385895+1030433044+1030364285+1031181759
3929+1032015566+1032219489+1032005438+1031854867+1031877977+1031749732
3921+1031176623+1030319349+1029768137+1030036753+1030955083+1031866280
3912+1032427192+1032801799+1033016135+1032540102+1030988963+1029064857
3904+1028207084+1028923916+1030382045+1031933255+1033355222+1034220627
3895+1034273694+1033813281+1033483681+1033690885+1033943024+1033482682
3887+1032414781+1031474911+1030896310+1030281689+1029894243+1030462502
3878+1031549304+1032065495+1031861216+1031282186+1030504798+1030096311
3870+1031048592+1032961570+1034031540+1033667133+1032752869+1032063926
3861+1031492671+1030782758+1030019635+1029324771+1028889465+1029356868
3853+1031195596+1033068846+1033800014+1033891669+1033889814+1033819986
3844+1033401441+1032305651+1030554584+1028858724+1028334687+1029439179
3836+1031243171+1032596093+1033137319+1032957077+1032342171+1031813284
3827+1031831972+1032230402+1032299232+1031909076+1031909718+1032617206
3819+1032838960+1032291814+1032304225+1033426905+1034389742+1034143024
3810+1032873482+1031529975+1031434825+1032856364+1033938816+1033201370
3802+1031451730+1030615354+1031361430+1033082968+1035232109+1036989952
3793+1037599153+1037344374+1037043804+1037043875+1037083818+1036809068
3785+1036126758+1035198300+1034302153+1033722340+1033632254+1033881184
3776+1034110713+1034162567+1034090242+1034030399+1034174122+1034537174
3768+1034873907+1035187530+1035706859+1036167842+1036016202+1035307787
3759+1034653508+1034267275+1033687104+1032565637+1030971417+1029376269
3751+1028790250+1029510862+1030172773+1030170205+1030320562+1030955939
3742+1030934897+1029604514+1027347100+1024719429+1022722428+1022718576
3734+1024800670+1027560009+1030057295+1031933826+1032840672+1032782113
3725+1032334396+1032160003+1032417420+1032780900+1032883111+1032796307
3717+1032854581+1032946449+1032621699+1032062856+1032382399+1033985178
3708+1035663350+1036419197+1036168199+1035334605+1034751939+1035161425
3700+1036220909+1036948726+1036983676+1036540310+1035873264+1035210925
3691+1034951510+1035537030+1036660638+1037224046+1036902363+1036212279
3683+1035556716+1035011567+1034480327+1033795449+1032980044+1032697734
3674+1033436962+1034036248+1033450229+1032384681+1032721414+1034923907
3666+1037378754+1038683602+1038525613+1037421692+1036039383+1034805576
3657+1034291454+1034987602+1036058000+1035986316+1034473052+1032560644
3649+1031624697+1031941315+1033037105+1034718344+1036521408+1037678254
3640+1037903574+1037666414+1037354931+1036753148+1035596017+1033950656
3632+1031932043+1029867424+1029076983+1030673272+1032987248+1034207075
3623+1034401725+1034298230+1034462638+1034996945+1035425262+1035298657
3615+1034821197+1034537816+1034747873+1035334748+1036233606+1037472976
3606+1038455499+1038259922+1036871336+1035108072+1033552582+1032098519
3598+1030657009+1029616854+1029258152+1029278552+1029092389+1028373703
3589+1027380480+1027081836+1028396385+1030727408+1032687320+1033631684
3581+1033706648+1033529829+1033675478+1034199443+1034965776+1035960639
3572+1036734817+1036352792+1034626261+1032957434+1033095522+1034536176
3564+1035435747+1035602865+1035904005+1036700153+1037717055+1038578039
3555+1038956569+1038657211+1037940593+1037330608+1036900010+1036377899
3547+1035819983+1035512423+1035453507+1035638457+1036403006+1037757926
3538+1038906569+1038997653+1038119765+1037062349+1036319911+1035865061
3530+1035582608+1035442095+1035384249+1035392808+1035681039+1036486601
3521+1037517412+1037991235+1037567341+1036944232+1037087527+1037937312
3513+1038432176+1037897369+1036933105+1036639026+1037232463+1037995942
3504+1038382176+1038489094+1038529822+1038408067+1038065771+1037779680
3496+1037857498+1038252290+1038612632+1038629536+1038309137+1037995229
3488+1038074116+1038545514+1039014985+1039195085+1039219478+1039295085
3479+1039227681+1038742446+1038176327+1038247725+1039003002+1039627324
3471+1039536953+1038917838+1038058139+1036986029+1035955503+1035503792
3462+1035756573+1036229611+1036515702+1036725688+1037105145+1037563917
3454+1037779466+1037577755+1037060637+1036483748+1036107500+1035967343
3445+1035723335+1035094306+1034400013+1034206219+1034441953+1034447945
3437+1033979115+1033527475+1033525835+1033782967+1033875620+1033723695
3428+1033629330+1033879401+1034317560+1034375263+1033725193+1032739602
3420+1032010359+1031689604+1031637179+1031784753+1032009289+1032094311
3411+1032099660+1032398376+1033176192+1034177118+1035044021+1035642094
3403+1035941951+1035828471+1035253721+1034440242+1033737033+1033350942
3394+1033330258+1033640599+1034148445+1034698515+1035243307+1035756716
3386+1036110924+1036222122+1036282821+1036660923+1037426471+1038105072
3377+1038186741+1037828610+1037653361+1037950935+1038463417+1038817696
3369+1038871690+1038764486+1038717625+1038705570+1038594515+1038690592
3360+1039508565+1040796723+1041555423+1041300431+1040588235+1040051859
3352+1039711560+1039465198+1039480320+1039794727+1040097508+1040116196
3343+1039871688+1039579107+1039520334+1039768764+1039924827+1039544157
3335+1038865485+1038626826+1039191804+1040243942+1041228391+1041818975
3326+1042031172+1042088162+1042217049+1042445793+1042513696+1042153568
3318+1041544225+1041179318+1041288163+1041745437+1042335094+1042683738
3309+1042387591+1041645366+1041238662+1041605352+1042419901+1043061912
3301+1043096648+1042478247+1041573897+1040812985+1040314840+1040069192
3292+1040242801+1040968263+1041982099+1042792511+1043195364+1043380956
3284+1043560342+1043840655+1044427744+1045376530+1046127956+1045993933
3275+1045124320+1044287374+1043826818+1043563837+1043434094+1043402282
3267+1043052069+1042122969+1041296151+1041571900+1042838374+1043867260
3258+1043841369+1043137875+1042427319+1041786022+1041004212+1040215126
3250+1039885954+1040364198+1041479461+1042568617+1043089373+1043260057
3241+1043734022+1044582737+1045092722+1044815119+1044286375+1044237088
3233+1044567045+1044648928+1044242723+1043620185+1043131384+1043039658
3224+1043450214+1044111268+1044586446+1044785732+1045028671+1045473321
3216+1045847999+1045926102+1045937157+1046236016+1046770109+1047147640
3207+1047161121+1047018896+1047007698+1047080736+1046955772+1046606985
3199+1046420537+1046777527+1047608909+1048401062+1048613259+1048202560
3190+1047654130+1047286442+1046855986+1046243291+1046008270+1046655915
3182+1047811905+1048672888+1048903986+1048757909+1048574457+1048433587
3173+1048235157+1047975314+1047826027+1047934729+1048289365+1048816753
3165+1049490576+1050247921+1050813683+1050779233+1050025596+1048929235
3156+1047958410+1047335087+1047179167+1047507340+1048015756+1048318965
3148+1048307624+1048001277+1047483232+1047123247+1047214331+1047489366
3139+1047682019+1048120178+1049036154+1049917037+1050202343+1050003770
3131+1049704270+1049445640+1049292145+1049394713+1049801845+1050322529
3122+1050681087+1050787507+1050793427+1050817606+1050759903+1050503270
3114+1050107051+1049668749+1049161475+1048530805+1047888296+1047479594
3105+1047371963+1047282733+1046915829+1046354703+1045850353+1045446573
3097+1045113478+1044929313+1044747929+1043979742+1042106421+1039315413
3088+1036426829+1034271340+1033222840+1033185037+1033787318+1034571482
3080+1035215347+1035669769+1036008071+1036250653+1036405788+1036357500
3071+1035572337+1033377975+1029813501+1025899598+1022953454+1021766152
3063+1022241686+1023581342+1024986547+1026247815+1027441108+1028296028
3054+1028436827+1028080194+1027854446+1027963789+1027982691+1027459296
3046+1026372921+1024885548+1022896108+1020128280+1016579997+1012558463
3037+1008324732+1004099060+1000334801+997517473+995716263+994638518+994049646
3027+993968405+994572256+995938160+997810553+999808625+1001840077+1003920245
3017+1005701840+1006715747+1006911182+1006475804+1005462896+1004124381
3009+1003245852+1003716821+1005965391+1009841206+1014711812+1019678210
3000+1023936976+1027029696+1028910507+1029936825+1030571845+1030910290
2992+1030712929+1029946382+1028990392+1028281834+1027902948+1027434118
2983+1026223635+1023915650+1020531204+1015965234+1009840707+1001897922
2975+991903430+979194604+963158038+944535812+926044470+911625020+904732876
2965+906481162+914953545+926453599+937611286+946683455+953545427+958837859
2955+963012175+965942413+967176505+966353682+963568950+959551196+955258763
2945+951124176+946995437+942921763+939491811+937065923+935007652+932002593
2935+926956880+919482711+909915607+899203569+888635397+879362229+871932355
2925+866179867+861804339+859201418+859293001+862312754+867312105+873194692
2915+879741829+887349949+896213060+906001490+916060462+925789192+934875341
2905+943125828+950221181+955875025+960055974+962811533+964111531+964069805
2895+963019094+961172805+958513038+955176809+951770038+949233237+948469757
2885+949910626+953223174+957566605+962247198+966994480+971614730+975670287
2876+978655233+980391464+981199095+981658652+982074272+982070920+980788824
2866+977615577+972766797+967126078+961504759+956054268+950279741+943476541
2856+935220134+925661233+915458324+905515970+896922189+890994095+888938321
2846+891199730+897098793+905068182+913332934+920680142+926777921+931825275
2836+936060432+939683037+942960636+946105424+949120184+951930380+954569035
2826+957091927+959413036+961400409+963060891+964479077+965688419+966809459
2816+968200612+970233348+972970719+976198532+979680338+983287608+986942310
2806+990466770+993528035+995828602+997309270+998094291+998403563+998610053
2796+999107841+999967112+1000883516+1001522816+1001828807+1002044213+1002510903
2786+1003406765+1004653411+1006039714+1007338998+1008366529+1009070665
2778+1009552619+1009926584+1010198195+1010294914+1010210392+1010136854
2769+1010355542+1010945341+1011749334+1012622871+1013466949+1014081713
2761+1014324865+1014386634+1014625150+1015167945+1015859028+1016505319
2752+1017041980+1017522364+1018037485+1018618725+1019211163+1019778352
2744+1020359164+1020914513+1021255383+1021340975+1021503314+1022073926
2735+1022895965+1023502455+1023685408+1023635336+1023613082+1023728204
2727+1023991969+1024400242+1024925420+1025526489+1026202807+1026956943
2718+1027661792+1028107298+1028231050+1028166357+1028050380+1027971136
2710+1028086471+1028538753+1029227054+1029841675+1030157580+1030205512
2701+1030137538+1029996454+1029695598+1029276127+1029049950+1029278480
2693+1029812075+1030307224+1030697095+1031116780+1031475767+1031507008
2684+1031234540+1031024911+1031088036+1031229119+1031209077+1031071844
2676+1030936823+1030740675+1030431831+1030185184+1030185540+1030394028
2667+1030679406+1030990389+1031335824+1031741387+1032186465+1032515351
2659+1032581471+1032501585+1032566849+1032930401+1033536605+1034206861
2650+1034671126+1034729613+1034509571+1034363066+1034439457+1034516918
2642+1034289315+1033707290+1033005222+1032441457+1032037891+1031646737
2633+1031338320+1031532614+1032489103+1033834394+1034952438+1035670126
2625+1036144661+1036340453+1036164847+1035914847+1035999654+1036331252
2616+1036482607+1036347514+1036168698+1036028684+1035864277+1035926616
2608+1036581394+1037613418+1038352147+1038518766+1038393517+1038183460
2599+1037791164+1037245159+1036923119+1037168839+1037847940+1038478110
2591+1038783887+1038877967+1038872546+1038655000+1038180393+1037703361
2582+1037568126+1037850436+1038307354+1038735884+1039241233+1039877894
2574+1040289020+1040195582+1039925825+1039879320+1039935454+1040025326
2565+1040672472+1042187520+1043807203+1044380027+1043641654+1042254709
2557+1040941872+1040134598+1040098364+1040744440+1041506208+1041850288
2548+1041732313+1041366337+1040971687+1040905781+1041479247+1042445793
2540+1043149572+1043272325+1043055350+1042843867+1042812055+1043071398
2531+1043712054+1044657273+1045573820+1046050424+1045986230+1045687871
2523+1045353278+1044702780+1043567903+1042581385+1042604067+1043562767
2514+1044491296+1044721824+1044524820+1044565191+1045129384+1045928099
2506+1046465188+1046526315+1046239083+1045687942+1044836731+1043946147
2497+1043577532+1043947645+1044679099+1045322536+1045684019+1045631095
2489+1045157201+1044720754+1044976460+1046044575+1047379951+1048299351
2480+1048388009+1047673959+1046746001+1046360694+1046615188+1046882805
2472+1046771393+1046659481+1047056913+1047851990+1048452061+1048490292
2463+1048215114+1048090934+1048131305+1047993360+1047666898+1047464259
2455+1047340436+1047001920+1046680451+1046958197+1047799708+1048518822
2446+1048695427+1048496711+1048192575+1047909123+1047739152+1047643717
2438+1047324816+1046535373+1045494005+1044774962+1044791225+1045435161
2429+1046166401+1046470680+1046320110+1046112121+1046093434+1046079810
2421+1045953134+1046088227+1046825601+1047770321+1048162404+1047844358
2412+1047361335+1047213689+1047437440+1047842575+1048323958+1048935084
2404+1049691859+1050294925+1050288149+1049655839+1048910833+1048431733
2395+1048127311+1047876955+1047835514+1048183374+1048882303+1049587508
2387+1049573885+1048164258+1045615974+1043135878+1041603212+1040669405
2378+1039448009+1037640308+1035539883+1033342454+1031044098+1028831120
2370+1027021636+1025441682+1023285123+1020211875+1017473149+1016876787
2361+1018465658+1020444756+1021585625+1022375352+1023672141+1025570283
2353+1027639467+1029352803+1030303229+1030352801+1029570705+1028172348
2344+1026671209+1025748386+1025561011+1025553950+1025314506+1025267502
2336+1026008015+1027234261+1028094317+1028446527+1028874915+1029435399
2327+1029458794+1028742675+1027946671+1027710081+1028103304+1029097311
2319+1030833043+1033030329+1034806575+1035548514+1035599869+1035779041
2310+1036477685+1037581321+1038995370+1040691873+1042322113+1043381883
2302+1043859914+1044311553+1045181524+1046330452+1047227740+1047446427
2293+1047065330+1046689082+1046888368+1047608981+1048347995+1048795284
2285+1048966111+1048872388+1048591290+1048539436+1049066111+1049807622
2276+1050049419+1049661617+1049082802+1048559407+1048052347+1047732875
2268+1047946855+1048760049+1049920461+1051058833+1051678447+1051371743
2259+1050382372+1049480519+1048954628+1048340078+1047488795+1047026457
2251+1047320251+1048064900+1049202630+1050961543+1052757047+1053509970
2242+1053290998+1053244208+1053733009+1053822167+1052794280+1051261900
2234+1050486722+1051136080+1052826947+1054480440+1055140210+1054955261
2225+1055240781+1056950336+1059251474+1060224012+1058812530+1055761108
2217+1052850699+1051355694+1051198134+1051668033+1052465678+1053548986
2208+1054650768+1055568740+1056228297+1056279010+1055587571+1054885575
2200+1054852622+1054963321+1054153550+1052321527+1050539076+1049760333
2191+1049684727+1049355911+1048575955+1047947140+1047899636+1048679735
2183+1050785224+1054259898+1058046055+1060908461+1062494122+1062908744
2174+1061819302+1058904185+1055106045+1052293068+1051399703+1051816178
2166+1052658902+1053692067+1055349411+1058352545+1062098902+1063770297
2157+1061882640+1059137351+1058554471+1060184925+1062448045+1063871082
2149+1063671153+1062164594+1060306465+1058641774+1057462818+1057032576
2140+1056713889+1055470381+1054023094+1054600982+1057786854+1061448404
2132+1063429071+1063663094+1063213094+1062603965+1061611670+1060105324
2123+1058722017+1058509321+1059699119+1061216735+1061927789+1061922155
2115+1061842839+1061549259+1060423797+1058592274+1056924873+1056053119
2106+1055958897+1056311464+1056897127+1057752118+1058874870+1059900332
2098+1060394197+1060426151+1060377221+1060201758+1059525368+1058528222
2089+1057999764+1058299050+1058909962+1059194912+1058892559+1057892560
2081+1056468953+1055737285+1056830151+1059422087+1061796763+1062512382
2072+1061488132+1059622800+1058052760+1057783288+1059336424+1062260314
2064+1065086914+1066248040+1065150609+1062302111+1058871089+1056340922
2055+1055745060+1056468097+1056449267+1054517815+1052106549+1051921956
2047+1055038927+1059979932+1064702179+1068623357+1071975207+1073741823
2038+1072154022+1067816796+1064035632+1062743052+1062402040+1061426221
2030+1060973583+1062586490+1065557385+1068210519+1070092898+1071464936
2021+1071639544+1069480203+1065509096+1062308388+1062221227+1064987913
2013+1067789122+1067653458+1064624148+1062113025+1062704892+1064802393
2004+1065325145+1063974434+1062738416+1062924507+1064058457+1064645902
1996+1063627430+1061554395+1060086066+1060153826+1061243625+1062441269
1987+1062877360+1061390914+1057545984+1052972810+1050434440+1051578162
1979+1055970452+1061460101+1065220652+1065870508+1064662379+1063586774
1970+1062975077+1061950115+1060547335+1059882857+1060104040+1059924155
1962+1058930362+1058815669+1060992912+1063916232+1064448684+1061434138
1953+1056909395+1054119456+1054844776+1058299264+1062118017+1064399469
1945+1064762022+1063688129+1061820942+1060109746+1059604826+1060609032
1936+1062347974+1063655818+1063984776+1063597687+1063135705+1063238986
1928+1063963022+1064444761+1063880069+1062632353+1061510672+1060439846
1919+1059171659+1058513458+1059184570+1060114383+1059679576+1057799978
1911+1055853975+1055015817+1055050054+1054891138+1053921596+1052237576
1902+1050171031+1048077810+1046344575+1045241295+1044802851+1044948999
1894+1045571823+1046473462+1047315401+1047799137+1048204415+1049464827
1885+1051978803+1054666245+1055925587+1055575303+1054928157+1054964034
1877+1055482364+1055964032+1056346200+1056824801+1057385000+1057639137
1868+1057205543+1056477869+1056390494+1057345485+1058957109+1060473797
1860+1061371514+1061756534+1062158317+1062924150+1063880782+1064563092
1851+1064692693+1064406102+1064079284+1064047258+1064482493+1065289482
1843+1066004174+1066266014+1066244830+1066295757+1066516299+1066606741
1834+1066169723+1065116658+1063781068+1062881711+1063075933+1064169512
1826+1065329068+1065917227+1065863661+1065411878+1064764447+1064176003
1817+1063908029+1063840982+1063595048+1063040056+1062276148+1061385565
1809+1060578719+1060241558+1060491486+1060972299+1061232141+1061160601
1800+1061017448+1061049617+1061176079+1061168661+1060998190+1060965095
1792+1061420444+1062161669+1062650042+1062734422+1062516448+1062020300
1783+1061333782+1060789275+1060658961+1060845195+1061090130+1061264096
1775+1061345979+1061412669+1061618517+1061963167+1062350756+1062761740
1766+1062996618+1062726932+1061916520+1060869446+1059891773+1059043200
1758+1058299478+1057672946+1057074373+1056283076+1055076587+1053500484
1749+1052220386+1051919673+1052338432+1052808046+1053154122+1053718387
1741+1054763107+1056018811+1056976870+1057560107+1058166311+1059154541
1732+1060276009+1061266307+1062382211+1063605462+1064414947+1064513164
1724+1064186060+1063773008+1063210954+1062390128+1061727148+1062059672
1715+1063407388+1064912093+1066166870+1067174857+1067864371+1068150319
1707+1068323928+1068924569+1069865367+1070486122+1070475066+1069970930
1698+1069098463+1067874999+1066404744+1064646901+1062194479+1058581646
1690+1053883722+1049026596+1044800140+1041068406+1037895729+1036088527
1681+1035282252+1034479543+1033442454+1032570558+1032620629+1033889957
1673+1035666417+1037674331+1040863627+1045409840+1049389577+1051680444
1664+1053053266+1054671809+1056772376+1058425084+1058901046+1058274799
1656+1056756542+1053785434+1047926241+1039863201+1030420490+1015403822
1647+987131040+943989094+898069120+856766115+819410608+787841540+765781373
1638+755508136+758896291+773836568+791443032+807684235+824640842+844390884
1628+865897128+886299737+905044930+923110594+938883467+950113978+958154479
1618+966365308+975980344+984136822+988837814+991137525+992376824+992819691
1608+991682175+988202722+982718351+976654237+971822005+969295047+968482424
1598+967600185+965074083+960474019+954589720+949022538+945647151+945777607
1588+949274678+954950846+962193560+971376784+982199521+992684527+1000993216
1578+1007507971+1014244052+1021380347+1026416859+1028661934+1029546526
1570+1030526981+1031548021+1031336609+1029302446+1025832195+1021324783
1561+1014796477+1003379304+988395090+978302523+973803457+972847467+975636692
1551+982159008+990804573+998846144+1004522027+1008145274+1010759535+1013016665
1541+1016312523+1022498890+1028999594+1032594952+1033992953+1035208072
1533+1037597797+1040424612+1042324181+1043253852+1043822681+1044189300
1524+1044093437+1043830670+1044275961+1045469398+1046656058+1047948638
1516+1049807266+1051701271+1052663681+1052279658+1050571316+1047970535
1507+1045838441+1043692653+1036830038+1022986193+1003889931+984912356+973035769
1497+968511881+961329296+945287594+925414371+910702054+910411897+927334269
1487+951109696+971042191+985311143+995987375+1005048060+1013106108+1019693117
1477+1024521783+1027903233+1030593956+1033862140+1038271691+1042398361
1469+1044986517+1046096715+1046125745+1045244790+1043284451+1039849363
1460+1034167203+1023781770+1004149702+976661156+950953063+929588687+910708901
1451+895268126+887254942+890173697+901735591+914580650+923669010+929117219
1441+933278910+937388034+940057930+937488034+927788405+914501121+903194148
1431+899856350+908130731+924596898+942976827+960157828+974620788+984588533
1421+989036102+987354863+978927772+964630860+946257635+926168721+909056835
1411+900929601+904538155+917310389+934602375+952576099+968108601+979561651
1401+987643593+993733669+998174390+1000617967+1001093216+999874958+996962338
1391+992029892+984488248+974049391+962081720+951332877+943299580+937923839
1381+935313715+935967137+939673551+945258921+951484803+957401841+962074088
1371+965098762+967215093+969699469+972993972+975830415+976011014+973124785
1361+971218653+975328062+985432612+997321539+1007017244+1013208248+1016498471
1351+1017548042+1016550397+1013574652+1008602977+1001654699+993494725+986123196
1341+982265427+983940175+990603218+999265758+1007424519+1014435493+1020245684
1332+1024335692+1025867573+1024326063+1019885271+1013392556+1006255905
1323+1000199138+996728244+996491654+998768541+1001646354+1003410474+1003945637
1313+1004534866+1006394777+1009487854+1012595125+1014134637+1012821729
1305+1008070666+1000427311+991807424+984779903+981130621+981109580+983764783
1295+987505790+990590807+991793872+990959066+988929611+986933894+985863139
1285+985823196+986143239+985717918+983440675+978632979+971437483+963060606
1275+955616394+951442364+952098283+957541427+966094339+975456236+984017493
1265+991347011+997602423+1002713470+1006264036+1008008826+1008186857+1007279298
1255+1005748131+1004085437+1002798135+1002161973+1002111046+1002361759
1247+1002516039+1002182230+1001227025+999844359+998262764+996507916+994474111
1237+992078465+989331608+986380185+983518207+981143032+979650381+979281480
1227+980074132+981954229+984716850+987884962+990819979+993142301+994961699
1217+996583950+998007771+998738797+998033449+995311698+990537740+984481044
1207+978594677+974307522+972244757+972259379+974198749+978266360+984397664
1197+991565698+998112479+1002781159+1005242568+1005721455+1004384367+1001185655
1187+996266333+990383603+984782470+980563290+978112509+977006091+976667932
1177+977493394+980963075+987937173+997042438+1005403481+1010755470+1012570089
1167+1011924940+1010882074+1011370590+1013826007+1016672009+1017288556
1159+1014007391+1007739782+1001502060+997833949+996873108+997282880+998387157
1149+1000581234+1004104267+1008393348+1012661030+1016518443+1019965656
1140+1023097605+1025893963+1028195743+1029879977+1031056580+1031979618
1132+1032615993+1032300231+1029878551+1024203381+1014721441+1002340076
1123+990165344+982522203+981926483+986698088+992089164+994171686+992835240
1113+991234672+992408707+996440299+1000799707+1002975810+1002429591+1000560335
1103+999503276+1000758267+1004207120+1007933434+1008914460+1004396920+993536665
1094+978212865+962019808+948202497+938581185+934074059+935281118+941952150
1084+952208197+962803259+970309810+972424144+969073792+962796198+957446491
1074+955592785+956693854+957784009+956134297+951697427+947498290+947630386
1064+954266753+966140844+979785902+992147652+1002054342+1009691135+1015468515
1054+1019680278+1022760516+1025328914+1027902163+1030631118+1033310357
1045+1035678756+1037740094+1039656639+1041287093+1041912698+1040125397
1037+1033731755+1020900747+1003074098+986318417+977775990+980132691+990182034
1027+1002299705+1012258963+1018225787+1019532989+1015282852+1004674594
1018+989137029+973563229+964158607+964373371+972912160+985583396+998648855
1009+1010373587+1020219864+1027517570+1031257579+1031291245+1029592888
1000+1029458865+1032774410+1038507283+1044221539+1048357482+1050630588
992+1051019889+1049337152+1045920895+1042112199+1039230677+1037008925
983+1033674551+1027848953+1019925356+1011200405+1001928807+991228752+979674846
973+971043689+969685061+976078346+986176263+995030672+1000219608+1002420675
963+1003919175+1006355334+1009268881+1011132930+1011690846+1012131431
955+1012978862+1013467092+1013230930+1012696551+1011380362+1007822379
946+1001887865+995555065+990808496+987537958+983747522+978050098+972590691
936+972652246+981762218+997719897+1014724294+1028508367+1038188809+1044474178
926+1048113402+1049910832+1050744996+1050932870+1049868464+1046560052
918+1040406923+1031229833+1018474217+1000436084+974700888+940448871+901264265
908+865209469+840792316+832083057+837510224+852641442+873207317+895775828
898+917299405+935462716+949374250+959292494+965759175+969168015+969546259
888+966104467+957401342+942812562+923834345+903334233+883676560+866397698
878+853656205+848731320+854057203+868888279+889367707+910821241+929938687
868+945428678+957521670+967175435+975307520+982289250+988114420+992927965
858+997092224+1000844786+1004270458+1007542778+1010883858+1014294979+1017519582
849+1020336482+1022831985+1025264792+1027619068+1029500591+1030619491
840+1031182971+1031737036+1032790173+1034454222+1036159355+1036971479
832+1036548512+1035459998+1034177688+1032088248+1027951735+1021186339
823+1012375439+1002644854+992931887+983838463+975683340+968340198+961228797
813+953656768+944835098+933439894+918133070+899748789+882884478+873872295
803+876048682+887205798+901896932+915391776+925324143+931397957+935056012
793+939006006+945954069+957060187+971132634+985323126+997031525+1005290071
783+1010518594+1013589346+1015151897+1015078573+1012288991+1005393780+993392514
773+975827491+953175100+927543683+902436588+881392255+866780936+859509692
764+858830092+861018106+858276741+842005082+810793003+775362600+753088382
754+755805211+782222932+820913530+858916682+888090676+906651275+917503684
744+925347396+933890036+944349792+955952414+967554322+978346317+987091454
734+991447582+988223193+974391117+949460769+918232000+889322058+867577297
724+848119266+821836638+788989541+764679734+766345495+796789672+843045665
714+888854940+924923288+949645005+964204399+968717659+961057256+936288749
704+887582831+812177166+719739360+632434569+572363654+548583804+557224233
694+590009384+638586058+693693037+745954727+789280553+822435782+847351365
684+866661821+882329985+895439880+906610049+916308322+924825357+932149811
674+937754082+940697587+940489955+937902512+935368279+935045170+934661861
664+930566361+921514377+908680516+895515843+886166998+883347602+887311219
654+895743660+904289011+907486224+900399288+880664795+850184670+815677375
645+787009016+772872233+776137706+792995384+816427089+840553871+862359331
635+880667292+895392163+907836580+919668303+930596675+937602370+936843527
625+926738335+909898275+892390313+881013868+880338262+890575194+907442144
615+925209236+940538314+952833374+962168168+968672438+973282274+977545177
605+982527196+988122194+993210917+996618544+998232236+999026030+999881877
595+1000640078+1000308053+997965189+993097722+984467350+969200967+945343443
585+917017594+895318696+890886749+904985657+928723425+951296501+967557175
575+978131268+985730686+992467623+998922891+1004462826+1008663747+1012370874
565+1016591124+1020723643+1023101528+1023229060+1021970717+1019049537
557+1011982429+998057557+975676707+943344230+900149502+849963201+804404282
547+778379000+779986487+803509990+832947820+853494936+859882730+855671823
537+846695018+836042038+825404679+818848840+821389492+833408518+849668979
527+864360398+874886487+880892256+881935835+878069721+872652111+872433567
517+881579345+896099722+907296496+908383370+896425970+872886776+845707002
507+828042763+829599038+848823545+875271865+897923186+912829012+923489196
497+933767996+943438952+950316545+953791219+954246710+950106346+937098305
487+910238289+868488922+821321518+787510727+780776572+799266630+830851247
477+863344065+890234824+911094778+928112727+942460351+953964328+962805827
467+969650111+974885410+977706875+975261657+965244697+951442221+944002218
458+950062408+964055326+975714296+982980476+988510710+992527038+993727179
448+993229747+994123326+998014262+1003366109+1007095918+1007512037+1005324665
438+1002008407+998626173+996023752+994503568+993083956+990750935+988585532
428+988512137+989935102+990000579+987417916+983510361+979735830+978388685
418+983090461+992026539+999088155+1000897567+997755775+991968408+985159075
408+977381768+969091909+962710892+961360608+965566807+971388625+972735199
398+968942266+968504321+974815224+981036328+982594243+980437684+975352099
388+966125794+954492930+948394722+954844855+969105746+980436543+984701158
378+984557007+983688891+982895669+980426557
##END=
