##TITLE=X8066
##JCAMP-DX=4.24
##DATA TYPE=INFRARED SPECTRUM
##DATE=30/10/2018
##SAMPLING PROCEDURE=Diamant-ATR
##ORIGIN=ComPlat
##XUNITS=1/CM
##YUNITS=TRANSMITTANCE
##RESOLUTION=4
##FIRSTX=3997.453
##LASTX=373.96442
##DELTAX=-1.4165319
##MAXY=0.975766
##MINY=0.78456295
##XFACTOR=1
##YFACTOR=9.0875291e-010
##NPOINTS=2559
##FIRSTY=0.95941085
##XYDATA=(X++(Y..Y))
3997+1055744459+1055991403+1056177218+1055860093+1055265524+1054923672
3989+1054985523+1055280479+1055759545+1056440691+1057159421+1057713193
3980+1057986636+1057780226+1056935761+1055781123+1055022778+1055029927
3972+1055480527+1055798308+1055713763+1055358006+1054957385+1054579130
3963+1054253282+1054185462+1054565553+1055202690+1055603901+1055371189
3955+1054471629+1053283410+1052365682+1052099060+1052560548+1053495133
3946+1054239049+1054222914+1053823474+1054066155+1055096238+1055967922
3938+1056119434+1055660504+1054627273+1053230873+1052441438+1052994947
3929+1054074485+1054332842+1053487721+1052255950+1051439033+1051107806
3921+1050745752+1050166531+1049896696+1050548197+1052002709+1053576333
3912+1054793542+1055594456+1055910335+1055327966+1053462469+1050679245
3904+1048268634+1047492185+1048540896+1050821115+1053410588+1055321603
3895+1056001111+1055460325+1054286667+1053641529+1054051725+1054470449
3887+1053702920+1051813418+1049970157+1048915412+1048741731+1049792868
3878+1051728021+1053157150+1053212049+1052054525+1050308598+1048739829
3870+1048500821+1050126522+1052185507+1053033186+1052556941+1051767702
3861+1051437984+1051525349+1051698177+1051482257+1050105074+1047117735
3853+1044699057+1046187414+1050058243+1053484638+1055379060+1055589733
3844+1054404400+1052449439+1050437744+1048855857+1048141718+1048736287
3836+1050309254+1051828832+1052656702+1052891841+1052964842+1053104023
3827+1053263602+1053375104+1053265110+1052455670+1050652156+1048751373
3819+1048042088+1048526335+1049967599+1052265592+1054474646+1055419988
3810+1054665184+1052636107+1050729552+1050400096+1050963575+1050467587
3802+1048719562+1047854305+1049249722+1051855264+1054435424+1056318957
3793+1057219698+1057392395+1057327133+1057296241+1057296438+1057225011
3785+1056997677+1056548127+1055752986+1054587657+1053569380+1053499921
3776+1054302146+1055053342+1055077414+1054339925+1053254223+1052401034
3768+1052148318+1052567829+1053634051+1054897174+1055376699+1054389052
3759+1052381686+1050818032+1050549836+1050775727+1049997835+1047224908
3751+1043433507+1041622450+1042387748+1043479223+1043400319+1042493020
3742+1042128080+1042300318+1041761959+1039626168+1036362435+1034101040
3734+1034658617+1037373759+1040597024+1043232672+1044616939+1044626777
3725+1043980589+1043711541+1044148498+1045031727+1046264416+1047871752
3717+1049431011+1049994621+1048761539+1046060367+1043963536+1044548726
3708+1047083628+1049477383+1050504645+1050027154+1048941320+1048661712
3700+1049558451+1050688165+1051386037+1051722708+1051860643+1051761274
3691+1051411289+1051136403+1051523841+1052577798+1053579087+1053954587
3683+1053504250+1052319703+1050733356+1048946173+1046878464+1045245548
3674+1045636527+1047268788+1047815214+1047137674+1047690659+1050739259
3666+1054366686+1056537698+1056655956+1055306649+1053444957+1051686765
3657+1050568464+1050715384+1051606680+1051452741+1049140974+1045315008
3649+1042370236+1042233023+1044297255+1047379109+1050484181+1052542577
3640+1053106187+1052799163+1052304552+1051392662+1049609873+1047220251
3632+1044637468+1041715522+1039061508+1038947120+1041448179+1044042244
3623+1045404275+1045696017+1045617178+1045899279+1046706686+1047321784
3615+1047239535+1047049850+1047647698+1048806074+1049678152+1050382583
3606+1051486717+1052435075+1052245915+1050940881+1049480859+1048670501
3598+1048355146+1047880672+1047149939+1046894468+1047454603+1047893134
3589+1047161090+1045796369+1045928466+1048279391+1051018539+1052445373
3581+1052411857+1051986115+1052139464+1052642076+1052785979+1052614594
3572+1052438420+1051815255+1050097531+1047785108+1046714491+1047863422
3564+1049956186+1051657709+1052732655+1053407702+1053902116+1054256233
3555+1054250724+1053699051+1052961038+1052695072+1052817331+1052487285
3547+1051296966+1049944773+1049587967+1050762019+1053105990+1055580157
3538+1056957996+1056769098+1055764988+1054989065+1054576113+1053936550
3530+1052787619+1051585691+1050908086+1050806357+1051150833+1052093026
3521+1053559935+1054816368+1055228860+1055124966+1055306911+1055826446
3513+1055835235+1054784557+1053292920+1052435469+1052393951+1052435403
3504+1052105882+1051806794+1052078465+1052674871+1052871573+1052461574
3496+1052002578+1052087517+1052630007+1053053191+1052976058+1052544020
3488+1052209447+1052220991+1052337741+1052117622+1051392334+1050319093
3479+1049082993+1047874375+1047088744+1047059164+1047448240+1047393867
3471+1046479812+1045086232+1043694554+1042418641+1041340678+1040710559
3462+1040572887+1040661302+1040865613+1041432175+1042530799+1043857150
3454+1044867884+1045386172+1045794926+1046511688+1047383176+1047801637
3445+1047441944+1046654083+1046047708+1045908265+1046020423+1046027638
3437+1045885505+1045861499+1046166491+1046738890+1047321390+1047644287
3428+1047650978+1047556070+1047500187+1047266164+1046670874+1046067713
3420+1046007764+1046582393+1047498876+1048459499+1049119330+1049123724
3411+1048547192+1047951968+1047807802+1048078752+1048434641+1048628917
3403+1048577429+1048231707+1047574172+1046712326+1045774921+1044754283
3394+1043667400+1042702119+1041884218+1040845739+1039234861+1037057553
3386+1034471687+1031715288+1029384172+1028174177+1028044966+1028119672
3377+1027748698+1027341584+1027793561+1029331766+1031218251+1032497115
3369+1032905737+1033044000+1033558746+1034299580+1034768020+1035224326
3360+1036425073+1038245903+1039575074+1039773876+1039369385+1039108536
3352+1039133854+1039283463+1039501680+1039734653+1039871473+1039903350
3343+1039894298+1039891609+1039996618+1040251433+1040411143+1040241660
3335+1040004029+1040184007+1040872828+1041777766+1042591535+1043116317
3326+1043325613+1043413831+1043528678+1043515232+1043175347+1042660732
3318+1042378500+1042558740+1043089228+1043747550+1044392163+1044875296
3309+1045031136+1044906516+1044822890+1045082624+1045678701+1046234113
3301+1046239820+1045545489+1044589260+1043955862+1043845081+1044113211
3292+1044563155+1045007524+1045295856+1045459633+1045665715+1045911085
3284+1045966115+1045810077+1045894360+1046595905+1047538164+1047918583
3275+1047480379+1046706882+1046116511+1045886489+1046080634+1046617681
3267+1047018039+1046805463+1046234179+1046048298+1046448132+1046857345
3258+1046767028+1046267892+1045636199+1044890185+1043986689+1043160524
3250+1042809620+1043082079+1043668711+1044025059+1043875843+1043621749
3241+1044020009+1045185468+1046212272+1046244214+1045571463+1045071277
3233+1045038089+1045176155+1045263389+1045267783+1045208818+1045257027
3224+1045605766+1046076174+1046258906+1046148191+1046179084+1046495422
3216+1046700455+1046568948+1046487223+1046856230+1047501958+1047954591
3207+1048000504+1047801833+1047643828+1047609919+1047542165+1047428367
3199+1047611624+1048379742+1049563305+1050692559+1051341371+1051339665
3190+1050864863+1050220512+1049524804+1048884650+1048664532+1049103588
3182+1049856031+1050338048+1050371958+1050205754+1050059030+1049935263
3173+1049802116+1049713898+1049733444+1049898730+1050230875+1050628806
3165+1050881916+1050944423+1050981153+1051053039+1051029689+1050793174
3156+1050312796+1049731608+1049460657+1049731345+1050134196+1050185618
3148+1050042830+1050039288+1050035549+1049796148+1049406546+1048989856
3139+1048625769+1048587268+1049050723+1049692057+1050013970+1049876626
3131+1049506570+1049234702+1049297012+1049654933+1050022038+1050163514
3122+1050110649+1050043551+1050021382+1049892892+1049565010+1049239555
3114+1049129037+1049045017+1048609437+1047807081+1047091368+1046917425
3105+1047242486+1047557972+1047491464+1047187260+1046890664+1046534907
3097+1046097359+1045886423+1046035836+1046155406+1045907018+1045556902
3088+1045643152+1046343123+1047335164+1048094363+1048240299+1047766218
3080+1047020138+1046379394+1045949455+1045688474+1045685392+1046019701
3071+1046400907+1046328169+1045680800+1044900679+1044597262+1045093774
3063+1046198433+1047295351+1047843286+1047802030+1047400557+1046706030
3054+1045814996+1045210655+1045401127+1046253921+1047065001+1047314897
3046+1047129935+1046896042+1046669759+1046276943+1045843528+1045753408
3037+1046082864+1046538055+1046952909+1047421873+1047967316+1048379283
3029+1048404601+1048020443+1047522291+1047193294+1046952515+1046678810
3020+1046647130+1047057983+1047448044+1047281971+1046815761+1046720722
3012+1047162073+1047778418+1048260238+1048569690+1048805615+1049062660
3003+1049321673+1049465708+1049427403+1049228995+1048939746+1048729334
2995+1048805090+1049158814+1049547432+1049799689+1049965368+1050182011
2986+1050520846+1050869716+1050959574+1050628544+1049974026+1049197184
2978+1048599730+1048680929+1049684711+1051019326+1051704212+1051442378
2969+1050801897+1050385076+1050234285+1050084085+1049883710+1049821268
2961+1049904895+1049838715+1049421172+1048831654+1048447168+1048482521
2952+1048783315+1048959619+1048863399+1048811977+1049085289+1049414614
2944+1049315639+1048712084+1047887428+1047044144+1046334334+1046175804
2935+1046962747+1048333567+1049263823+1049197578+1048686964+1048658301
2927+1049430289+1050604013+1051616781+1052253917+1052708452+1053178598
2918+1053525763+1053454992+1052929095+1052284810+1051955091+1052048097
2910+1052229124+1052167077+1051974112+1051955551+1052108702+1052174357
2901+1052018189+1051743237+1051527645+1051454250+1051472615+1051518725
2893+1051630883+1051879926+1052253720+1052675723+1053066637+1053340145
2884+1053413736+1053301250+1053156494+1053099038+1052991078+1052588424
2876+1051932988+1051378953+1051240559+1051594808+1052283105+1052918995
2867+1053100087+1052785717+1052328296+1052120443+1052321146+1052807689
2859+1053284197+1053541242+1053647563+1053841117+1054271057+1054829026
2850+1055176979+1055042914+1054543515+1054093768+1053960949+1054004042
2842+1053892212+1053558033+1053317188+1053441349+1053798025+1054109706
2833+1054351863+1054628454+1054877431+1054969650+1054952007+1055002117
2825+1055199082+1055447929+1055604753+1055581928+1055341084+1054962107
2816+1054733331+1054921376+1055424317+1055908564+1056235528+1056497426
2808+1056765491+1057027849+1057245409+1057319394+1057105179+1056549308
2799+1055795881+1055153235+1054916916+1055169370+1055731079+1056266814
2791+1056488769+1056380415+1056207652+1056228509+1056445545+1056663761
2782+1056699901+1056528188+1056277505+1056081720+1055950148+1055801391
2774+1055565662+1055272674+1055091843+1055154547+1055372042+1055660767
2765+1056194075+1057050280+1057828500+1058042584+1057732805+1057351008
2757+1057211827+1057269284+1057297487+1057162438+1056941270+1056793563
2748+1056753619+1056735844+1056721677+1056775395+1056816716+1056597909
2740+1056112941+1055815427+1056120484+1056842099+1057425780+1057595591
2731+1057480023+1057221731+1056812518+1056301576+1055880820+1055670605
2723+1055628956+1055748985+1056129600+1056738402+1057311130+1057586409
2714+1057533150+1057351795+1057332577+1057618088+1058043699+1058328488
2706+1058397292+1058364759+1058275886+1058062916+1057716866+1057336316
2697+1057039786+1056935761+1057087535+1057394822+1057633764+1057708930
2689+1057699092+1057628058+1057461985+1057352648+1057550531+1058015036
2680+1058395062+1058422085+1058109419+1057604839+1057064841+1056652021
2672+1056458401+1056419572+1056439183+1056548061+1056806812+1057130890
2663+1057376260+1057497994+1057507177+1057399938+1057219436+1057087863
2655+1057156404+1057525017+1058069541+1058403982+1058275623+1057933377
2646+1057821482+1058018512+1058256012+1058348165+1058340491+1058303695
2638+1058208525+1058005591+1057730640+1057522197+1057554139+1057866869
2629+1058246633+1058420379+1058408507+1058453108+1058563823+1058470162
2621+1058119979+1057846406+1057882611+1058065146+1058174747+1058229055
2612+1058294710+1058367252+1058566381+1059069715+1059727840+1060119213
2604+1060062478+1059733284+1059273502+1058614065+1057744545+1056958848
2595+1056698261+1057121642+1057928720+1058640825+1058914334+1058625937
2587+1057949119+1057331200+1057127610+1057308834+1057608906+1057796754
2578+1057850866+1058020218+1058512270+1059103953+1059475124+1059784444
2570+1060323786+1060876181+1061137031+1061419459+1062120676+1062798216
2561+1062637915+1061656237+1060633434+1060033094+1059751715+1059683108
2553+1059783067+1059781033+1059414782+1058767610+1058108632+1057690499
2544+1057757597+1058387584+1059323087+1060140267+1060489334+1060251441
2536+1059706327+1059386972+1059571737+1060142169+1060904647+1061655581
2527+1062040132+1061854973+1061367315+1060868901+1060177522+1059132681
2519+1058265260+1058270835+1059005765+1059661136+1059818747+1059828651
2510+1060264887+1061324616+1062616795+1063466638+1063582404+1063248619
2502+1062722066+1061885800+1060732475+1059724889+1059386250+1059776508
2493+1060459753+1060836040+1060581422+1059929266+1059501556+1059784641
2485+1060788554+1062106574+1063118030+1063254981+1062508835+1061703068
2476+1061749308+1062543073+1063102157+1062846227+1062193153+1061850710
2468+1061973165+1062115167+1061859040+1061414605+1061366200+1061766886
2459+1061984972+1061641610+1061107909+1060820955+1060742182+1060743821
2451+1060946034+1061395256+1061835165+1062014224+1061920825+1061645087
2442+1061301398+1061074327+1061035760+1060960857+1060634156+1060276168
2434+1060353761+1061013001+1061930204+1062655952+1062938708+1062812711
2425+1062514541+1062257758+1062078240+1061996778+1062167507+1062574359
2417+1062779523+1062402514+1061726746+1061393026+1061637610+1062175312
2408+1062662511+1062979636+1063207035+1063457390+1063642549+1063487299
2400+1062937921+1062345058+1062045576+1061994023+1061990022+1062037509
2391+1062295538+1062762666+1062973864+1061952046+1058775415+1053401602
2383+1046627191+1039131558+1031001084+1022234261+1013149788+1004134249
2374+995369919+986769037+977931311+968501247+958710244+949243975+940911157
2364+934769816+931607878+930831036+931065780+932285023+935967283+942890517
2354+952345702+963283537+974252134+982694158+985971797+983021975+975523915
2344+967738310+963281373+962234105+962940176+964490056+966704423+969236309
2334+971330057+972521227+973355067+974799741+976969573+979163738+980998735
2325+982755681+984936598+988117098+992868598+999016170+1005133374+1009555418
2315+1011925757+1013335144+1015080415+1017710750+1021151575+1025161717
2306+1029457632+1033621712+1037171678+1039879672+1041996638+1044023419
2298+1046246838+1048508888+1050343820+1051428605+1052062593+1052974024
2289+1054451100+1056042891+1057301882+1058247944+1058893476+1059048530
2281+1058843366+1058758493+1058948178+1059043414+1058656305+1057784948
2272+1056845838+1056362902+1056392483+1056460696+1056335683+1056451251
2264+1057182837+1058143132+1058658272+1058643187+1058503678+1058325602
2255+1057817481+1057122560+1056837442+1057046738+1057369504+1058032811
2247+1059592004+1061507480+1062456691+1062261825+1062132089+1062727445
2238+1063174962+1062460364+1060976074+1060071988+1060516095+1061815816
2230+1062705472+1062216371+1060799048+1060117507+1061091971+1062818876
2221+1064026182+1064474618+1064348686+1063594472+1062435571+1061554114
2213+1061495739+1062254216+1063376846+1064493376+1065748169+1067233181
2204+1068247129+1067978408+1066579384+1064837852+1063387341+1062534415
2196+1062205680+1061966344+1061382466+1060159485+1058183339+1055771744
2187+1053547342+1052083581+1052128248+1054366161+1058137820+1061587434
2179+1063676131+1064618587+1064346128+1062472957+1059921657+1058729568
2170+1059776836+1061823818+1063019318+1062636538+1061275096+1060508224
2162+1062148683+1065915356+1068221483+1066439089+1062914834+1061291100
2153+1062402777+1064968572+1067284800+1067979523+1066801798+1064812928
2145+1063284037+1062746662+1062799527+1062317838+1060686627+1059230869
2136+1060195100+1063925174+1068384735+1071636400+1073292404+1073528264
2128+1072322270+1070019554+1067673352+1066409245+1066612179+1067632096
2119+1068298879+1068121328+1067786362+1067913016+1067832406+1066499824
2111+1064207144+1062408614+1062097261+1062994656+1064066454+1064531025
2102+1064522039+1064683258+1065105851+1065210532+1064770098+1064277062
2094+1064118795+1064164707+1064291295+1064612159+1065120609+1065642898
2085+1066059653+1066136590+1065425272+1063902480+1062407040+1061840412
2077+1062231129+1063101501+1064303429+1065808708+1067167591+1067920952
2068+1068192033+1068383817+1068666442+1068932080+1068795326+1067705950
2060+1065644406+1063654355+1063146168+1064429951+1065978650+1065484958
2051+1062135237+1057840306+1055821855+1057565420+1061444908+1064849068
2043+1067182283+1069598403+1071667162+1070618386+1065618236+1060467165
2034+1059469483+1062397661+1065958449+1068196690+1068904335+1068007005
2026+1066179813+1065443506+1066974627+1069043451+1068758268+1065562944
2017+1061813324+1060201003+1061543751+1064378595+1065864721+1064466878
2009+1062256446+1062436293+1064614651+1065304981+1063012037+1060055394
2000+1059575345+1062369982+1066327455+1068486596+1067836342+1065921850
1992+1064831556+1065134317+1065840912+1065601642+1063669638+1060482382
1983+1057466905+1056123829+1057515310+1062003074+1068169536+1072741321
1975+1073741823+1072517070+1070932953+1068779322+1065448556+1062219716
1966+1061022839+1061886718+1063311585+1064443463+1065648866+1067255153
1958+1068463508+1067806630+1064673026+1060412857+1057724147+1058496594
1949+1062062564+1065772043+1067459136+1067033985+1065682645+1064442282
1941+1063907072+1064477372+1066147806+1068218204+1069679144+1069950291
1932+1069102612+1067707261+1066633496+1066384387+1066471490+1066121504
1924+1065505553+1065316328+1065320984+1064805385+1064277980+1065069121
1915+1067044152+1068572780+1068775321+1068424942+1068698384+1069684391
1907+1070616352+1071018482+1070895567+1070346255+1069616309+1069126618
1898+1069034334+1069079459+1069013935+1068822808+1068491318+1067975391
1890+1067492325+1067585593+1068714585+1070713622+1072621686+1073373538
1881+1072991807+1072482439+1072451546+1072593089+1072462303+1072024231
1873+1071453209+1070815613+1069935074+1068694055+1067697620+1067856478
1864+1069227364+1070952171+1072039776+1072139668+1071696480+1071386176
1856+1071501351+1071881508+1072219425+1072252745+1071846155+1071113521
1847+1070319822+1069633297+1069237071+1069411539+1070068155+1070790820
1839+1071375026+1071808573+1071863930+1071096861+1069349098+1067130599
1830+1065659951+1065938116+1067441558+1068923291+1069892900+1070591494
1822+1071125130+1071314684+1071281889+1071476887+1071954575+1072214768
1813+1071944605+1071368008+1070843226+1070523609+1070445557+1070483993
1805+1070217765+1069334143+1068218138+1067692045+1067993363+1068578749
1796+1068866228+1068499714+1067425227+1066404261+1066526388+1067566441
1788+1068414972+1068450456+1067848148+1067162475+1066740407+1066634217
1779+1066787697+1066992008+1066841611+1065932803+1064275488+1062741743
1771+1062446328+1063405246+1064862448+1066017873+1066240680+1065400610
1762+1064074259+1063078611+1062468432+1061780529+1060971417+1060188934
1754+1059107036+1057194708+1054607990+1052659063+1052412513+1053261306
1745+1054026998+1054259710+1054226718+1054264498+1054450444+1054614024
1737+1054369310+1053438332+1052457769+1052760530+1054374426+1056534288
1728+1058658928+1060138102+1060739033+1060865752+1060791243+1060015581
1720+1057900189+1054967092+1053588860+1055192851+1058048421+1060513274
1711+1062241361+1063139215+1063023778+1062169212+1061600879+1061867960
1703+1062102377+1061208982+1059361129+1057962237+1057785604+1058943455
1694+1060953905+1062514344+1062805758+1062014618+1060755890+1059043676
1686+1056322237+1053541898+1053470274+1055723601+1057929048+1059090769
1677+1059060861+1058117552+1056943960+1055799095+1054382100+1053266225
1669+1053856334+1055668113+1056668681+1055926667+1053975248+1052107784
1660+1050769561+1049166816+1046550911+1042362234+1035509378+1026374532
1652+1019703949+1015687118+1010421396+1002157251+993039458+986293579+980956233
1642+975019072+968188385+960854955+952688407+943562153+936039104+931881451
1632+929030604+925600208+921518836+917922433+915698621+914762396+914967298
1622+916369076+918506441+920832901+923318021+925394978+925030235+921048297
1612+914559134+908453211+906464144+910463136+918711737+927953887+936145752
1602+942777047+947703015+950411664+950291439+947240609+942166212+936942074
1592+933461240+932598279+934033115+936761835+939805449+942587100+944817077
1582+946361775+947273666+947726234+948127510+949606225+952977919+956710814
1572+959225909+961018207+963859282+968425557+973248812+977080091+979541599
1562+980246949+978746851+975992092+976268618+980028732+983058705+984469272
1553+984778527+984227050+982873349+980566173+976663467+970480738+962225120
1543+952859661+943522341+937813562+938376320+941441251+944304233+947807434
1533+953424977+960081327+965626197+969575603+972396542+974173427+974526889
1523+973880176+974049266+976201454+979632703+984061371+989489230+994671259
1513+998177739+999460539+998517099+996355073+996986306+1003572803+1010515386
1503+1013503184+1012478348+1007948344+1001133792+995118645+993101637+994366203
1493+995553372+994115192+989265504+982918868+978270475+976197912+976286852
1483+979041086+985289010+994215937+1003251611+1010219971+1014416780+1016202782
1473+1016839787+1017892761+1019316512+1019798136+1018563742+1015850501
1465+1013110172+1011837670+1011492735+1010228301+1006235278+998639489+989744504
1455+982308361+975668211+969213812+963800448+961166374+963320005+970801537
1445+981380991+991684904+999002593+1001966648+1000635902+996157255+991374075
1435+989507202+990266597+991455800+991688380+990141452+985946873+978143231
1425+966402974+952345177+938534391+925548261+913239146+904511676+901853465
1415+902800578+903946360+903652454+901519287+897641767+892214695+885593305
1405+878881794+873676021+870314166+867784445+865490321+863820872+863340232
1395+864412686+867165149+870882105+874375795+877131210+879701925+883175020
1385+887772384+892548743+896730794+900319196+903667474+906939668+910018046
1375+912974230+916325787+920288311+924282843+927821330+930993829+933906724
1366+936432313+938716926+941372973+944672912+947881091+950081946+951231795
1356+952217737+954005510+956701041+959674803+962349215+964553678+966405532
1346+968018115+969235587+969772962+969805035+970300957+972289303+975614756
1336+979234771+982486436+985259691+987481536+989062833+990177789+991177110
1326+992216900+993158831+993751891+993866411+993691287+993658230+993976601
1316+994361218+994454552+994357479+994511549+995126319+995991248+996850929
1306+997678538+998501096+999162172+999405837+999161057+998723903+998633258
1296+999245274+1000436773+1001841175+1003263155+1004675297+1005945372
1288+1006801381+1007031141+1006610450+1005712201+1004704025+1004068988
1279+1004168356+1005006918+1006253577+1007534212+1008708067+1009797246
1271+1010668209+1010903413+1010097056+1008248941+1005766772+1003098854
1262+1000612159+998977275+999219956+1001828451+1006017061+1010295858+1013596911
1252+1015665342+1016751701+1017331315+1017895581+1018619886+1019282078
1244+1019572705+1019280438+1018145149+1015753822+1011628899+1005459747
1235+997555492+989193946+982133893+977400758+974525118+972045704+968765770
1225+964578274+960187844+956284810+953250050+951449290+951169617+952080720
1215+953256937+954059818+954813441+956504076+959937292+965143065+971359441
1205+977510686+982845276+987215439+990815909+993825024+996358024+998578819
1196+1000666992+1002670751+1004481349+1005988858+1007260638+1008529270
1187+1009975125+1011556291+1013084526+1014379591+1015319685+1015894577
1179+1016277226+1016680602+1017089421+1017270317+1017005663+1016120402
1170+1014403465+1011747288+1008177317+1003517970+997538504+991042258+986333982
1160+985625287+988984584+994458290+999994306+1004623678+1008074014+1010118176
1150+1010531914+1009405546+1007358104+1005345097+1004125526+1003960503
1142+1004790472+1006400563+1008354474+1010095023+1011293080+1012042965
1133+1012742936+1013793352+1015262426+1016766130+1017720064+1017710029
1125+1016664926+1014862133+1012874968+1011391071+1010896723+1011429310
1116+1012648028+1014153438+1015699055+1017101161+1018109075+1018494086
1108+1018198146+1017230504+1015387046+1012181162+1007124212+999988403+990844309
1098+980333002+970253405+963364606+961774389+965374990+972097323+979570983
1088+986347559+991909810+996181326+999244552+1001205547+1002036041+1001673331
1078+1000478488+999395146+999332770+1000455466+1002280165+1004368469+1006668103
1068+1009179065+1011626275+1013707299+1015449946+1016964211+1018036402
1060+1018403375+1018244386+1017952316+1017652310+1017343383+1017250640
1051+1017659722+1018556002+1019590152+1020325869+1020556088+1020410086
1043+1020011367+1019158835+1017639782+1015641205+1013481671+1011240412
1034+1009054970+1007454455+1007027664+1007990649+1010168483+1013035400
1026+1015837580+1018136885+1020133167+1022081372+1023699596+1024598500
1017+1024975377+1025410432+1026157169+1026969167+1027545698+1027910507
1009+1028308045+1028823316+1029228987+1029251091+1028934097+1028673182
1000+1028871328+1029581203+1030479123+1031123933+1031241994+1030879350
992+1030332006+1029805912+1029179401+1028275381+1027284587+1026677818
983+1026767938+1027516052+1028616512+1029681292+1030537104+1031375403
975+1032441954+1033648866+1034652714+1035178676+1035058713+1034069951
966+1032044416+1029278310+1026609343+1024763392+1023697366+1022836176
958+1021735387+1020239422+1018455585+1017046788+1017081813+1019041168
949+1022256561+1025621368+1028479955+1030631881+1031969382+1032549587
941+1032781052+1033132415+1033727508+1034478180+1035399319+1036445406
932+1037337423+1037956850+1038591756+1039429465+1040218573+1040775100
924+1041366323+1042258340+1043240478+1043898471+1044149220+1044262296
915+1044504715+1044965940+1045579202+1046061941+1045966705+1044981616
907+1042979694+1039765808+1035304149+1030400219+1026689952+1025560304
898+1027168296+1030566226+1034536751+1038111182+1040603583+1041772781
890+1042031204+1042046552+1042085971+1041981028+1041452508+1040173185
881+1037887063+1034744014+1031194311+1027475452+1023608623+1019894487
873+1016797220+1014038066+1010093514+1002663274+989605979+970756149+950462365
863+936841591+935267443+942922853+952561819+960682914+968959915+978968150
853+989265373+997548670+1002986105+1005987481+1007009890+1005978495+1002594929
843+997321206+992103627+989661665+991671786+997666535+1005633232+1013357379
833+1019316053+1022960402+1024489359+1024239529+1022226521+1018287282
824+1012872213+1007862225+1005789597+1007211708+1009424960+1008898474
816+1004541035+998099491+992474601+990021554+990985326+992918905+992684226
806+989510481+985473316+983007217+982849737+984386236+986704628+988758366
796+989570036+989101071+988488793+989178139+992111170+997429757+1004319146
786+1011208864+1016429591+1018609130+1016514267+1009043557+996187295+980574306
776+967505599+961941183+964753857+972242407+978868520+979822781+972365584
766+957252190+938843186+921520803+905801756+890120619+876221746+869588221
756+873703438+886442164+902790674+919014694+933680702+946554871+957686392
747+967057098+974595889+980395378+984597893+986952359+986725813+982785984
737+973297086+956565074+934572064+915332566+908334035+916099045+931970260
727+946571859+954715057+956743543+956170225+956833007+960578823+966520182
717+972444094+976565869+978085316+977042508+973969181+969456230+964158108
707+959293007+956578979+956980059+959556086+962067574+962649025+960712691
697+956932900+952947486+950631061+951070511+954141542+958876382+964000365
687+968373282+971444904+973472734+975154449+977017715+979271502+982017799
677+985205383+988468002+990877497+990496160+985128250+975270477+968020870
667+971485569+978875144+979158360+970070935+953859704+933985366+915165772
657+902948547+899710001+901421493+901760131+899373198+899024262+905520312
647+918192727+931839933+941368841+944909886+944383137+943886887+946497546
637+952270471+959344167+965992711+971410207+975606885+978949064+981518007
628+983062509+983651109+983906842+984272242+984370888+983664686+982715147
618+983038569+985358666+988718225+991603770+993060775+992824718+991518963
608+990602940+991247160+993292043+995566359+997032284+997542571+997572479
598+997307695+996237208+993550204+988697762+982129433+975900333+972464427
588+972355417+973979479+975562875+976500739+976996202+977349664+977869789
578+978823132+980122394+981358428+982323315+983215332+984058485+984316318
568+983623168+982600628+982156193+982214306+981979626+981300250+980751660
558+980175063+978302220+974520395+969939691+965623705+960652218+953493387
548+945031883+938325226+935010529+933826049+933297332+934038100+937342170
538+943033830+949870354+956844420+963073323+967535508+969882628+970842858
528+971213701+970911071+969397921+966626044+962835955+957861254+951711386
518+945802691+942641277+943731702+948440503+954904283+961275449+966472695
509+970380518+973492477+976430230+979273076+980847814+979824618+977358190
499+976419342+977930131+979782509+980035685+979576493+980461623+983022303
489+986050570+988533525+989990596+990245674+989795205+989717088+990585821
479+991705696+991713632+990167491+988169307+987155490+987571262+989016199
469+990976144+992664024+993056643+991549068+987746386+981036777+971649543
459+961973584+955515577+953045739+951952624+950777719+950396316+951168698
449+952015065+952530271+953773323+956671526+960801500+964661310+966940676
439+967806327+968557720+970221004+972838877+975773876+978013036+978607474
429+977622123+975572123+971337075+962605539+949441137+934666578+920410570
419+909104581+905276056+908010679+910643441+909041090+903914484+899147899
409+897331463+897469529+898282380+901201309+907886256+916464837+922234614
399+921940248+919418267+924029602+935816428+945181427+946793354+942595889
390+935297352+925002359+913631764+908212432+913496191+923654626+930673752
380+933007885+930842186+922136164+908724424+901336686
##END=
