##TITLE=HMS-Q516
##JCAMP-DX=4.24
##DATA TYPE=INFRARED SPECTRUM
##DATE=24/6/2022
##SAMPLING PROCEDURE=ATR platinum Diamond 1 Refl
##ORIGIN=Angelika Moesle
##XUNITS=1/CM
##YUNITS=TRANSMITTANCE
##RESOLUTION=4
##FIRSTX=3997.453
##LASTX=373.96442
##DELTAX=-1.4165319
##MAXY=0.91806102
##MINY=0.31305173
##XFACTOR=1
##YFACTOR=8.5501095e-010
##NPOINTS=2559
##FIRSTY=0.9160409
##XYDATA=(X++(Y..Y))
3997+1071379139+1071333966+1071376002+1071331107+1071085651+1070852673
3989+1070971881+1071459029+1072078003+1072654453+1073014516+1072921032
3980+1072327782+1071496395+1070809521+1070594738+1070964700+1071652550
3972+1072195399+1072342909+1072163889+1071871795+1071697933+1071823972
3963+1072319138+1073059969+1073679221+1073741823+1073144669+1072243430
3955+1071449967+1070866058+1070473718+1070425686+1070825625+1071384089
3946+1071724284+1071860223+1071947014+1071868658+1071478409+1071002903
3938+1070801365+1070955708+1071258049+1071473390+1071542056+1071493049
3929+1071233022+1070736393+1070378840+1070605265+1071114651+1071062995
3921+1070407212+1070062974+1070617604+1071501972+1071854506+1071695284
3912+1071534039+1071544636+1071469625+1071024235+1070315053+1069925641
3904+1070335269+1071043545+1071259374+1071307196+1071793647+1072388362
3895+1072557553+1072362917+1072088112+1071648507+1070732977+1069509111
3887+1068799650+1069561813+1071509361+1073094058+1073624009+1073378971
3878+1072454379+1070950479+1069510017+1068895574+1069198055+1069997305
3870+1071115209+1072094595+1072070544+1070951804+1069664778+1069276969
3861+1069653066+1069750733+1069033883+1067715975+1066450003+1066455301
3853+1068818891+1071745546+1073087087+1073073841+1072221610+1070835106
3844+1069601131+1069464565+1070491913+1071487123+1071403259+1070751312
3836+1070722799+1071260768+1071491933+1071116673+1070656782+1070642491
3827+1070990424+1071096178+1070391527+1069089095+1068357536+1068993380
3819+1069663802+1069181394+1068441539+1068633387+1069387184+1069790399
3810+1069690153+1069398129+1069275854+1069396107+1069353304+1068937611
3802+1068707003+1069318797+1070251545+1070665566+1070498744+1070051192
3793+1069507717+1068986409+1068672426+1068593651+1068487201+1068140592
3785+1067594746+1066849802+1065873762+1065089361+1065262596+1066465270
3776+1067823611+1068678979+1068940399+1068629832+1067774673+1066679565
3768+1065959299+1065981189+1066456137+1066734149+1066559799+1066387122
3759+1066897345+1068091863+1069013039+1068824398+1067464035+1065575812
3751+1064537659+1065180335+1066297263+1066911288+1067415934+1068212116
3742+1068664618+1068388976+1067920789+1067857700+1068462801+1069455921
3734+1070122717+1070212785+1070057885+1069783149+1069331833+1068903591
3725+1068859115+1069119699+1069242183+1069171286+1069151766+1069145841
3717+1068854723+1068118981+1067193762+1066780856+1067305162+1067853935
3708+1067556125+1066939173+1066665762+1066849453+1067403944+1068155580
3700+1068666500+1068526867+1067774464+1066937500+1066663182+1067004772
3691+1067276928+1067008467+1066759525+1066952836+1067108294+1067101532
3683+1067249043+1067569022+1067578433+1066799470+1065517672+1065111948
3674+1066421560+1067872827+1068330000+1068308947+1068134109+1067377104
3666+1066181541+1065278281+1065040563+1065133559+1064942687+1064298965
3657+1063705575+1063787487+1064345951+1064642158+1064585412+1065018464
3649+1066834535+1068854026+1069319285+1068644053+1067816221+1067153956
3640+1066501381+1065885195+1065618895+1065751626+1065926186+1065836954
3632+1065560545+1065531545+1066217164+1067163018+1067339739+1066810275
3623+1066056338+1065296336+1064813719+1065066635+1065878015+1066343134
3615+1066105206+1065505194+1064996992+1065003545+1065839394+1067246882
3606+1068263425+1068250110+1067430922+1066326333+1065447751+1065226833
3598+1065727436+1066515393+1066976957+1066819407+1066278581+1065780696
3589+1065698088+1066307093+1067305928+1067780598+1067318616+1066191719
3581+1064897304+1063999691+1063776263+1063906346+1063951450+1064001921
3572+1064371953+1064930487+1065246562+1065171621+1064963043+1064775168
3564+1064411201+1063729695+1062820301+1061987519+1061582074+1061659175
3555+1061981315+1062369960+1062778264+1063001970+1062768435+1062201675
3547+1061805919+1061976575+1062675996+1063554718+1064140439+1064069124
3538+1063505641+1063119366+1063312747+1063718681+1063761345+1063286745
3530+1062497324+1061793510+1061757609+1062772827+1064412874+1065587385
3521+1065633604+1064948682+1064200601+1063492535+1062697537+1062096131
3513+1062071104+1062436605+1062565782+1062100802+1061267811+1060574315
3504+1060465494+1061055538+1061885600+1062285051+1062088323+1061662312
3496+1061283915+1060802552+1060146282+1059853143+1060473372+1061555095
3488+1061889365+1060973905+1059590049+1058769258+1058829350+1059447348
3479+1060210905+1060914510+1061448296+1061575590+1061022634+1059933312
3471+1058979440+1058695363+1058885747+1059006489+1058944863+1058994080
3462+1059223712+1059373105+1059335460+1059305624+1059386978+1059434940
3454+1059402384+1059483599+1059713579+1059785104+1059531212+1059294121
3445+1059455574+1059907100+1060330531+1060628342+1060790632+1060645630
3437+1060090164+1059441980+1059151769+1059155045+1058964731+1058498845
3428+1058220903+1058300305+1058285735+1057857145+1057357518+1057334373
3420+1057893534+1058663087+1059152536+1059047410+1058399854+1057658814
3411+1057337371+1057548808+1057959482+1058212677+1058233242+1058097024
3403+1057825565+1057454696+1057200526+1057396835+1058098070+1058766679
3394+1058716277+1057958646+1057230154+1057060962+1057252950+1057401367
3386+1057447516+1057512209+1057543301+1057414263+1057199132+1057113804
3377+1057232245+1057372088+1057216978+1056506542+1055245240+1053833848
3369+1052925638+1053027209+1054100776+1055463439+1056253975+1056204130
3360+1055808723+1055611089+1055592825+1055425934+1054995531+1054472481
3352+1054079235+1053932909+1053966928+1053970553+1053819208+1053622690
3343+1053583930+1053816629+1054336821+1055029550+1055572399+1055653962
3335+1055364796+1055136071+1055237293+1055576372+1055924445+1056098168
3326+1056026364+1055816113+1055611856+1055372743+1055008079+1054626614
3318+1054368958+1054201370+1054146507+1054395170+1054882388+1055116412
3309+1054725536+1053917014+1053228398+1053042615+1053362803+1053853716
3301+1054136050+1054150550+1054105795+1054070799+1053891848+1053531715
3292+1053246174+1053330596+1053748520+1054066686+1053876163+1053313865
3284+1052947876+1053059694+1053347675+1053453917+1053412717+1053431818
3275+1053577098+1053837194+1054234762+1054704274+1054975733+1054718565
3267+1053903072+1053003367+1052627758+1052840589+1053049098+1052691823
3258+1051866292+1051169380+1051098483+1051727774+1052767322+1053747474
3250+1054225003+1054013357+1053286956+1052460588+1051987034+1052154831
3241+1052848885+1053525511+1053672813+1053311774+1052839404+1052519007
3233+1052424617+1052678927+1053332060+1054121829+1054676389+1054862660
3224+1054744776+1054363451+1053747614+1053054257+1052553445+1052450201
3216+1052738740+1053251751+1053786932+1054115903+1054003667+1053442275
3207+1052761117+1052324092+1052240856+1052436468+1052751218+1052934143
3199+1052785586+1052336431+1051788006+1051371406+1051257496+1051403961
3190+1051552518+1051561859+1051564299+1051683089+1051839314+1051927500
3182+1051948274+1051918995+1051830251+1051716969+1051661896+1051663709
3173+1051583261+1051318146+1050955364+1050606315+1050250365+1049931780
3165+1049888280+1050242766+1050798511+1051328672+1051824883+1052294952
3156+1052539293+1052293767+1051497236+1050393344+1049459062+1049142987
3148+1049452997+1049868412+1049919372+1049726408+1049649725+1049653350
3139+1049415771+1048847687+1048170503+1047716677+1047789945+1048427392
3131+1049249786+1049792147+1049925576+1049836484+1049701800+1049430689
3122+1048746953+1047602837+1046402324+1045651594+1045511403+1045782653
3114+1046137836+1046301102+1046197719+1045999109+1045943967+1046092105
3105+1046206433+1045921101+1045173927+1044346444+1043754657+1043278802
3097+1042725288+1042125763+1041417279+1040370760+1039084501+1038028920
3088+1037424446+1036990697+1036377021+1035519213+1034586813+1033829112
3080+1033437748+1033436912+1033685366+1033900497+1033724056+1033025261
3071+1032120189+1031422649+1030982347+1030650587+1030484812+1030638875
3063+1031057079+1031615612+1032376520+1033419902+1034591624+1035605029
3054+1036257953+1036519164+1036611463+1036934858+1037592801+1038130421
3046+1038097726+1037629121+1037094568+1036576468+1036118041+1036037035
3037+1036484587+1037059155+1037314650+1037371395+1037627448+1038063776
3029+1038233525+1037933275+1037549161+1037579835+1038050043+1038637995
3020+1039202385+1039820871+1040432246+1040856514+1041111452+1041345127
3012+1041529934+1041571343+1041602783+1041830532+1042200843+1042508762
3003+1042696985+1042818841+1042858577+1042826440+1042899707+1043220871
2995+1043628548+1043818026+1043753542+1043672188+1043685921+1043627293
2986+1043308848+1042738254+1042068948+1041478137+1041085310+1040914236
2978+1040919743+1041010857+1041059516+1041010718+1040962058+1041031213
2969+1041183743+1041246972+1041021244+1040407010+1039536515+1038714469
2961+1038127842+1037662931+1037045700+1036114206+1034989540+1034004020
2952+1033396409+1033064928+1032662549+1031930293+1030930272+1030007632
2944+1029538818+1029650078+1030110248+1030502030+1030597885+1030567002
2935+1030690323+1030960109+1031206472+1031485599+1031954065+1032489036
2927+1032855443+1033122092+1033515338+1034016777+1034467187+1034859458
2918+1035205648+1035365916+1035320185+1035371912+1035797853+1036468344
2910+1037033570+1037334099+1037466134+1037563382+1037637417+1037599075
2901+1037404439+1037190910+1037198161+1037519673+1037997201+1038357473
2893+1038418681+1038230667+1038055899+1038118431+1038347295+1038493133
2884+1038481491+1038463227+1038507285+1038467479+1038195184+1037702876
2876+1037083972+1036433139+1035892452+1035626570+1035662472+1035833964
2867+1035951429+1035981544+1035994441+1035977989+1035824622+1035531134
2859+1035299759+1035340959+1035605656+1035804057+1035721936+1035475574
2850+1035402027+1035701023+1036247705+1036791808+1037222351+1037547418
2842+1037739684+1037786949+1037825221+1038037983+1038448099+1038932947
2833+1039401343+1039850986+1040272466+1040548247+1040481045+1040015298
2825+1039437315+1039152262+1039208519+1039317967+1039380011+1039615220
2816+1040100138+1040565118+1040762751+1040713953+1040526148+1040249112
2808+1039954230+1039757781+1039716303+1039753459+1039717697+1039524943
2799+1039230548+1038948911+1038790874+1038873552+1039180007+1039407199
2791+1039238286+1038800076+1038540050+1038602930+1038639738+1038327358
2782+1037796570+1037400326+1037266130+1037277842+1037365400+1037575861
2774+1037879806+1038116339+1038195044+1038217352+1038306514+1038427116
2765+1038477239+1038485953+1038575951+1038775398+1038950654+1038907711
2757+1038593867+1038222999+1038046697+1037978100+1037729785+1037296873
2748+1036919382+1036653918+1036415502+1036307030+1036479777+1036807703
2740+1037022556+1037051207+1037024786+1037053717+1037112415+1037123011
2731+1037060688+1036926771+1036710454+1036466671+1036328571+1036361824
2723+1036510869+1036687868+1036793272+1036738060+1036571936+1036478383
2714+1036566290+1036764760+1036949776+1037083554+1037180802+1037186240
2706+1037008613+1036703135+1036433209+1036217241+1035965929+1035782307
2697+1035859339+1036075446+1036068615+1035745847+1035404258+1035323950
2689+1035471182+1035645741+1035764600+1035896983+1036073773+1036186289
2680+1036131913+1035982102+1035905907+1035946061+1035974922+1035912390
2672+1035869935+1035988027+1036229650+1036433070+1036486609+1036384062
2663+1036190332+1036002109+1035912250+1035978547+1036181409+1036412714
2655+1036558273+1036596057+1036573470+1036543703+1036586715+1036796270
2646+1037152081+1037457281+1037471572+1037114436+1036534013+1035989003
2638+1035668049+1035641070+1035897541+1036320276+1036681594+1036808609
2629+1036743568+1036650572+1036588388+1036466044+1036234599+1036020095
2621+1035946409+1035868541+1035467138+1034712644+1034088720+1034137379
2612+1034815400+1035539221+1035838007+1035699768+1035322555+1034888040
2604+1034567294+1034452060+1034505878+1034692009+1034941300+1035001461
2595+1034708740+1034400961+1034604172+1035288675+1035865125+1035955193
2587+1035782586+1035724655+1035816675+1035869099+1035785095+1035556858
2578+1035176020+1034729235+1034410651+1034310265+1034305734+1034199423
2570+1033922178+1033640053+1033640262+1034054631+1034757957+1035514403
2561+1036030970+1035965232+1035237507+1034293116+1033711299+1033622206
2553+1033765047+1033937793+1034045080+1033879096+1033256636+1032368643
2544+1031712721+1031666990+1032248459+1033180510+1034083073+1034716617
2536+1035119623+1035402655+1035441415+1034949665+1033900009+1032786009
2527+1032355467+1032931429+1034003602+1034696122+1034646975+1034197680
2519+1033793071+1033558280+1033469328+1033591394+1033993145+1034578657
2510+1035117532+1035395614+1035304360+1034910696+1034523654+1034500301
2502+1034864407+1035302478+1035589344+1035704926+1035568082+1035126385
2493+1034714735+1034828227+1035512242+1036372560+1037101121+1037612808
2485+1037806120+1037599354+1037147340+1036721329+1036406370+1036108560
2476+1035777218+1035434304+1035071522+1034717036+1034556210+1034789327
2468+1035361594+1035954426+1036231183+1036033549+1035436186+1034741296
2459+1034329715+1034326369+1034408211+1034103708+1033344752+1032611520
2451+1032465682+1033001350+1033788958+1034277849+1034206813+1033746015
2442+1033329834+1033263677+1033416068+1033416556+1033177304+1032985665
2434+1033041992+1033210068+1033291980+1033221780+1032974372+1032632573
2425+1032516851+1032887301+1033508715+1033785821+1033384349+1032593186
2417+1032015132+1031906730+1031946117+1031746044+1031389815+1031213234
2408+1031272280+1031347639+1031334812+1031330211+1031348266+1031167084
2400+1030594190+1029850919+1029468827+1029666112+1030079714+1030281601
2391+1030276651+1030299865+1030404155+1030445285+1030291639+1029950259
2383+1029583712+1029373112+1029317970+1029275097+1029237870+1029396884
2374+1029890376+1030653724+1031475073+1032026774+1032049013+1031769676
2366+1031832556+1032467843+1033099923+1033106128+1032508206+1031638129
2357+1030666481+1029732408+1029001058+1028418125+1027801452+1027172997
2349+1026734089+1026618716+1026732207+1026768318+1026593968+1026566710
2340+1027043611+1027761925+1028116760+1027866702+1027187358+1026339588
2332+1025702559+1025702837+1026176462+1026307869+1025684643+1024871241
2323+1024627458+1024964237+1025298577+1025287493+1025130640+1025167379
2315+1025399590+1025437443+1024978319+1024236094+1023701750+1023666476
2306+1024170634+1025113352+1026192286+1026990212+1027277565+1027101263
2298+1026650644+1026221775+1026167748+1026605191+1027212454+1027536267
2289+1027475478+1027319253+1027396633+1027853318+1028610113+1029291200
2281+1029387054+1028801751+1028056807+1027750562+1028050394+1028741659
2272+1029404343+1029638576+1029573813+1029909338+1031010790+1032321029
2264+1033075454+1033141193+1032800161+1032234586+1031543460+1030798098
2255+1029901042+1028838490+1028123243+1028441061+1029768728+1031301768
2247+1032285825+1032523613+1032190877+1031700103+1031633180+1032218343
2238+1032903056+1032882700+1031919557+1030319524+1028408366+1026336451
2230+1024075477+1021369600+1017911599+1013661529+1009019467+1004874453
2221+1002371299+1002320967+1004760683+1008882274+1013118890+1015867639
2213+1016863408+1017422220+1018831381+1021081829+1023403243+1025252288
2204+1026579468+1027648294+1028602235+1029095727+1028765850+1028107976
2196+1028259182+1029638088+1031276741+1031831371+1030970217+1029415218
2187+1028011076+1027208201+1026874629+1026208808+1024697240+1023240186
2179+1023119933+1024318703+1026154154+1028522554+1031117449+1032742579
2170+1032622116+1031327004+1029868347+1028696835+1027569868+1025898450
2162+1023673099+1022203358+1023035511+1026002600+1029505983+1032310642
2153+1034072756+1034846631+1034638610+1033516941+1032079477+1031202080
2145+1031098139+1031160462+1030832187+1030243747+1029940917+1030158280
2136+1030556615+1030810646+1031040348+1031219229+1030752436+1029261015
2128+1027279099+1025684782+1024837919+1024595530+1024757959+1025090277
2119+1025110703+1024319261+1022803022+1021418608+1021170293+1022348289
2111+1024166173+1025235348+1024687689+1022999889+1021504842+1021119961
2102+1021808648+1022971655+1023927757+1024263561+1023999561+1023316382
2094+1022325284+1021351894+1020903714+1020969313+1020949236+1020627236
2085+1020494992+1020778093+1020886565+1020320921+1019581693+1019582111
2077+1020472057+1021581177+1022312178+1022617030+1022784478+1023121745
2068+1023545874+1023294980+1021728130+1019721884+1019178408+1020654284
2060+1022643729+1023635106+1023794886+1024080984+1024718711+1025321163
2051+1025701652+1025741179+1025008644+1023491708+1022467985+1023453993
2043+1026237320+1028879968+1030010142+1030306279+1031079944+1032263099
2034+1032686600+1031930014+1030821173+1029948516+1028836886+1027059784
2026+1025204814+1024125531+1023950414+1024337874+1025028860+1025722775
2017+1026104449+1026379324+1027206389+1028835353+1030737170+1031973933
2009+1031560400+1028986907+1025151902+1022240096+1021751902+1023034117
2000+1024304203+1024721569+1024742971+1024662175+1023788960+1021624050
1992+1019412362+1019273775+1021421606+1023816148+1024700168+1024064044
1983+1022540974+1020366931+1017934674+1016125435+1015671051+1016787909
1975+1019059270+1021271167+1022240933+1022039674+1021437779+1020604091
1966+1019499293+1018811792+1019312883+1020990506+1023270929+1025348142
1958+1026364615+1025935188+1024341778+1021984113+1019219678+1016768948
1949+1015337827+1014687761+1014000191+1013196270+1012990619+1013546783
1941+1014090468+1014133062+1013810085+1013018783+1011463645+1009590479
1932+1008489306+1008667212+1009647713+1010745261+1011592054+1012077042
1924+1012315178+1012569349+1012878662+1012947398+1012567536+1012038212
1915+1011945843+1012480675+1013228407+1013582545+1013306485+1012642477
1907+1011917401+1011356706+1011136764+1011222022+1011282323+1011070468
1898+1010700715+1010394400+1010216494+1010180802+1010304820+1010368048
1890+1009930047+1008974363+1008263160+1008531064+1009661725+1010854709
1881+1011487486+1011582573+1011429276+1011220698+1011077927+1010996155
1873+1010782627+1010379900+1010187843+1010649058+1011421260+1011801888
1864+1011678009+1011309860+1010892354+1010594613+1010620964+1010921911
1856+1011111528+1010976426+1010781023+1010792038+1010837072+1010605000
1847+1010120849+1009743846+1009815580+1010198927+1010418869+1010408551
1839+1010515490+1010888519+1011129375+1010790783+1009998574+1009260532
1830+1008858641+1008495371+1007780264+1006886694+1006281732+1006119651
1822+1006174724+1006253917+1006301182+1006274064+1006144887+1005932613
1813+1005660527+1005302207+1004799024+1004223132+1003826679+1003758292
1805+1003915562+1004192598+1004639523+1005189900+1005524867+1005527446
1796+1005488896+1005785521+1006618929+1007806546+1008705484+1008868889
1788+1008446642+1007862803+1007484615+1007360039+1007308243+1007228771
1779+1007109285+1006949783+1006838244+1006941697+1007389249+1008051026
1771+1008443087+1008302757+1007868520+1007380116+1006797044+1006055516
1762+1005322005+1004788498+1004365972+1003936685+1003590146+1003441659
1754+1003493804+1003721553+1004108944+1004551267+1004809969+1004721644
1745+1004353564+1003878475+1003440474+1003150053+1002959181+1002647986
1737+1002295522+1002360284+1002782322+1002495526+1001373509+1000254908
1728+999408463+998605519+997608705+996282919+994616660+992667578+990326714
1718+987224454+982867096+977127556+970338570+962497348+953189592+942110172
1708+928575141+910612135+887720201+863893706+840588519+811426675+772628940
1698+734233793+701579859+670617908+645006713+628474269+618116160+611817878
1689+610049559+613320104+624522706+648795428+679111636+703650240+724287055
1679+744766182+766946773+792626774+819359080+841240327+858381567+875406875
1669+892212660+904373804+911977517+918046168+924355744+930470335+935067433
1659+938021554+939927903+941296003+943143584+946818669+950123861+951042876
1649+951337062+952952083+956165046+959011602+960585144+961422666+961965444
1639+962430634+963190775+964840513+966955997+968165712+968409007+968172823
1629+967353287+965225742+960747992+952738903+941517688+931299910+926531739
1619+928179037+936320578+948865696+959249181+964659470+967379080+969126764
1609+969904821+969108290+966524688+962508432+957853892+953765275+951242044
1599+950069346+949160161+948212912+948357843+950618469+954328061+957879825
1589+960423203+962361619+964584739+967503726+970787307+973751955+975837673
1579+976800746+976469195+974533916+971467837+968734772+967014346+966587708
1570+967924090+970492215+973013076+975145571+976956831+978340478+979611121
1560+981850693+984741168+985659625+985263521+984953302+984983487+985242886
1550+985643940+986016133+986191669+986240606+986381564+986728173+987290471
1540+987917323+988108195+987805993+987384374+987201379+987274507+987133968
1530+986547688+985754573+985084709+984659535+984302469+983836653+983327057
1520+982898328+982487305+981991651+981297179+980178648+978451181+976125654
1510+973247588+969023659+960548197+946873951+931845128+914865760+892968549
1500+865640971+838336956+823843314+830911916+851394807+874197440+896752942
1490+918861242+934935886+938191094+929784647+915094974+900161099+891747541
1480+894265753+906226265+922540788+938708010+952276014+962629174+969581287
1470+973175505+974582227+975091125+975404063+975600373+975181751+973716402
1460+970871937+964596590+949373828+924953595+903256946+889808567+883982654
1451+885415727+892372231+899920802+903256528+903137947+904049364+908343841
1441+914494752+920222790+925422200+931069860+936507407+940621887+943706231
1431+946220260+947896907+948155818+946638324+943122392+937818762+931591585
1421+924943626+917571637+909694235+902183170+894762452+886514738+877116287
1411+867082549+857527384+849563887+843928358+841221226+841658182+844732278
1401+850238213+858523362+869118004+880824206+893163952+905378983+915833016
1391+924140891+931442889+938758691+945862288+951746620+956177176+959718622
1381+962771456+965267918+966919607+967415888+966329773+963116043+957542488
1371+949766656+940124909+929904482+921609085+917157059+916769320+919406252
1361+922976350+925525862+926535155+926286840+925116164+923484691+922129208
1351+921830352+923028006+925579122+928801427+931741676+933487198+933383885
1341+930803211+924525214+912772444+894107158+867378477+831013068+783794734
1332+726674278+663752726+601537358+547165338+507050985+486270876+487574877
1322+510232508+549872261+598882092+648237801+691748565+728089365+758196087
1312+782775612+802565565+818892218+832977138+845261254+855577745+863707296
1302+869758101+874220445+877778413+881006573+884075232+886701358+888517011
1292+889478759+889845515+889872284+889628222+889030580+887949135+886296470
1282+884108066+881608746+879173841+877158602+875744003+874904669+874425259
1272+873917266+872908253+870957219+867672871+862659731+855537869+846008917
1262+833853768+818910134+801137721+780673373+757790153+732905986+706654624
1252+679785891+652912139+626437490+600774638+576503275+554259246+534604256
1242+518063726+505122434+496065014+490896416+489472058+491629405+497086750
1232+505227699+515070391+525428849+535013257+542465973+546526113+546295505
1222+541430295+532188905+519355562+504069501+487626777+471307374+456222712
1213+443154195+432415667+423831488+416940199+411366923+407121418+404665355
1203+404757619+408086025+414845977+424622582+436643987+450048447+463965919
1193+477589031+490346422+501983679+512380513+521283939+528228035+532679608
1183+534314010+533263413+530057595+525202842+518866531+511079929+502178281
1173+492922286+484253407+477096723+472320082+470549289+471831714+475573687
1163+480879618+486848232+492487979+496530133+497625799+494963980+488785637
1153+480195602+470359533+460011219+449865976+441136796+435008366+431502787
1143+429350808+427192485+424529830+421314427+417074395+410930490+402407065
1133+392037732+381325346+372272528+366772518+366137685+370988744+381385125
1123+396901723+416559815+438500840+459274780+473679260+477156327+470580904
1113+462572199+464453416+481064843+506908180+531454278+547342930+554240981
1103+557413581+563557730+576372739+594503124+613349523+628802265+639500639
1094+646446966+651390114+655729347+660363252+665833773+672378767+680057281
1084+688875170+698660523+708863453+718531621+726247500+729568099+723861323
1074+701980076+657817783+594149405+527997462+484638636+481628779+516776247
1064+571608681+625764070+668086660+697449902+717682039+732895947+745328829
1054+755309586+762398195+766344391+767200037+765149734+760627019+754493466
1044+747873740+741713975+736498740+732394856+729573118+728340050+728948427
1034+731135785+733764770+735178741+734348679+731692297+727731393+719789716
1024+701621756+670398036+634917275+612424931+614216742+636431910+666050438
1014+692691421+713222414+728780282+741126720+751501630+760847797+769916859
1004+778849773+786967124+793605603+799193449+804915282+811236500+817337358
994+822148054+825369382+827242269+827920498+827526764+826464560+825288865
984+824406936+823970469+823794515+823348358+822088311+819874323+817006086
975+813946908+811083552+808605773+806486803+804609455+802992133+801931672
965+801881410+803057663+805096255+807181763+808566734+808915574+808242015
955+806741740+804690112+802385150+800265064+799137540+800006781+803425534
945+809083162+816070689+823409077+830358541+836457098+841458945+845314235
935+848201015+850438705+852225776+853483104+854023025+853796739+852866361
925+851227916+848825218+845706157+842096323+838489277+835823345+835287608
915+837520766+841935915+846984538+851110521+853523328+854293647+853905002
905+852745759+850972909+848706986+846155103+843463448+840519852+836960978
895+832472213+827260673+822258826+818651711+817090717+817465977+819410319
885+822771978+827479708+833119002+838863631+843898870+847812230+850504234
875+851920785+852058048+850924738+848102651+842530420+833155601+819889590
866+803936384+787449184+772942784+762589485+757447866+756963994+759182583
856+761799995+763508919+764606188+766308349+769463242+773864309+778516270
846+782260161+784305027+784654424+784161211+783958836+784813995+787025055
836+790570266+795026963+799535736+803177846+805482878+806630549+807266115
826+808027790+808996370+809504781+808581165+805623070+800649736+794187629
816+787269745+781337311+777634481+776563284+777603180+779533161+780767972
806+780193056+778189808+776670920+777772720+782350368+789631941+798092834
796+806362158+813333930+818056509+820064637+819692583+817821021+815330485
786+812753925+810237525+807549077+804026383+799005435+792763271+786542926
776+781146858+776299633+772033947+769501305+769088260+768244325+762384044
766+748157120+725522355+696739396+663898703+627957633+590449712+555941470
756+531715489+523536373+531393559+550146055+573789137+597573247+617586278
747+632352007+645216546+661437446+681368496+698695728+706658876+704851171
737+699199817+696309900+698759027+705168500+713016205+720473941+726552491
727+730741981+732770465+732927318+732955830+735802874+742863389+751273601
717+755380971+751506649+741326306+731094585+727184919+731354193+739507447
707+744833942+742827418+734287890+724247668+718101009+718011011+721598119
697+723072321+715963286+696672054+668084290+640860444+629148595+641231103
687+672606586+709431259+739074046+756666254+763888292+764769454+762808870
677+760242766+758504354+758643709+760869896+763998995+765478217+761335225
667+749670222+734850048+720877923+709077191+701184940+698787748+701641833
657+708069920+715725428+722108133+725434657+725118024+721647405+716334155
647+710861333+706558979+703918353+702661791+702299428+702849944+705065675
637+709914643+717742061+727644880+737758230+746538683+753682505+759781062
628+765484282+771149509+776973471+782989419+788838826+793999685+798439303
618+802582365+806411026+809235274+810661375+811053994+810773333+809629914
608+807321536+803840251+799248800+793430346+786180911+777525312+768063492
598+758899901+751147701+745827201+744055606+746458305+752051240+758420630
588+763449664+766526409+768299537+769699915+771147975+772601334+773981495
578+775025016+774884337+772551629+767803675+761302530+753834477+745771362
568+737284048+729040726+722163833+717032601+712779881+708528974+704473819
558+701359290+699918131+701284349+706809385+716675047+729062058+740843759
548+749020923+752086794+750714650+747156890+743730051+741672288+740895764
538+740256085+738205503+733670658+726620042+718012823+709385597+702376111
528+698262537+697386186+698451875+699314632+699659359+701772543+708290419
518+719557296+732884724+744742689+753482500+759502074+763993558+768190229
509+772884993+777881192+782359431+786253481+790515472+795657161+800961837
499+805684277+809878438+813819335+817637539+821554525+825703025+829609344
489+832658205+835156479+838202900+842304901+846590037+849884145+852029188
479+853608934+854861174+855390498+855033711+854438021+854173882+853723750
469+852454571+850696082+848960598+847099563+844936953+843108055+842595462
459+843506042+844514776+844377025+843924036+844784702+847135325+849539140
449+850847846+851624230+853319768+856352037+859489014+861487731+862311519
439+861923014+859577897+855393008+851204981+848671572+847750675+847520067
429+847049649+845546725+842516757+838277910+834355696+832463987+833355745
419+837017305+842218040+846956096+850546201+853193589+855618178+859173079
409+864367958+869235190+870712599+868059285+863823157+861378422+862757328
399+868171522+874944545+878048687+876518993+874325431+874863957+877921602
390+879863642+877416467+871002532+863924240+859698220+859845661+863534270
380+869269209+876865184+887543271+898824787+902143643
##END=
