##TITLE=4-NMe2-8-NH2-qu
##JCAMP-DX=5.0
##DATA TYPE=LINK
##BLOCKS=1


$$ === CHEMSPECTRA SPECTRUM ORIG ===
##TITLE=4-NMe2-8-NH2-qu
##JCAMP-DX=5.00
##DATA TYPE=INFRARED SPECTRUM
##DATA CLASS=XYDATA
##$CSCATEGORY=SPECTRUM
##ORIGIN=
##OWNER=
##XUNITS=1/CM
##YUNITS=TRANSMITTANCE
##XFACTOR=0.12501352010900002
##YFACTOR=0.00426210957169344
##FIRSTX=4000.433
##LASTX=249.7859
##MAXX=4000.433
##MAXY=136.38750629419008
##MINX=249.7859
##MINY=27.439461422562367
##NPOINTS=3890
##XYDATA= (X++(Y..Y))
3890B3488B3554B3552B3555B3575B3530B3536B3554B3542B3525B3515B3464B3456B3439
3876B3459B3495B3467B3450B3491B3492B3482B3462B3467B3502B3487B3514B3520
3863B3547B3565B3469B3445B3466B3512B3528B3561B3590B3495B3298B3287B3435
3850B3502B3453B3455B3508B3521B3499B3509B3577B3590B3597B3560B3487B3527
3837B3687B3598B3509B3681B3596B3422B3404B3480B3499B3552B3553B3440B3465
3824B3496B3495B3540B3557B3507B3439B3429B3426B3408B3405B3430B3423B3395
3811B3412B3449B3532B3445B3409B3427B3430B3405B3415B3444B3493B3487B3473
3798B3451B3403B3404B3344B3506B3462B3433B3348B3309B3369B3411B3399B3400
3785B3463B3499B3527B3492B3476B3566B3588B3551B3487B3438B3406B3426B3462
3772B3505B3461B3397B3449B3470B3577B3603B3550B3606B3613B3617B3576B3546
3759B3560B3529B3493B3482B3503B3536B3443B3378B3354B3331B3361B3410B3411
3746B3437B3512B3480B3453B3516B3518B3460B3501B3443B3273B3307B3372B3456
3733B3498B3497B3416B3432B3463B3445B3359B3357B3412B3512B3444B3340B3374
3720B3406B3443B3445B3444B3468B3466B3413B3443B3510B3486B3432B3450B3456
3707B3485B3526B3509B3431B3453B3446B3413B3408B3431B3453B3500B3471B3432
3694B3434B3494B3481B3509B3594B3533B3469B3509B3562B3553B3481B3419B3432
3681B3484B3456B3402B3443B3463B3492B3507B3466B3432B3443B3455B3471B3490
3668B3491B3426B3406B3439B3431B3428B3451B3428B3433B3446B3373B3365B3364
3655B3357B3432B3454B3444B3480B3477B3461B3438B3437B3472B3451B3451B3444
3642B3425B3485B3522B3508B3480B3464B3439B3444B3456B3462B3413B3417B3434
3629B3374B3357B3428B3499B3386B3327B3429B3387B3434B3524B3482B3405B3435
3616B3409B3306B3312B3410B3486B3461B3403B3399B3405B3353B3288B3416B3472
3603B3484B3449B3370B3417B3531B3533B3536B3495B3478B3492B3504B3520B3504
3590B3531B3570B3549B3512B3520B3482B3452B3489B3445B3455B3493B3465B3516
3577B3569B3516B3483B3508B3566B3619B3573B3440B3429B3513B3583B3546B3512
3564B3523B3485B3506B3560B3522B3477B3491B3546B3593B3608B3671B3560B3518
3551B3622B3597B3616B3677B3558B3480B3523B3581B3624B3628B3567B3567B3579
3538B3645B3621B3523B3544B3625B3631B3547B3529B3522B3546B3597B3538B3402
3525B3453B3420B3314B3328B3522B3604B3584B3557B3518B3509B3586B3478B3457
3512B3505B3450B3404B3447B3437B3473B3537B3410B3269B3337B3567B3689B3552
3499B3465B3491B3538B3538B3443B3386B3390B3478B3519B3437B3429B3482B3488
3486B3469B3468B3522B3587B3513B3462B3475B3476B3492B3600B3579B3422B3451
3473B3468B3523B3530B3502B3591B3634B3519B3491B3510B3466B3433B3439B3371
3460B3382B3432B3574B3602B3563B3619B3604B3460B3408B3447B3435B3386B3429
3447B3523B3517B3463B3441B3517B3597B3578B3459B3415B3454B3419B3381B3367
3434B3404B3416B3422B3422B3430B3437B3447B3521B3519B3472B3462B3408B3394
3421B3406B3358B3416B3528B3524B3465B3373B3389B3502B3561B3465B3437B3421
3408B3463B3495B3410B3357B3438B3471B3400B3337B3380B3436B3348B3329B3342
3395B3446B3476B3344B3246B3309B3440B3548B3553B3491B3455B3423B3341B3349
3382B3485B3523B3491B3508B3509B3440B3282B3223B3292B3326B3314B3329B3358
3369B3408B3395B3307B3278B3303B3283B3281B3307B3340B3280B3208B3234B3233
3356B3165B3095B3081B3162B3147B3164B3226B3132B3104B3134B3094B3115B3168
3343B3156B3129B3098B3088B3111B3158B3145B3182B3197B3184B3208B3162B3074
3330B3021B3089B3139B3111B3098B3083B3024B2997B2953B2983B2878B2736B2714
3317B2643B2473B2267B2146B1986B1727B1487B1100B0527A9854A9010A8026A7000
3304A6160A5638A5542A5796A6471A7430A8438A9388B0158B0746B1297B1737B1979
3291B2187B2352B2411B2587B2742B2779B2856B2935B2995B3056B3001B3029B3109
3278B3063B3049B3130B3080B3050B3117B3170B3225B3290B3256B3177B3174B3205
3265B3286B3357B3326B3307B3304B3302B3331B3346B3371B3381B3318B3306B3338
3252B3407B3341B3331B3447B3409B3318B3239B3291B3366B3341B3397B3371B3357
3239B3435B3442B3371B3361B3404B3394B3396B3401B3352B3368B3467B3442B3357
3226B3300B3274B3271B3278B3254B3224B3209B3180B3219B3211B3184B3125B3104
3213B3177B3144B3062B2909B2899B3010B2966B2900B2810B2785B2817B2784B2790
3200B2767B2649B2592B2643B2650B2639B2567B2563B2572B2524B2452B2317B2241
3187B2239B2262B2198B2111B2041B1927B1892B1889B1831B1801B1777B1668B1587
3174B1577B1573B1476B1269B1156B1145B1067B0935B0807B0616B0496B0380B0246
3161B0195B0032A9866A9801A9675A9546A9454A9316A9179A9030A8942A8833A8717
3148A8583A8538A8480A8350A8233A8236A8241A8227A8232A8307A8408A8497A8610
3135A8625A8733A8866A8974A9081A9169A9223A9336A9440A9582A9758A9791A9890
3122B0021B0050B0142B0287B0360B0460B0588B0615B0638B0674B0773B0889B0945
3109B0961B1011B1087B1111B1137B1209B1244B1306B1443B1477B1394B1387B1470
3096B1484B1428B1482B1546B1573B1562B1539B1548B1496B1414B1375B1343B1309
3083B1258B1250B1273B1262B1276B1382B1423B1350B1282B1372B1362B1350B1387
3070B1373B1369B1373B1376B1420B1487B1450B1404B1421B1520B1498B1487B1532
3057B1564B1573B1556B1605B1681B1763B1780B1745B1686B1653B1639B1677B1732
3044B1758B1734B1651B1595B1627B1618B1627B1671B1652B1655B1652B1602B1585
3031B1606B1591B1592B1546B1475B1551B1587B1610B1602B1618B1643B1643B1653
3018B1643B1692B1683B1661B1701B1696B1672B1669B1648B1680B1687B1663B1741
3005B1886B1886B1854B1842B1852B1809B1820B1938B2011B1993B1937B1938B1980
2992B2024B1990B2031B2128B2116B2145B2208B2192B2243B2293B2288B2307B2410
2979B2484B2492B2489B2495B2539B2593B2625B2692B2720B2748B2789B2765B2811
2966B2877B2854B2818B2892B2985B3037B3028B2994B3026B3106B3089B3084B3057
2953B3040B3074B3065B3081B3057B3060B3095B3037B3031B3055B3079B3028B2994
2940B3075B3158B3172B3190B3170B3120B3071B3117B3176B3161B3112B3085B3001
2927B3007B3077B3182B3210B3173B3318B3439B3476B3437B3407B3464B3524B3531
2914B3504B3459B3458B3482B3443B3435B3503B3517B3522B3506B3472B3394B3332
2901B3231B3207B3163B3073B3053B3018B2906B2865B2891B2932B2959B2944B3010
2888B3133B3149B3131B3192B3227B3239B3232B3186B3138B3124B3076B3073B3113
2875B3151B3136B3095B3127B3069B3035B3084B3048B3030B3059B3047B3049B3077
2862B3012B2959B2896B2764B2629B2471B2345B2322B2373B2514B2717B2833B2897
2849B2991B3089B3108B3000B2939B2949B2837B2661B2469B2196B1977B1900B1939
2836B2088B2308B2535B2620B2688B2829B2942B3028B3046B3104B3162B3121B3136
2823B3164B3156B3167B3123B2997B2974B2953B2811B2718B2612B2398B2139B1918
2810B1739B1514B1309B1099B0909B0769B0733B0730B0778B0869B0923B0964B1009
2797B1068B1147B1274B1449B1594B1749B1952B2172B2341B2465B2548B2530B2564
2784B2633B2673B2636B2598B2666B2768B2783B2776B2758B2752B2797B2852B2844
2771B2806B2833B2840B2814B2800B2784B2748B2686B2650B2642B2599B2613B2615
2758B2605B2616B2558B2513B2530B2569B2606B2628B2583B2551B2526B2491B2425
2745B2377B2389B2304B2237B2237B2283B2247B2143B2127B2131B2112B2034B1954
2732B1888B1779B1681B1604B1572B1571B1505B1453B1370B1273B1252B1310B1430
2719B1523B1629B1720B1764B1846B1969B2091B2150B2144B2169B2146B2049B2000
2706B1961B1880B1813B1833B1808B1798B1732B1627B1589B1562B1473B1354B1250
2693B1093B0957B0813B0529B0198A9834A9504A9355A9427A9682A9983B0267B0542
2680B0798B1003B1220B1409B1527B1644B1808B1974B2114B2222B2315B2381B2468
2667B2534B2557B2512B2478B2513B2587B2639B2684B2709B2709B2652B2575B2479
2654B2390B2328B2266B2182B2060B1944B1865B1766B1622B1427B1238B1118B0919
2641B0671B0426B0205A9973A9759A9625A9611A9598A9626A9720A9893B0136B0415
2628B0731B1051B1352B1610B1853B2087B2263B2379B2468B2578B2692B2741B2761
2615B2801B2861B2956B3016B3041B3059B3088B3158B3205B3237B3257B3249B3222
2602B3238B3273B3272B3263B3252B3282B3302B3343B3368B3397B3390B3351B3353
2589B3389B3423B3433B3401B3426B3442B3407B3398B3452B3444B3427B3425B3378
2576B3383B3439B3463B3430B3434B3453B3447B3447B3460B3468B3429B3449B3504
2563B3486B3473B3428B3405B3424B3447B3457B3416B3435B3506B3504B3487B3522
2550B3497B3427B3434B3487B3492B3486B3500B3519B3475B3457B3442B3407B3414
2537B3412B3443B3480B3480B3423B3383B3388B3391B3383B3403B3420B3377B3347
2524B3365B3400B3439B3400B3365B3417B3437B3370B3396B3425B3406B3409B3410
2511B3377B3358B3394B3360B3349B3342B3339B3346B3357B3365B3298B3270B3282
2498B3289B3304B3298B3216B3188B3216B3258B3301B3310B3312B3329B3317B3312
2485B3280B3267B3328B3398B3353B3347B3371B3320B3316B3347B3409B3427B3390
2472B3386B3350B3364B3443B3465B3439B3432B3409B3451B3410B3364B3422B3477
2459B3460B3465B3467B3432B3418B3462B3484B3512B3549B3511B3491B3516B3467
2446B3432B3491B3555B3546B3529B3609B3625B3571B3513B3517B3545B3516B3479
2433B3536B3582B3551B3613B3665B3624B3628B3587B3591B3541B3443B3456B3579
2420B3592B3548B3488B3523B3636B3627B3565B3528B3452B3415B3465B3416B3367
2407B3414B3506B3500B3433B3453B3501B3447B3497B3562B3547B3529B3463B3520
2394B3566B3483B3493B3565B3594B3591B3507B3547B3581B3487B3340B3321B3486
2381B3551B3525B3558B3583B3545B3555B3533B3498B3516B3568B3613B3654B3691
2368B3722B3752B3681B3651B3646B3551B3559B3498B3508B3601B3512B3458B3521
2355B3466B3417B3364B3425B3524B3564B3606B3604B3570B3512B3522B3569B3494
2342B3471B3540B3556B3513B3501B3562B3520B3498B3548B3574B3595B3600B3554
2329B3539B3548B3581B3545B3482B3546B3677B3562B3511B3521B3493B3473B3482
2316B3553B3550B3541B3575B3537B3457B3482B3555B3561B3457B3497B3495B3463
2303B3530B3551B3479B3473B3539B3571B3551B3538B3495B3482B3565B3592B3587
2290B3586B3605B3560B3524B3565B3553B3624B3657B3578B3547B3519B3456B3458
2277B3518B3588B3612B3574B3604B3691B3641B3502B3486B3543B3653B3713B3670
2264B3695B3683B3635B3643B3640B3579B3658B3655B3607B3589B3615B3660B3670
2251B3639B3635B3599B3564B3600B3540B3502B3578B3610B3581B3624B3579B3574
2238B3621B3579B3535B3579B3621B3607B3636B3653B3699B3695B3583B3556B3565
2225B3577B3653B3692B3629B3593B3623B3627B3609B3579B3557B3561B3554B3533
2212B3507B3469B3504B3565B3512B3532B3535B3561B3660B3697B3633B3566B3526
2199B3573B3638B3757B3846B3687B3501B3415B3552B3653B3551B3405B3306B3282
2186B3416B3487B3449B3561B3611B3513B3497B3532B3436B3413B3402B3326B3328
2173B3340B3432B3513B3431B3421B3338B3236B3423B3600B3468B3456B3565B3389
2160B3342B3420B3392B3308B3339B3555B3532B3398B3328B3395B3475B3467B3384
2147B3345B3344B3376B3416B3456B3429B3419B3441B3462B3481B3412B3286B3338
2134B3449B3441B3351B3404B3499B3463B3424B3384B3334B3408B3457B3278B3362
2121B3408B3414B3456B3410B3373B3387B3385B3390B3455B3435B3517B3559B3531
2108B3476B3512B3540B3560B3602B3639B3622B3518B3436B3606B3745B3638B3491
2095B3602B3698B3608B3620B3667B3531B3493B3530B3498B3509B3636B3700B3695
2082B3682B3737B3644B3560B3435B3425B3560B3630B3512B3536B3623B3677B3747
2069B3897B3889B3777B3731B3636B3465B3412B3470B3668B3740B3675B3743B3650
2056B3513B3356B3386B3511B3438B3350B3259B3527B3800B3691B3713B3806B3787
2043B3731B3589B3662B3647B3465B3586B3855B4035B3867B3514B3571B3356B3170
2030B3403B3563B3724B3902B3726B3706B3759B3726B3793B3648B3636B3857B3956
2017B3900B3643B3394B3597B3758B3870B3969B3661B3479B3522B3808B4036B3702
2004B3289B3158B3415B3464B3819B3869B3595B3840B3945B3506B2908B2702B3156
1991B3860B4095B3947B3573B3593B3345B3443B4254B4327B3925B3922B3677B3629
1978B3553B3764B4219B3891B3711B3552B3616B3505B3336B3728B3889B3720B3810
1965B3780B3707B3325B3050B3371B3839B3654B3388B3431B3471B3626B3584B3578
1952B3652B3409B3464B3473B3309B3330B3687B3732B3573B3561B3446B3418B3375
1939B3311B3402B3548B3622B3494B3519B3618B3661B3526B3494B3556B3540B3464
1926B3467B3485B3445B3496B3640B3669B3610B3554B3507B3433B3416B3348B3244
1913B3417B3478B3291B3252B3596B3731B3592B3660B3691B3542B3480B3522B3614
1900B3716B3699B3551B3449B3351B3333B3249B3399B3363B3353B3387B3449B3277
1887B3222B3259B3334B3456B3598B3743B3729B3698B3593B3612B3505B3332B3381
1874B3493B3413B3436B3617B3598B3722B3878B3713B3671B3673B3502B3199B3293
1861B3544B3407B3704B4028B3521B3220B3197B3312B3222B3341B3115B3003B3110
1848B3076B3632B3966B3883B3901B3670B3489B3513B3801B3548B3372B3747B3620
1835B3714B3957B3711B3800B3680B3608B3653B3502B3610B3523B3352B3258B3634
1822B3929B4125B4048B3790B3786B3496B3241B3232B3344B3570B3535B3458B3440
1809B3673B3953B4053B4010B3766B3742B3875B3880B3450B3154B3702B4004B3820
1796B3914B3312B3095B3880B3939B3644B3718B3717B3867B3714B3618B3850B3620
1783B3616B3953B3797B3806B3667B3525B3334B3267B3253B3559B3705B3656B3651
1770B3649B3759B3670B3449B3526B3612B3543B3523B3602B3552B3517B3529B3452
1757B3440B3464B3380B3276B3238B3218B3192B3174B3178B3086B2970B2839B2687
1744B2654B2669B2657B2721B2769B2951B3022B2807B2621B2517B2409B2500B2648
1731B2849B3160B3240B3201B3234B3287B3304B3357B3432B3425B3424B3459B3421
1718B3546B3542B3486B3458B3455B3417B3381B3414B3492B3523B3492B3486B3442
1705B3399B3357B3441B3460B3415B3356B3369B3444B3493B3517B3537B3524B3507
1692B3503B3450B3478B3441B3374B3380B3383B3442B3485B3372B3374B3396B3383
1679B3376B3358B3348B3412B3472B3346B3309B3359B3429B3401B3371B3354B3291
1666B3288B3290B3258B3235B3182B3144B3109B3130B3169B3165B3188B3267B3289
1653B3247B3243B3285B3314B3310B3319B3355B3370B3379B3368B3380B3384B3371
1640B3400B3409B3401B3395B3383B3408B3410B3422B3451B3466B3450B3445B3411
1627B3383B3440B3492B3482B3457B3426B3403B3395B3388B3387B3372B3356B3345
1614B3313B3299B3305B3300B3311B3333B3374B3399B3407B3382B3341B3385B3444
1601B3405B3338B3369B3407B3401B3400B3427B3447B3443B3425B3433B3422B3397
1588B3390B3393B3403B3404B3398B3431B3403B3366B3376B3416B3416B3413B3389
1575B3397B3404B3356B3315B3302B3298B3230B3167B3141B3092B3022B3028B3107
1562B3131B3189B3249B3294B3337B3356B3363B3389B3400B3406B3403B3411B3430
1549B3462B3469B3470B3468B3487B3482B3472B3438B3403B3304B3232B3236B3269
1536B3293B3335B3348B3330B3334B3334B3336B3362B3358B3361B3359B3357B3353
1523B3329B3291B3265B3258B3256B3238B3206B3196B3201B3199B3148B3119B3128
1510B3084B3050B3016B2970B2960B2903B2794B2805B2906B2980B2991B3002B3015
1497B3010B3016B3034B3043B3043B3071B3091B3096B3077B3033B3083B3112B3123
1484B3123B3139B3135B3146B3156B3158B3164B3171B3181B3214B3228B3228B3223
1471B3261B3279B3300B3346B3393B3427B3454B3472B3508B3536B3533B3527B3540
1458B3568B3583B3611B3547B3548B3575B3582B3591B3559B3543B3519B3523B3527
1445B3543B3548B3574B3594B3605B3610B3633B3637B3622B3627B3625B3605B3570
1432B3476B3408B3322B3202B3050B2882B2639B2284B1925B1569B1130B0577A9952
1419A9290A8240A7572A6974A6470A6246A6376A6803A7547A8470A9366B0227B0970
1406B1598B2097B2513B2840B3069B3188B3274B3346B3354B3355B3338B3319B3311
1393B3325B3358B3398B3379B3268B3122B2958B2780B2537B2215B1778B1054B0003
1380A8778A7517A6533A5692A4196A3459A3124A3348A3991A4757A5521A6308A6636
1367A6753A6935A7452A8348A9221B0096B0668B1175B1600B1905B2272B2497B2661
1354B2835B2957B3072B3176B3251B3318B3381B3377B3420B3470B3415B3336B3343
1341B3312B3239B3191B3034B2766B2640B2458B2212B1952B1525B1123B0765B0444
1328A9960A9517A9091A8745A8371A7830A7405A6738A5787A4389A3049A1928A0791
1315I008G810G009F580F438F587F805G145G570H099H666I560A0480A1313A2075
1300A2888A3774A4625A5374A6243A6897A7483A8157A8658A9193A9670B0019B0442
1287B0874B1222B1490B1707B1860B1936B2048B2011B1823B1569B1291B1018B0719
1274B0442B0192A9726A9156A8000A6508A4830A4138A4487A5594A6881A8053A8935
1261A9721B0198B0321B0151A9690A8927A7842A6594A5367A4067A3741A3768A4079
1248A4544A5147A5775A6367A6885A7354A7589A7423A7040A6560A6608A7388A8382
1235A9047A9281A9216A9491A9887B0408B1084B1675B2117B2525B2876B3159B3358
1222B3472B3484B3416B3219B2841B2209B1259A9987A7834A5189A4588A5047A5911
1209A6663A7065A6979A6754A7219A8146A8759A8665A7791A6185A3664A1040I522
1196I043I563A0628A2178A3843A5286A6636A7804A8942A9877B0535B1081B1565
1183B1984B2168B2417B2611B2714B2826B2839B2785B2655B2507B2375B2239B2097
1170B1958B1708B1353B0888B0233A9427A8360A7123A5850A4836A4443A4739A5497
1157A6457A7450A8594A9545B0455B1187B1775B2254B2632B2870B3010B3038B3029
1144B2996B3055B3156B3280B3408B3434B3466B3483B3442B3335B3184B2974B2683
1131B2282B1730B1064B0192A9077A7891A6420A5039A4034A3555A3564A3917A4480
1118A5107A5733A6282A6720A7039A7308A7389A7507A7722A7699A7516A7057A6219
1105A5105A4037A3372A3296A3797A4666A5679A6664A7452A8157A8846A9452A9986
1092B0452B0851B1196B1516B1762B1975B2139B2233B2339B2386B2344B2311B2293
1079B2261B2203B2068B1822B1459B1018B0588B0366B0504B0851B1290B1704B2028
1066B2277B2474B2635B2728B2760B2795B2845B2845B2861B2873B2819B2763B2734
1053B2730B2779B2874B2977B3067B3165B3256B3295B3316B3353B3407B3436B3456
1040B3475B3478B3524B3557B3561B3552B3535B3497B3496B3493B3459B3448B3444
1027B3462B3456B3496B3526B3442B3328B3279B3294B3322B3420B3466B3418B3421
1014B3410B3354B3242B3040B2695B2216B1634B0976B0307A9726A9441A9582B0041
1001B0578B1035B1427B1774B1994B2128B2247B2330B2363B2355B2351B2328B2229
988B2044B1762B1324B0739B0111A9658A9642B0015B0483B0792B0904B0864B0607
975B0086A9327A8489A7806A7465A7530A7877A8393A9011A9691B0403B1042B1599
962B2104B2493B2740B2956B3139B3285B3363B3457B3511B3519B3494B3460B3482
949B3456B3317B3163B3025B2868B2654B2456B2206B1786B1301B0803B0146A9412
936A8677A7954A7274A6633A5992A5188A4261A3457A3049A3127A3619A4407A5297
923A6210A7086A7863A8535A9142A9711B0165B0495B0752B0946B1094B1104B1032
910B0977B0910B0770B0667B0586B0489B0439B0458B0541B0698B0878B1064B1316
897B1559B1791B2056B2266B2431B2512B2587B2648B2635B2633B2623B2544B2346
884B2069B1736B1321B1015B0941B1151B1480B1770B1936B1906B1823B1890B2030
871B2145B2284B2373B2465B2563B2554B2485B2352B2252B2269B2324B2357B2359
858B2419B2456B2471B2456B2431B2359B2217B2057B1850B1618B1260B0744B0141
845A9356A8428A7565A6797A6213A5890A5798A5875A6151A6532A6921A7252A7346
832A7171A6933A6980A7482A8296A9112A9800B0382B0817B1108B1393B1676B1888
819B2044B2187B2310B2438B2547B2683B2798B2830B2918B3060B3139B3124B3164
806B3244B3315B3363B3399B3410B3377B3357B3401B3429B3461B3495B3488B3470
793B3489B3525B3515B3427B3373B3359B3354B3406B3461B3442B3410B3361B3348
780B3393B3421B3364B3327B3389B3479B3502B3477B3454B3446B3430B3410B3374
767B3286B3140B2947B2767B2573B2325B2017B1607B1039B0332A9422A8205A6603
754A4604A2362A0481I518I537I448H975I062I382I443I708A0645A1942A3179A4132
739A4849A5612A6527A7335A7977A8465A8881A9321A9753B0010B0253B0545B0760
726B0924B1066B1100B1199B1343B1418B1483B1596B1685B1802B1860B1920B2013
713B2107B2224B2317B2341B2336B2372B2383B2412B2507B2540B2491B2461B2531
700B2545B2524B2561B2544B2542B2598B2612B2578B2624B2652B2540B2439B2400
687B2370B2335B2353B2278B2111B2012B1991B1967B1818B1595B1401B1092B0641
674B0056A9350A8651A8115A7957A8217A8827A9485B0060B0582B1041B1538B1914
661B2105B2251B2289B2057B1450B0392A9212A9136B0440B1806B2639B3038B3161
648B3271B3289B3289B3352B3432B3483B3495B3441B3345B3266B3292B3297B3298
635B3278B3173B3078B2867B2511B1936B0976A9453A7323A5152A3915A4034A5182
622A6837A8465A9828B0797B1427B1887B2270B2552B2773B2827B2745B2643B2538
609B2452B2245B1679B0678A9190A7107A4885A3596A3887A5292A6963A8381A9314
596A9599A8984A7340A5864A5310A4232A2895A3453A5585A7650A9123B0091B0694
583B1143B1501B1686B1701B1662B1510B1286B1125B0911B0607B0314B0026A9697
570A9407A9171A9045A9148A9353A9787B0276B0658B0979B1373B1726B2001B2234
557B2446B2596B2727B2837B2971B3110B3185B3288B3342B3356B3389B3402B3218
544B3004B2738B2326B1573B0100A7554A4242A1306I595I377A0363A1899A3443
531A4830A5920A6684A7203A7572A7935A8211A8399A8533A8711A8938A9145A9375
518A9548A9642A9787A9902B0016B0033B0018A9975A9837A9756A9745A9698A9653
505A9584A9451A9384A9378A9302A9283A9405A9429A9509A9638A9693A9646A9693
492A9663A9623A9620A9635A9636A9647A9625A9555A9564A9561A9604A9698A9703
479A9755B0061B0697B1366B1592B1167B0512A9868A9340A9074A8840A8631A8532
466A8502A8459A8340A8229A8260A8373A8345A8303A8325A8265A8267A8285A8345
453A8386A8422A8433A8420A8507A8585A8579A8554A8581A8638A8634A8679A8699
440A8709A8728A8787A8866A8943A9041A9149A9184A9271A9396A9503A9593A9687
427A9776A9822A9970B0144B0289B0502B0733B0923B1156B1406B1419B1257B0865
414B0318A9849A9496A9182A8883A8717A8596A8475A8477A8489A8475A8485A8466
401A8500A8615A8734A8737A8738A8776A8807A8791A8814A8938A9063A9005A9032
388A9026A9038A9098A9003A8760A8580A8294A7693A7086A6852A7339A8358A9254
375A9889B0272B0462B0638B0869B0985B1070B1186B1217B1288B1367B1460B1508
362B1409B1456B1660B1889B2076B2150B2267B2347B2370B2392B2456B2617B2735
349B2644B2682B2844B2998B3049B3197B3265B3313B3439B3423B3352B3397B3351
336B3238B3136B2830B2312B1809B1295B0564A9429A7958A6388A4852A3634A2636
323A1970A1926A2295A2580A3095A3760A4441A5119A5678A6216A6615A7057A7586
310A8106A8411A8652A9161A9842B0107B0178B0460B0664B0751B0928B0965B0852
297B0578A9828A8519A7192A7194A8172A9059A9658B0383B0963B0972B0783B0625
284B0569B0415B0119B0144B0563B0971B1334B1704B1695B1555B1809B2262B2382
271B2364B2407B2604B2772B2929B2970B2969B2876B3015B3417B3491B3236B3233
258B3430B3306B3106B3172B3197B3220B3391B3290B3004B2964B3048B3137B2836
245B2349B1993B1596B1102B0955B0990B0507B0593B1015B1278B1448B0810A9804
232A9175A8937A8523A8190A7981A7837A7878A8060A7988A8033A8061A7468A7133
219A7239A7203A7024A6376A6622A6939A6879A7034A6938A6886A6986A6879A6616
206A6733A7215A7187A7093A7250A7483A7487A7659A7877A7839A7763A7759A7997
193A8285A8657A8813A8760A8758A9009A9182A9388A9098A8986A9348A9191A9069
180A9524A9577A9613A9958A9866A9719B0379B0664B0525B0229B0387B0902B1199
167B1156B0587B0237B0415B0540B0733B0757B0654B0858B0596B0284A9845A9465
154A9664A9098A8709A9260A9687A9640A9931B0228B0554B0959B0860B0798B1105
141B1137B1171B1744B2157B2277B2070B1986B2405B2509B2356B2614B3012B2981
128B2613B2502B2981B3581B3520B2725B2831B3509B3255B3014B3671B3869B3120
115B3318B4165B4453B3686B2880B2688B1391B0001A9584A9735A9909B1556B2063
102B2391B2665B2953B3064B3312B3868B4519B3696B2692B2851B3305B3153B3697
89B3403B1128A9984A9987A9478A9250A8228A8472A7566A8600A8436A8437A7719
76A8992A9120A9976B1278B1246B2037B0420A9110A6947A6415A4808A3822A3564
63A4237A4071A3626A4449A5579A6566A5268A5225A3183A7404B0372B1809B2591
50B1666B0233B0549B1459B1480B1804B1816B3136B0213A8751B1299B1720B1105
37B2008B1944B1960C2000B9982B3658B6191B6157B1202A8426A7007A6946A6990
24A7367A8544A8443B0510B1649A9185A7278B0220B1915B2490B3354B3256B4716
11B3789B1815B2663B5089B4422B2683B3606C0583C1734C1756B8907
$$ === CHEMSPECTRA INTEGRALS AND MULTIPLETS ===
##$OBSERVEDINTEGRALS= (X Y Z)

##$OBSERVEDMULTIPLETS=
##$OBSERVEDMULTIPLETSPEAKS=
$$ === CHEMSPECTRA SIMULATION ===
##$CSSIMULATIONPEAKS=
##END=


$$ === CHEMSPECTRA PEAK TABLE EDIT ===
##TITLE=4-NMe2-8-NH2-qu
##JCAMP-DX=5.00
##DATA TYPE=INFRAREDPEAKTABLE
##DATA CLASS=PEAKTABLE
##$CSCATEGORY=EDIT_PEAK
##$CSTHRESHOLD=0.93
##MAXX=4000.433
##MAXY=136.38750629419008
##MINX=249.7859
##MINY=27.439461422562367
##$CSSOLVENTNAME=- - -
##$CSSOLVENTVALUE=0
##$CSSOLVENTX=0
##NPOINTS=48
##PEAKTABLE= (XY..XY)
457.1371796348676, 69.80056845562346
479.318944433016, 87.40308098671737
520.7892003599895, 85.74938247290032
532.3622950372846, 73.27418775655362
559.3661826176394, 50.82991875201596
614.3383823347904, 71.82507050217785
636.5201471329387, 78.70411535089106
695.3500450758547, 77.69399538239972
731.033753664181, 82.18625887096461
764.7886131396244, 39.96580145376939
796.6146235021856, 81.17187679290157
817.8319637438931, 54.959902926986906
829.4050584211877, 57.94764173674401
851.5868232193366, 59.30725469011422
879.5551353561327, 81.55972876392566
894.9859282591924, 76.5347015788991
970.2110436616094, 38.25243340594862
1050.2582818462329, 72.17030137748502
1057.973678297763, 67.33280701361296
1097.5150851118538, 89.25283654083233
1120.6612744664435, 87.11325753584222
1143.8074638210337, 55.616267801027696
1185.2777197480073, 74.43774366962593
1195.8863898688605, 83.71635620720255
1217.103730110568, 82.85967218329216
1282.6845999485727, 86.8021235371086
1311.6173366418102, 56.66900886523598
1330.905827770635, 57.77289524430458
1367.553960915402, 61.557648543968355
1402.273244947287, 38.542256856823776
1417.704037850347, 62.175654431863904
1443.7435008742605, 70.58053450724337
1455.3165955515556, 58.56564762463956
1470.7473884546152, 60.257705124601856
1513.1820689380302, 27.439461422562367
1573.9408159938284, 55.93592601890471
1612.5177982514783, 69.24649421130331
2789.1157571097965, 83.52882338604803
2839.2658340447415, 82.49313076012653
2873.985118076477, 90.578352617629
2952.103507148367, 88.353531421205
2985.8583666236764, 93.34019962008634
3002.2535840831797, 95.13880985934097
3039.866141784393, 97.4531353567705
3168.1346077910957, 91.52880305211663
3221.177958395371, 90.5698283984856
3278.0790072255077, 77.68547116325634
3433.351360812548, 66.24170696325945
##END=


$$ === CHEMSPECTRA PEAK TABLE AUTO ===
##TITLE=4-NMe2-8-NH2-qu
##JCAMP-DX=5.00
##DATA TYPE=INFRAREDPEAKTABLE
##DATA CLASS=PEAKTABLE
##$CSCATEGORY=AUTO_PEAK
##$CSTHRESHOLD=0.93
##MAXX=4000.433
##MAXY=136.38750629419008
##MINX=249.7859
##MINY=27.439461422562367
##NPOINTS=100
##PEAKTABLE= (XY..XY)
3214.4269865003857, 90.7062159047798
3219.249109282592, 90.62097371334592
2873.9851180766263, 90.578352617629
3221.1779583954744, 90.5698283984856
318.2600435073282, 90.55277996019883
285.4696085883256, 89.95182251059005
481.2477935458983, 89.31250607483604
1097.5150851118538, 89.25283654083233
386.7341870146565, 88.64335487208017
2952.103507148367, 88.353531421205
403.1294044741576, 88.02961109375632
479.318944433016, 87.40308098671737
1120.6612744664435, 87.11325753584222
1282.6845999485727, 86.8021235371086
407.951527256364, 86.25231140236015
296.07827870917936, 86.23526296407337
413.7380745950113, 86.21821452578659
520.7892003599895, 85.74938247290032
332.72641185394696, 85.17399768072171
417.59577282077635, 84.04453864422294
725.2472063255332, 83.73340464548933
1195.8863898688605, 83.71635620720255
392.52073435330385, 83.70783198805916
721.3895080997686, 83.62258979662529
2789.1157571097965, 83.52882338604803
352.0149029827717, 83.46915385204433
714.6385362046799, 83.37112533189539
716.5673853175622, 83.34555267446522
398.30728169195163, 82.9619628130128
1217.103730110568, 82.85967218329216
2839.2658340447415, 82.49313076012653
731.033753664181, 82.18625887096461
1437.9569535356131, 81.90069752966114
879.5551353561327, 81.55972876392566
423.38232015942367, 81.27416742262221
796.6146235021856, 81.17187679290157
623.0182033427614, 81.09089671103939
624.9470524556441, 81.00139241003383
426.2755938287478, 80.92041232817165
628.8047506814091, 80.08930096169144
431.09771661095374, 79.94865134582555
288.36288225764974, 79.9188165788237
395.4140080226275, 79.73980797681257
676.06155394703, 79.42014975893557
678.9548276163537, 79.07918099320008
641.3422699151452, 78.7424743370363
638.4489962458215, 78.7424743370363
636.5201471329387, 78.70411535089106
270.03881568526594, 78.60608683074211
325.0110154024169, 78.57625206374026
682.8125258421187, 78.50805831059317
691.4923468500897, 78.00939149070503
689.5634977372074, 77.84743132698068
3280.972280894832, 77.7110438206865
695.3500450758547, 77.69399538239972
328.8687136281819, 77.68973327282802
3278.0790072255077, 77.68547116325634
464.8525760863972, 76.6668269756216
894.9859282591924, 76.5347015788991
467.7458497557209, 76.0232484302959
436.88426394960106, 75.69080388370381
323.0821662895346, 75.52031950083607
326.9398645152992, 74.86821673636696
1185.2777197480073, 74.43774366962593
266.1811174595009, 73.64072917971926
532.3622950372846, 73.27418775655362
460.9948778606322, 73.02272329182371
444.59966040113113, 72.85223890895597
273.896513911031, 72.22570880191704
1050.2582818462329, 72.17030137748502
451.3506322962198, 71.96998222761543
454.2439059655435, 71.94014746061357
614.3383823347904, 71.82507050217785
1411.9174905116997, 71.40738376415189
448.45735862689617, 70.8192126432582
1443.7435008742605, 70.58053450724337
457.1371796348676, 69.80056845562346
1612.5177982514783, 69.24649421130331
1057.973678297763, 67.33280701361296
3433.351360812548, 66.24170696325945
1417.704037850347, 62.175654431863904
1367.553960915402, 61.557648543968355
1470.7473884546152, 60.257705124601856
851.5868232193366, 59.30725469011422
1455.3165955515556, 58.56564762463956
307.65137338647446, 58.07550502389481
829.4050584211877, 57.94764173674401
310.5446470557981, 57.81125423044982
1330.905827770635, 57.77289524430458
1311.6173366418102, 56.66900886523598
301.86482604782714, 56.18739048363462
1573.9408159938284, 55.93592601890471
1143.8074638210337, 55.616267801027696
817.8319637438931, 54.959902926986906
559.3661826176394, 50.82991875201596
973.1043173309331, 40.566758903378165
764.7886131396244, 39.96580145376939
1402.273244947287, 38.542256856823776
970.2110436616094, 38.25243340594862
1513.1820689380302, 27.439461422562367
##END=

##END=

