##TITLE=JPK-927, X19792
##JCAMP-DX=5.0
##DATA TYPE=LINK
##BLOCKS=1


$$ === CHEMSPECTRA SPECTRUM ORIG ===
##TITLE=JPK-927, X19792
##JCAMP-DX=5.00
##DATA TYPE=INFRARED SPECTRUM
##DATA CLASS=XYDATA
##$CSCATEGORY=SPECTRUM
##ORIGIN=Angelika Moesle
##OWNER=
##XUNITS=1/CM
##YUNITS=TRANSMITTANCE
##XFACTOR=1.0
##YFACTOR=9.167998e-10
##FIRSTX=3997.453
##LASTX=373.96442
##MAXX=3997.453
##MAXY=0.9844062885780355
##MINX=373.96442
##MINY=0.2813309716372106
##NPOINTS=2559
##XYDATA= (X++(Y..Y))
2559A067851247A067447056A067374111A067505829A067677400A067923933A068168384
2552A068024314A067323725A066493434A066032941A065964937A066057971A066184618
2545A066257889A066162123A065884059A065566662A065476423A065885685A066749718
2538A067527283A067629485A067071406A066455271A066278043A066423739A066452215
2531A066245926A066137223A066492979A067318004A068209863A068680888A068614574
2524A068349903A068213244A068165849A067975814A067512850A066918299A066508647
2517A066429005A066543169A066775269A067301295A068138673A068850249A069110109
2510A069143982A069236496A069360153A069404752A069359762A069168557A068769372
2503A068347693A068197901A068253813A068169750A067827257A067442635A067311177
2496A067574353A068148620A068777174A069122722A069006282A068669901A068549625
2489A068713720A068851745A068820278A068794142A068911687A069035929A068961228
2482A068729519A068568869A068708194A069112710A069520021A069894631A070246941
2475A070187388A069410733A068221631A067215477A066749263A066815577A067354087
2468A068183143A068934572A069458648A069826952A070061131A070141098A070120814
2461A070082261A070121009A070401414A071052917A071688362A071601113A070960922
2454A070234588A069578209A069065900A068793882A068721197A068610933A068310895
2447A067999349A068047524A068554631A069216277A069696598A069834298A069642572
2440A069333757A069307621A069803742A070497114A070817892A070587548A070137393
2433A069904838A070012436A070231663A070117953A069633991A069220503A069029492
2426A068864422A068753444A068983593A069372895A069537770A069698029A070246291
2419A070817892A070837526A070240374A069258471A068259794A067687672A067837529
2412A068550406A069278104A069627814A069711617A069901848A070346412A070817957
2405A070939988A070583322A070063472A069754916A069770195A070031030A070346412
2398A070424103A070161253A069899182A069915500A069901327A069440835A068807275
2391A068784195A069559615A070265665A070252402A069875842A069963936A070901370
2384A071866435A071898487A071213761A070406680A069868625A069631845A069437064
2377A069168687A068869623A068431300A067552899A066580682A066589849A067618302
2370A068552291A068696622A068340216A068172090A068517444A069206590A069877467
2363A070102090A069688277A068895239A068100640A067575914A067703991A068716581
2356A069816224A070070753A069849576A069853672A070121659A070317351A070341016
2349A070330484A070261244A070048584A069828447A069785928A069810893A069547912
2342A068845438A068102786A067817895A067952149A068267205A068627902A068942504
2335A069171482A069362298A069588350A069853932A070010031A069972062A069896256
2328A069930714A070020173A070013606A069962635A069984155A070095199A070268200
2321A070444193A070518438A070436456A070277042A070177831A070218140A070376578
2314A070424624A069944432A069074872A068656248A068998351A069744319A070377294
2307A070590734A070471238A070226526A069840540A069259966A068700197A068498395
2300A068830420A069537900A069976288A069782547A069478153A069613966A070214304
2293A070776478A070724467A070229972A070092598A070542234A070968334A070658218
2286A069710057A069022926A069270889A070150135A070977111A071610735A072176030
2279A072491477A072277322A071655595A070979061A070493798A070377554A070694561
2272A071336637A072213673A073187710A073741823A073478257A072829419A072405009
2265A072287659A072234608A072205157A072350657A072547064A072412746A071874366
2258A071340603A071208365A071422781A071483178A071032633A070370012A069974013
2251A070017117A070328338A070540023A070421698A070202081A070474229A071488379
2244A072527170A072628006A071879438A071272599A071437604A072016032A072404424
2237A072424968A072123824A071654620A071374930A071538570A071932684A072196835
2230A072323807A072544009A072884941A073081023A072963413A072752963A072751793
2223A072828639A072599075A072125450A071928783A072202686A072530291A072561172
2216A072480425A072619230A072938447A073124582A073055927A072938447A072940398
2209A072907306A072659473A072320686A072024808A071655725A071195947A070962743
2202A071184375A071662681A072012066A071979234A071534474A070907741A070509272
2195A070612643A071082888A071538050A071745314A071701560A071435263A070894543
2188A070050274A069051142A068288400A068211879A068908047A069910559A070615049
2181A070830180A070809440A070872699A071138150A071528298A071887889A072052764
2174A071888734A071422390A070888887A070483851A070167104A069909389A069919726
2167A070355644A071025871A071529468A071602024A071328250A071066310A071042645
2160A071107399A071039654A070870033A070764451A070840712A071142571A071547412
2153A071807792A071866890A071946597A072198590A072501620A072634768A072496744
2146A072150025A071718203A071294118A071013389A071052917A071352956A071559765
2139A071492735A071414589A071531679A071541626A071068520A070344006A069978629
2132A070142139A070404339A070369297A070069193A069785538A069822141A070343811
2125A071148357A071751815A071894261A071767159A071619967A071355036A070740136
2118A069920246A069428612A069592967A070168534A070709189A071069105A071324415
2111A071414849A071193802A070773553A070497244A070515513A070668490A070848904
2104A071118451A071353216A071214606A070646971A070056710A069867780A070131931
2097A070609523A071060459A071405487A071619122A071607550A071380782A071177548
2090A071131389A071072226A070919119A070889537A071102653A071399376A071703445
2083A072105425A072489917A072560457A072335639A072190529A072274266A072275372
2076A071952643A071569452A071565876A072011155A072543684A072716555A072326928
2069A071539285A070732724A070182252A069886309A069717273A069688472A069962765
2062A070521689A070966124A070909432A070476245A070120294A070071729A070265340
2055A070627402A071099012A071489875A071599423A071486494A071425966A071557034
2048A071750320A071906938A072113747A072318281A072200541A071630305A070945124
2041A070560567A070584558A070892398A071295809A071621008A071819950A071947312
2034A072011220A072034235A072162963A072387780A072316070A071644218A070744231
2027A070349988A070695796A071337873A071717033A071559700A070911577A070115353
2020A069604409A069506109A069599078A069707521A069862904A070084146A070300642
2013A070495684A070692936A070823938A070753853A070440487A070024074A069736712
2006A069678590A069727740A069762263A069820385A069905878A069884359A069745879
1999A069679370A069707261A069550253A069025396A068324938A067789744A067591907
1992A067685072A067941551A068298087A068775613A069349230A069881693A070238359
1985A070377944A070303308A070040262A069698289A069439404A069310481A069160300
1978A068828795A068387286A068100120A068153301A068481491A068818327A068904796
1971A068726333A068554111A068658328A068996140A069258471A069203469A068888867
1964A068563408A068376949A068304913A068355299A068635574A069173238A069837223
1957A070412271A070636439A070374303A069869666A069559225A069564751A069663637
1950A069693543A069626514A069379462A068937627A068566724A068568479A068866373
1943A069028972A068680433A067828362A066851725A066178052A065986261A066266406
1936A066980452A067867371A068325003A067976984A067237322A066868368A067123027
1929A067665698A068080421A068167084A067954619A067636311A067395955A067243498
1922A067021801A066531206A065699745A064651333A063499028A062148431A060476016
1915A058551347A056533189A054553778A052801396A051427524A050303176A049134487
1908A047821794A046466646A045062153A043395069A041249483A038626956A035814394
1901A033285877A031451382A030468439A030290106A030832061A032064658A033987311
1894A036494373A039282620A041971526A044273340A046008364A047171721A048063580
1887A049083842A050324955A051555732A052514490A053077900A053335355A053583187
1880A054015334A054484864A054800896A055044698A055347857A055625011A055770122
1873A055902880A056243097A056835243A057462041A057817601A057771377A057432590
1866A056940760A056328980A055678712A055238894A055196050A055408450A055502005
1859A055172775A054369724A053285554A052098467A050593982A048240873A044851118
1852A040974930A037521331A035194097A034271356A034551436A035419760A036208573
1845A036533642A036188353A034911287A032552196A029345715A025687063A021600945
1838A016660546A010435343A002772557I93653591I83047758I70963252I57453903
1831I42512040I26077070I08251780H89550298H70929434H53585116H38689413H27087504
1823H18923525H13491167H09601716H06222753H02884749G99561894G96101274G91688527
1815G84931577G74562720G60151239G42304299G22264964G01227797F79918091F58664428
1807F37659117F17178793E97897258E81156853E68690391E61817977E60913180E65613613
1799E75284351E89166294F06317847F25639625F45959755F66111109F85059708G02033188
1791G16525480G28247664G37232182G43971839G49256616G53763633G57804696G61380716
1783G64422972G67115453G70019555G73696151G78192506G83124908G88224526G93513724
1775G99042823H04887044H11448888H19341694H28751597H39028395H48931883H57183370
1767H62853354H65440578H64690839H60381724H52348553H40651529H25533999H07215644
1759G85858284G61700648G35153626G06925086F78252763F51074066F27974921F11859493
1751F05298820F09708902F24819931F48815356F79036894G12708129G47292484G80641836
1743H11226541H38296599H61708071H81620890H98413826I12666607I24918719I35385097
1735I44033948I51001283I56815273I62048689I66849113I71067079I74772151I78321905
1727I81967749I85679582I89297145I92618376I95398171I97475492I98947665A000129876
1719A001282441A002415241A003445320A004464541A005705590A007305060A009224137
1712A011309715A013341657A015162498A016804292A018348110A019731213A020906598
1705A022079122A023481015A024985304A026224272A027026283A027500168A027786424
1698A027962351A028104342A028249322A028351394A028401910A028548906A029024547
1691A029912245A030992840A031870331A032267176A032177001A031794720A031348790
1684A030912418A030379305A029734953A029241758A029132730A029255606A029281742
1677A029154640A029078183A029108480A028959468A028305754A027187192A026008491
1670A025190878A024965085A025404318A026417233A027723361A029032349A030233609
1663A031348790A032400584A033393995A034307634A035083574A035695158A036168199
1656A036468498A036452569A036013401A035208660A034239694A033402642A033022896
1649A033287437A034133722A035363003A036783620A038187982A039359792A040243914
1642A040997554A041766278A042453994A042774772A042543908A041939475A041432497
1635A041377040A041690927A041997857A042023277A041788252A041517470A041476966
1628A041848130A042599560A043475946A044208976A044746316A045177292A045489423
1621A045570366A045455096A045358681A045411602A045530772A045590390A045565164
1614A045484547A045381110A045287360A045193936A045061437A044930955A044910085
1607A045009036A045139259A045300883A045578232A045898620A046023057A045889453
1600A045757800A045873980A046189947A046537706A046829683A046981100A046936436
1593A046890796A047174126A047839022A048627445A049280573A049622611A049526651
1586A049091773A048686087A048596043A048762218A048956155A049057966A049065118
1579A048921242A048483959A047759705A047083562A046870837A047179002A047680129
1572A048060264A048281636A048436044A048549688A048631671A048770865A049067913
1565A049540889A050129914A050697354A051099400A051387411A051739071A052074412
1558A052099767A051865717A051827944A052216922A052789304A053261954A053605292
1551A053901625A054199128A054511714A054865584A055328483A055887211A056302715
1544A056301739A055899759A055351238A054902122A054729966A054897766A055245460
1537A055548945A055818492A056195637A056577203A056646703A056316628A055878890
1530A055631317A055587173A055641719A055745611A055826684A055827659A055869593
1523A056057743A056177953A055953070A055513837A055263339A055394017A055801393
1516A056301284A056699299A056785377A056515115A056169306A056146356A056535529
1509A057043417A057391761A057577180A057664494A057608582A057422252A057303212
1502A057475239A057995869A058688331A059186142A059194659A058819464A058507008
1495A058529373A058667267A058516305A057981046A057331688A056863914A056657300
1488A056608670A056600543A056654764A056883873A057229682A057433370A057408404
1481A057390005A057522569A057596294A057393581A057041402A056837518A056895641
1474A057106675A057340855A057544283A057645965A057554621A057354183A057311794
1467A057540252A057846207A058026686A058115105A058232845A058369178A058374185
1460A058148197A057823973A057676781A057817731A058137144A058566105A059166118
1453A059933736A060734901A061410784A061788385A061691514A061151119A060513139
1446A060115384A059896353A059535916A058954108A058452201A058333681A058538800
1439A058705495A058564935A058261126A058193706A058497386A058872190A059021787
1432A059030954A059165012A059439696A059548854A059258502A058797229A058669347
1425A059043502A059549634A059680442A059183021A058155998A057005839A056182764
1418A055800093A055659793A055661093A055902620A056354856A056747799A056899346
1411A056959354A057183067A057512557A057566973A057182416A056678885A056353946
1404A056136279A056004886A056199603A056715747A057040361A056691042A055830129
1397A055104705A054910899A055117708A055413196A055615649A055648611A055389986
1390A054807592A054189376A053963388A054316023A054995287A055452984A055327573
1383A054809087A054242817A053563943A052642437A051875144A051799338A052363398
1376A053063727A053652882A054240022A054866690A055471253A056071981A056650864
1369A057028529A057121564A057187293A057593174A058390373A059234317A059687854
1362A059545733A058954563A058299744A057910246A057797772A057701552A057411655
1355A057032560A056862614A057014096A057276036A057434930A057520618A057562877
1348A057368681A056832317A056275929A056207144A056819054A057857585A058931158
1341A059897848A060853616A061752367A062324879A062447104A062280019A062014893
1334A061815950A061892927A062301669A062852140A063368870A063691859A063466456
1327A062544950A061521243A061135711A061206316A060888138A059943033A059074708
1320A059039991A059996474A061568963A063082159A063923308A063962251A063428618
1313A062504187A061389460A060450205A059935166A059884065A060349239A061175759
1306A061732538A061448297A060454366A059500744A059508936A060876436A062729719
1299A063511250A062869629A062242441A063115121A065350686A067581765A068789591
1292A069142811A069364703A069697444A069812714A069498697A069005957A068675232
1285A068501775A068206287A067708347A067232511A066849449A066357360A065843621
1278A065669384A065657681A065199399A064326134A063615533A062933148A061367095
1271A058843324A056959224A057429729A059977035A062501066A063553834A063819546
1264A064655688A066218685A067844746A069261787A070342706A070448679A068942309
1257A066022864A062895180A060989885A060525881A060264266A059406149A059040056
1250A060559754A063295535A065011899A064557908A062944330A061744630A061394726
1243A061460975A061686638A061939802A061752757A060876111A059939652A059732907
1236A060042049A059901164A058810167A057127935A055484126A054395145A054287937
1229A055284598A056905523A058315152A058910483A058594386A057725672A057006879
1222A057084311A057864671A058374445A057752393A056381186A055512082A055678322
1215A056181464A056351345A056346794A056341073A055930055A054948087A054148742
1208A054458988A055828244A057188073A057593824A057261928A057201270A057918373
1201A058952937A059584807A059434235A058594646A057727102A057627436A058233170
1194A058500376A057633742A055962692A054524067A054237681A055323412A057086066
1187A058390633A058603163A058019989A057399173A057079240A056391393A054209465
1180A050469416A046863685A045564514A047200457A050363378A053114828A054653900
1173A055534512A056660291A058325619A060164340A061632807A062351924A062261425
1166A061857559A062114884A063572819A065423437A066099125A065209671A064482492
1159A065789984A068320387A068949980A066039247A061945653A060425240A062337361
1152A065371556A067104368A066933837A065668734A064200982A062790442A061521308
1145A060702784A060272198A059591113A058550892A057961282A058442579A059831859
1138A061378147A061973284A060946976A058940260A057144643A055820117A054557939
1131A053523049A053322937A054221883A056003976A058039233A059287043A058749704
1124A056299269A053030375A050646839A050262282A051530506A053098704A053929451
1117A054049921A054108369A054389683A054491690A053942518A052811148A051652927
1110A051005195A050762563A050002097A048024572A045484027A043814538A043939819
1103A045693502A048015015A049550706A049470284A048119232A046678591A045916954
1096A045513739A044808599A043853545A043276743A043322578A043560334A043454101
1089A043009407A042695325A042932430A043838008A045159933A046296245A046723060
1082A046581070A046507084A046832284A047281269A047463438A047318457A047100531
1075A047139084A047531052A048093291A048643503A049084752A049342792A049543294
1068A049949435A050515381A050873867A050833818A050536510A050184655A049901650
1061A049707454A049523660A049369577A049455721A049845673A050118731A049773183
1054A048893351A047935958A047227047A046762004A046201780A045184314A043736261
1047A042180351A040613388A038752888A036391326A033810993A031640377A030408236
1040A030356810A031430058A033071526A034548445A035597508A036297251A036784075
1033A037198343A037590766A037925977A038225171A038454734A038301237A037523607
1026A036415121A035575598A035343174A035578914A035998968A036395877A036645660
1019A036819377A037188071A037962450A039097981A040363215A041556933A042595854
1012A043430891A044061720A044584171A045059682A045360370A045322858A045034977
1005A044775572A044743650A044914181A045063193A045040243A044953970A044910800
998A044854759A044719140A044569348A044490941A044418061A044228546A043940860
991A043690296A043576132A043595831A043615075A043465739A043158288A042826328
984A042538252A042285023A042097263A042104805A042384104A042768661A042965002
977A042792131A042340480A041872380A041545101A041335236A041136554A040897238
970A040621970A040291179A039899991A039531818A039258045A038968929A038540293
963A038189217A038378148A039150837A039585000A039154738A038357019A037642517
956A037045040A036399843A035618702A034790621A034086782A033679535A033794350
949A034508331A035323149A035742879A035887404A036092653A036480720A036919563
942A037249248A037406127A037417894A037549352A038382959A040147044A041883368
935A042789920A042963247A042557886A041869585A041389978A041406946A041781361
928A042262723A042936981A043807905A044141427A043637049A042904734A042454124
921A042450678A042725686A042893682A042815666A042722436A042757153A042718275
914A042451783A042216888A042327607A042779843A043199832A043324334A043273883
907A043225513A043290982A043572361A043873245A043632564A042978525A042226640
900A041249288A039716652A037705320A035609080A033622843A031816435A030251683
893A028921955A027624930A026112839A024484698A022857532A021167043A019482926
886A018160480A017616314A018152873A019818657A021978871A023728457A024635205
879A024101181A020873441A014491166A005748044I95594318I86154378I81181212
872I83252097I91080929A001014064A010063920A016976773A021664789A024547891
865A026303394A027559526A028548451A029184936A029358003A028987034A028022749
858A026454616A024180823A021029149A016917026A011898805A006141508I99261551
851I88543635I68886321I40918877I14840019H97734366H93274354I04298225
844I23848527I39377855I46959310I48752260I46730006I38803328I14684116
837H71490893H37072844H22010641H20123420H30081585H51203335H78687077
830I04932175I25527313I41503546I54996056I66391936I76153824I84619727
823I89995004I92640155I94960563I98634103A003574372A008094847A011487073
816A014409768A017189239A019353288A020618457A021321321A021787925A022092255
809A022292107A022513219A022816184A023049778A023022602A022727375A022226378
802A021390236A019657358A016615102A013040513A009308915A004744426I97988971
795I86655960I67659771I41528901I14353456H90953426H72860604H61674329
788H57739498H56676132H54977126H54742687H60015371H71946510H86435357
781H96660338H97742168H87913511H67677509H41658853H20937718H12869245
774H12912609H13602730H10205174H02589912G96832029G98778932H09093243
767H27074761H51488876H74359172H87885750H94915303H99649608I03578132
760I06957875I09463052I10232881I08457744I03744178H96340990H87716194
753H79983322H74562536H71587374H70128009H69570320H70003377H70898618
746H70374281H66125889H55870026H37006140H09010025G74189281G32142251
739F80570504F28986080E95650901E85976067E96452262F23902976F63646436
732G08424175G52130356G92560102H28886046H58290230H78453027H90318111
725H95526367H94247546H85748421H70131585H51257817H36112981H28696921
718H28433160H32510370H36207901H34685862H27153363H17011859H08598488
711H03461812G98267014G87611316G69890048G50661824G38138085G34317028
704G35504505G38807077G43579090G49076203G53877797G58331633G66524868
697G82662595H05505586H28253266H42708111H45149705H39438437H33149716
690H31036508H32725566H35764181H39333114H43852094H48042494H47891987
683H38415900H17229916G87265312G55114815G28185121G13462615G14903646
676G29851035G49280151G63027970G65275693G56189103G40113724G22545564
669G07697515F97388861F90735348F84692315F76089558F64281361F52307378
662F45163401F46687715F57733885F76281869F98920001G22425158G44232674
655G62419116G76104457G85421326G90301847G89656520G82744902G71337905
648G59460468G50281494G43393671G35653257G25041053G13639972G06566015
641G07675606G16114528G27068769G35753703G40777775G44442344G50599346
634G61983328G78523166G97361956H14232064H25024421H26484696H16037107
627G92350237G57716993G19573587F87622682F68145066F60750201F60516671
620F63270136F68853457F79779937F97307334G18966033G39849898G56190468
613G67378954G74699379G78991785G79978955G77297916G71611483G64882164
606G59873240G58875148G61702469G64272075G59933833G43949539G18099139
599F91130112F73865371F72386762F84502150G02224003G17821595G28098523
592G33987863G37545484G40411097G44282280G50320892G57189991G61725354
585G63084857G65020383G72790183G88496219H09883160H32545543H52591120
578H68152369H79539538H88240335H95660296I02577700I09243435I15547239
571I21185756I25972073I29993502I33386897I36067742I37801400I38478844
564I38261243I37500386I36484935I35167561I33104347I29602899I23766675
557I14300989H99282540H76341833H43965608H03866848G62266074G27650968
550G06177688F98954394G03339575G15850247G33229802G51366054G64540061
543G67060062G56728848G37078425G15650069F99584898F92554695F94463760
536G01954456G09338204G11775701G09224235G06290487G07345856G12571861
529G19027276G24153160G27208419G28063675G25831751G18809155G05227381
522F84080210F55828526F22661732E87885847E54717039E25376601E00997984
515D82087093D68964283D61896243D60985204D65952746D76011878D90001386
508E06656623E24795475E43468025E62085118E80336769E97976250F14801823
501F30797625F46110652F60841155F74873865F87889174F99564028G09852073
494G19033973G27430636G35102200G41896923G47754147G52854090G57431192
487G61554302G65206193G68477883G71519749G74365013G76970246G79377057
480G81682512G83893761G85937600G87766959G89339448G90565478G91417159
473G92023088G92530715G92948039G93210500G93286176G93065454G92081405
466G89427151G84450800G78121576G73418282G73338315G78105842G84780225
459G89739608G91114910G88937988G83992387G77102029G68713168G58128140
452G43165017G21263231F91806516F58501763F29732634F14768861F17468300
445F33457665F54021532F72357831F86172159F96116671G03507896G09364534
438G14375669G18971300G23161764G26127629G25991165G20607632G09316424
431F93641661F75212197F53136694F25653017E96243047E76614404E79771734
424F08354339F51367538F93342272G25177257G46098115G58879179G66219758
417G70490190G74198252G79564557G87486879G96744780H04413744H07538503
410H05063297G99081182G94376652G95531103H03388866H14335891H22975316
403H25376276H20882326H12451271H05236949H03432816H07628222H15126654
396H22536733H27855642H30757013H31914194H32273720H32434044H32229641
389H30820077H27354841H21795250H15226060H09343546H05540758H04300880
382H05262824H07882296H12209419H18981778H28714669H40685272H53013905
375H63760752H71918554H77581647H81419606H83998314H85543888H86252343
368H86532813H86724993H86752494H86336991H85493892H84581878H83869912
361H83295775H82681980H81760019H79596165H74422951H64976380H52273007
354H39559427H30151994H25184420H22979737H20022194H12444769G97344923
347G74273994G46709440G21337802G03926325F95144325F90850813F86080620
340F78116104F66650854F52640379F37370976F21836967F06275783E89996066
333E71662562E49988845E24460524D95699261D65469661D36579964D12724578
326C97940959C95459024D06488811D29764567D62014048D99036322E36926953
319E72811551F04731315F31083621F50380629F61708049F65553551F64207765
312F61176366F59876350F62487435F69591753F80504711F93708690G07143013
305G18896859G28499918G37468638G47855113G60112946G72733491G83693974
298G91694053G96264978G97283095G94310598G86235494G71765111G50230718
291G21807657F87536279F49678350F11473767E75655580E43347749E15028711
284D92261396D77194674D69200804D62116737D46527661D16737815C76317042
277C36891304C11370590C06861947C20582233C40097460C50142613C45437141
270C39193541C54501204D03141185D74200105E44635933E98076957F32234560
263F52889186F65869518F74231984F79397591F83011058F87458458F94467206
256G03450749G11965997G18011566G21429537G23153443G23796104G23256880
249G21433632G19023766G17433528G17833168G20339580G24088666G27922335
242G30940016G32703906G33080921G31551081G26714314G17484044G05697171
235F96816350F96022011G02958139G12108767G19262821G25927127G36088655
228G50172985G64485580G75992568G84952836G91980504G94363130G87719044
221G72003191G54068873G42757641G42140660G50289555G63110213G77375932
214G90979876H02173823H09339710H11505515H07888797G97433992G82678913
207G69565174G59558639G51973543G47981435G49556915G57288291G70131184
200G85915171H01927486H16140869H27992041H37847939H46124782H53039845
193H58565238H62487976H65011617H66937131H68841711H70658457H72166322
186H73137368H72839735H69984588H63904887H56131447H50161814H48867649
179H51979340H55974438H56911417H54350067H51965817H53421866H57519621
172H55770880H35002025G89204024G31898125F87271153F63943354F50854384
165F44284089F59113478G03916963G62968743H12843434H44223128H61561855
158H71688925H78667767H84365707H89226140H92800989H94809070H95860473
151H96810325H97696658H97941825H97240456H95689747H93686347H91999954
144H91231360H91184030H91216667H90923065H90357250H90105711H90898425
137H92467598H93070081H90870014H86119520H81664839H80435038H82297293
130H84269617H83497383H78286331H66600230H47156291H24236258H08531328
123H09014186H24373568H45130005H62857840H74577749H80725584H82947366
116H83224845H82764222H81637013H79961412H78667442H78464534H78533839
109H76875792H72080113H64673806H56882746H51884810H52770493H60090917
102H70318564H78716333H83501284H85955750H87823402H89579880H90615550
95H90353999H88602657H85053944H79348137H71273682H59677040H41884256
88H16076376G84324673G52479870G27359381G14276197G14652757G24616448
81G37982702G51430808G66044156G82814532G97530667H02931624G96460995
74G85099247G80888498G90639334H10800440H31423665H45359049H52291731
67H55079263H57191107H61667697H69160864H77760500H85440776H91627555
60H96303933H99251724I00628521I00938052I00703222I00544718I00182396
53H96947894H87461340H72856573H60795147H59132549H67697078H79863956
46H90364401H97729295I02055314I03415663I02295020I00159836H98759439
39H98961177I00402987I01906562I02620544I03306830I05531212I08868826
32I10080358I07815472I03680204H98799878H93722754H88587119H82547726
25H75165279H67858637H61917350H56358150H49857159H43387830H39254513
18H38115211H39286955H43877970H52060217H60389591H65728590H68604410
11H70546308H70456459H66054634H58090248H49857809H42665267H35820808
4H28819147H21921507H16632504H14588015
$$ === CHEMSPECTRA INTEGRALS AND MULTIPLETS ===
##$OBSERVEDINTEGRALS= (X Y Z)
(8.74322179615814, 8.815060887700108, 0.9999999999999999)
(8.657414022247265, 8.74322179615814, 1.0328803440356027)
(8.439901247176119, 8.50774927264498, 0.986526862447095)
(8.348106857859932, 8.439901247176119, 1.0261754663358988)
(8.06474162294778, 8.150549380563003, 3.024527530345064)
(8.02083996132624, 8.06474162294778, 1.0391667632165458)
(7.96296960104014, 8.02083996132624, 1.0684254646320825)
(7.759425557224858, 7.819291483138816, 1.048603207273278)
(7.651666968798866, 7.759425557224858, 4.198128522650617)
(7.575836778592487, 7.641689205842187, 1.1392028842287423)
(7.488033455349408, 7.575836778592487, 1.2020064199987681)
(4.489504535233888, 4.620632744922196, 2.0469757171384004)
(3.4123799911626795, 3.623121834584928, 2.205970871470548)
(2.9112830147709383, 3.009629085990497, 3.0115035200948976)
(1.8435248615358883, 1.993385585195746, 2.090457237492229)
(1.337744498511237, 1.5484864949053518, 4.38457155708828)
(1.0567556798919695, 1.3096457084324296, 15.582886137028094)
(0.7664003939506122, 0.9162611176104707, 10.081527850663567)
(-0.08124975448383143, 0.0498783404755786, 6.527682325920671)
##$OBSERVEDMULTIPLETS=
##$OBSERVEDMULTIPLETSPEAKS=
$$ === CHEMSPECTRA SIMULATION ===
##$CSSIMULATIONPEAKS=
##END=


$$ === CHEMSPECTRA PEAK TABLE EDIT ===
##TITLE=JPK-927, X19792
##JCAMP-DX=5.00
##DATA TYPE=INFRAREDPEAKTABLE
##DATA CLASS=PEAKTABLE
##$CSCATEGORY=EDIT_PEAK
##$CSTHRESHOLD=0.93
##MAXX=3997.453
##MAXY=0.9844062885780355
##MINX=373.96442
##MINY=0.2813309716372106
##$CSSOLVENTNAME=- - -
##$CSSOLVENTVALUE=0
##$CSSOLVENTX=0
##NPOINTS=48
##PEAKTABLE= (XY..XY)
398.0454621657541, 0.7683838578217578
429.2091637920248, 0.8239824739233123
441.95795082095356, 0.7876525490966902
475.95471623143067, 0.7159184187887004
491.5365670445658, 0.6548482745543606
521.2837367787329, 0.781007823431038
548.197842728694, 0.7412613598041344
559.5300978655196, 0.8071826667513924
606.2756503049254, 0.5906795239383822
620.4409692259574, 0.7810820906324366
627.5236286864733, 0.7782416908296702
661.5203940969504, 0.6857492300117131
681.3518405863952, 0.680394408659868
704.0163508600467, 0.6381128404803978
722.4312654573882, 0.6577429149836944
755.0114989757622, 0.3109725705500918
762.0941584362781, 0.2813309716372106
813.0893065519936, 0.60497450570473
832.9207530414383, 0.3625567541113952
915.0796027834244, 0.7373828859238241
937.7441130570755, 0.7365870450222368
950.4929000860043, 0.7282843556782697
975.9904741438622, 0.5286399702643192
1005.7376438780293, 0.5636199688110278
1026.9856222595777, 0.708996412524337
1097.8122168647378, 0.42263114283015923
1126.1428547068022, 0.6475269772235026
1134.6420460594213, 0.634934005865061
1150.2238968725565, 0.6408012486283212
1218.2174276935102, 0.6164440489242476
1229.5496828303358, 0.6957365839113704
1252.2141931039873, 0.6055615518694658
1281.9613628381544, 0.647779581238797
1310.2920006802187, 0.5914856770041198
1332.9565109538698, 0.654102382739477
1349.9548936591086, 0.7618941043270984
1371.2028720406565, 0.6732217044069944
1389.617786637998, 0.759507355401368
1415.115360695856, 0.5372227410303866
1433.5302752931975, 0.797221895461936
1463.277445027365, 0.7305354448207942
1470.360104487881, 0.745238361242151
1484.525423408913, 0.7836279244930626
1553.93548612197, 0.751888987431316
1570.9338688272087, 0.8189537490923292
1609.180229913995, 0.8995467389253576
2852.8952311806097, 0.554937837116236
2923.7218257857703, 0.514245091241364
##END=


$$ === CHEMSPECTRA PEAK TABLE AUTO ===
##TITLE=JPK-927, X19792
##JCAMP-DX=5.00
##DATA TYPE=INFRAREDPEAKTABLE
##DATA CLASS=PEAKTABLE
##$CSCATEGORY=AUTO_PEAK
##$CSTHRESHOLD=0.93
##MAXX=3997.453
##MAXY=0.9844062885780355
##MINX=373.96442
##MINY=0.2813309716372106
##NPOINTS=51
##PEAKTABLE= (XY..XY)
1609.180229913995, 0.8995467389253576
429.2091637920248, 0.8239824739233123
1570.9338688272087, 0.8189537490923292
575.1119486786547, 0.817037340467194
569.4458211102419, 0.8160487378236578
559.5300978655196, 0.8071826667513924
529.7829281313525, 0.8053761090782933
1433.5302752931975, 0.797221895461936
441.95795082095356, 0.7876525490966902
1484.525423408913, 0.7836279244930626
620.4409692259574, 0.7810820906324366
521.2837367787329, 0.781007823431038
627.5236286864733, 0.7782416908296702
398.0454621657541, 0.7683838578217578
1349.9548936591086, 0.7618941043270984
1389.617786637998, 0.759507355401368
1553.93548612197, 0.751888987431316
1470.360104487881, 0.745238361242151
548.197842728694, 0.7412613598041344
915.0796027834244, 0.7373828859238241
937.7441130570755, 0.7365870450222368
1463.277445027365, 0.7305354448207942
950.4929000860043, 0.7282843556782697
475.95471623143067, 0.7159184187887004
1026.9856222595777, 0.708996412524337
1229.5496828303358, 0.6957365839113704
661.5203940969504, 0.6857492300117131
681.3518405863952, 0.680394408659868
1371.2028720406565, 0.6732217044069944
722.4312654573882, 0.6577429149836944
491.5365670445658, 0.6548482745543606
1332.9565109538698, 0.654102382739477
1281.9613628381544, 0.647779581238797
1126.1428547068022, 0.6475269772235026
1150.2238968725565, 0.6408012486283212
704.0163508600467, 0.6381128404803978
1134.6420460594213, 0.634934005865061
1218.2174276935102, 0.6164440489242476
1252.2141931039873, 0.6055615518694658
813.0893065519936, 0.60497450570473
1310.2920006802187, 0.5914856770041198
606.2756503049254, 0.5906795239383822
1005.7376438780293, 0.5636199688110278
2852.8952311806097, 0.554937837116236
1415.115360695856, 0.5372227410303866
975.9904741438622, 0.5286399702643192
2923.7218257857703, 0.514245091241364
1097.8122168647378, 0.42263114283015923
832.9207530414383, 0.3625567541113952
755.0114989757622, 0.3109725705500918
762.0941584362781, 0.2813309716372106
##END=

##END=

