##TITLE=PHOS-12.F2
##JCAMP-DX=4.24
##DATA TYPE=INFRARED SPECTRUM
##DATE=23/8/2021
##SAMPLING PROCEDURE=Diamant-ATR
##ORIGIN=Angelika Moesle
##XUNITS=1/CM
##YUNITS=TRANSMITTANCE
##RESOLUTION=4
##FIRSTX=3997.453
##LASTX=373.96442
##DELTAX=-1.4165319
##MAXY=1.0061532
##MINY=0.10158174
##XFACTOR=1
##YFACTOR=9.3705321e-010
##NPOINTS=2559
##FIRSTY=0.98319113
##XYDATA=(X++(Y..Y))
3997+1049237245+1049741534+1049795920+1049244051+1048421401+1047854649
3989+1047719035+1047829332+1048080396+1048539650+1049093617+1049371269
3980+1049128538+1048455241+1047614971+1046965846+1046923610+1047599833
3972+1048546265+1049167085+1049306897+1049295829+1049525456+1050046156
3963+1050483401+1050399184+1049871105+1049473551+1049512225+1049677926
3955+1049667557+1049735173+1050266432+1051100532+1051640251+1051576070
3946+1051189075+1050861936+1050665004+1050457195+1050165804+1049928480
3938+1049948898+1050223497+1050471252+1050474242+1050477231+1050942846
3929+1051798954+1052448080+1052473842+1051898502+1051057278+1050352495
3921+1049955959+1049771303+1049664759+1049687149+1050026564+1050746614
3912+1051655199+1052376457+1052615943+1052459530+1052312276+1052522311
3904+1052990916+1053095616+1052415831+1051368579+1050604130+1050187367
3895+1049840382+1049574752+1049704832+1050277564+1050746296+1050793557
3887+1050782616+1051136980+1051685540+1051956895+1051892205+1051603867
3878+1051086347+1050542557+1050414004+1050865753+1051371886+1051306815
3870+1050935277+1051071018+1051811931+1052484210+1052444709+1051685095
3861+1050930633+1050743561+1051046783+1051404772+1051284234+1050457195
3853+1049929879+1050855766+1052216863+1053038304+1053342481+1053483883
3844+1053698180+1053871704+1053679098+1052994796+1052057587+1051283916
3836+1050920202+1050942655+1051318646+1052007018+1052708557+1053015215
3827+1052888506+1052708494+1052811158+1053147202+1053319327+1052677008
3819+1051091754+1049450525+1048873595+1049748913+1051192574+1052314884
3810+1052932905+1053010126+1052486373+1051686176+1051263434+1051491789
3802+1052160697+1052653282+1052468626+1051896848+1051525756+1051589873
3793+1051771157+1051713655+1051469907+1051331177+1051502348+1051988254
3785+1052479694+1052348024+1051322717+1050002966+1049256073+1049156144
3776+1049128793+1049085539+1049338955+1049856093+1050142459+1049737590
3768+1048816792+1048184205+1048570500+1049873904+1051185895+1051733628
3759+1051414377+1050615707+1049721943+1048937712+1048502884+1048640151
3751+1049217081+1049746178+1050194173+1051007854+1052399102+1053646975
3742+1053556587+1052396048+1051282453+1050934959+1051448662+1052284097
3734+1052852758+1053139824+1053247768+1053152991+1052857529+1052294338
3725+1051380791+1050417694+1050031208+1050418521+1051116243+1051606666
3717+1051781526+1051771603+1051645467+1051312603+1050654636+1049867606
3708+1049290740+1048953296+1048769913+1048670556+1048517641+1048259327
3700+1048146421+1048361991+1048738935+1049094953+1049357974+1049319746
3691+1048728694+1047867752+1047554480+1047846825+1048081668+1048066720
3683+1048018568+1048203796+1048732829+1049354539+1049434241+1048301054
3674+1046276837+1044607620+1043698463+1043364390+1043358475+1043207086
3666+1042565403+1041509754+1040378539+1039518296+1039043712+1038829288
3657+1038733620+1038724079+1038765870+1038722489+1038422256+1037795075
3649+1037078715+1036595608+1036177382+1035621124+1035010227+1034541496
3640+1034296348+1034052727+1033503403+1032723562+1032158463+1032060442
3632+1032172457+1032030292+1031333905+1030454261+1030274058+1030928145
3623+1031987992+1032953125+1033466637+1033466447+1033037661+1032237528
3615+1031258338+1030510746+1030207841+1029956524+1029220636+1028001513
3606+1026726288+1025600925+1024533573+1023553618+1022926883+1022884074
3598+1023311842+1023804045+1023953780+1023687133+1023324373+1023131385
3589+1022939096+1022262555+1021001132+1019908209+1019403221+1019026531
3581+1018256167+1017129404+1016117455+1015512155+1015207025+1014981596
3572+1014694467+1014243863+1013487557+1012286500+1010860077+1009921341
3564+1009701891+1009720083+1009642099+1009513610+1009367628+1008960978
3555+1008046414+1006701219+1005279503+1004110822+1003272397+1002654440
3547+1002160901+1001792098+1001557700+1001287809+1000700574+999741993+998686662
3537+997847092+997333199+997082199+996879224+996396944+995558264+994792989
3527+994564507+994741021+994839805+994686890+994503443+994449884+994358606
3517+994017537+993492066+992922260+992203419+991225946+990221884+989465323
3507+988831973+988091378+987365349+986934973+986756360+986540791+986278787
3497+986287692+986726655+987250345+987274007+986537865+985327584+984196623
3488+983469195+982998682+982472321+981825040+981253071+980950612+980913211
3478+980941580+980850238+980692425+980684220+980869003+981015557+980872692
3468+980369484+979666164+979155132+979230636+979878171+980627417+981017783
3458+980933947+980455674+979697141+978884796+978348830+978247310+978383624
3448+978411484+978174288+977735579+977164756+976601120+976447505+977011968
3438+977941099+978492712+978438518+978260668+978367721+978577185+978569043
3428+978392783+978244194+978113796+977968259+978015012+978515103+979411475
3418+980280559+980670735+980499691+980109198+979872129+979885359+980141320
3408+980632188+981156831+981473093+981745529+982346440+983151406+983556212
3398+983299805+982882278+982969104+983627517+984416581+985039373+985550850
3388+986030713+986457463+986829319+987087252+987068997+986819714+986713488
3378+987000108+987427240+987570932+987452811+987545043+988146399+989073113
3369+990069732+991122391+992185164+992993947+993380624+993470884+993459753
3359+993468785+993649943+994199584+995150597+996219348+996971520+997198094
3349+997067887+996882341+996798823+996885712+997288418+998116475+999175749
3339+1000023461+1000376043+1000350981+1000284701+1000424577+1000771562
3330+1001122935+1001328518+1001508340+1001854752+1002277304+1002472010
3322+1002288690+1001878924+1001536964+1001419479+1001419797+1001421323
3313+1001570358+1002037945+1002659656+1003134112+1003421114+1003670714
3305+1003943659+1004224936+1004543488+1004914835+1005261184+1005493610
3296+1005613448+1005641563+1005521343+1005217230+1004877115+1004758358
3288+1005000961+1005552766+1006260284+1006935044+1007417134+1007691732
3279+1007883894+1008005259+1007838477+1007304483+1006823666+1006926775
3271+1007555292+1008136865+1008358032+1008511583+1008990683+1009692795
3262+1010163626+1010207643+1010032274+1009817786+1009584724+1009562588
3254+1010171641+1011384911+1012550475+1013102025+1013140381+1013158573
3245+1013476871+1014062961+1014647842+1014913662+1014824928+1014795032
3237+1015241437+1016047040+1016770779+1017186461+1017288744+1017093402
3228+1016772178+1016686561+1017062806+1017828145+1018731387+1019388464
3220+1019392980+1018723308+1017964013+1017865992+1018643352+1019810061
3211+1020762219+1021344873+1021724807+1021998579+1022156392+1022208487
3203+1022201172+1022260901+1022564377+1023101170+1023630012+1024007211
3194+1024312533+1024604242+1024857468+1025161898+1025654165+1026223081
3186+1026570066+1026642516+1026749505+1027121488+1027597408+1027906291
3177+1028031728+1028119762+1028207923+1028245643+1028238646+1028216065
3169+1028176628+1028183689+1028367072+1028706678+1028982358+1029059388
3160+1029028983+1028961431+1028781609+1028469418+1028148259+1027936951
3152+1027907882+1028092219+1028383801+1028605414+1028755721+1028992917
3143+1029353196+1029688477+1029864482+1029879239+1029824663+1029799919
3135+1029823709+1029830134+1029774794+1029726770+1029795276+1029981013
3126+1030124196+1030029038+1029653620+1029193984+1028966074+1029143542
3118+1029614882+1030121397+1030473344+1030569266+1030352360+1029882165
3109+1029319420+1028758074+1028204807+1027705479+1027317149+1027014308
3101+1026772786+1026628458+1026517143+1026201835+1025511428+1024583823
3092+1023739737+1023112620+1022477552+1021447919+1019834487+1017873625
3084+1016211405+1015610240+1016428564+1018293760+1020403657+1022161671
3075+1023393770+1024116236+1024399994+1024422703+1024404511+1024454825
3067+1024575045+1024731522+1024841756+1024794940+1024568112+1024249751
3058+1023924139+1023586568+1023143152+1022457960+1021451990+1020239229
3050+1019132884+1018392289+1017900404+1017165343+1015754822+1013700074
3041+1011390382+1009100027+1006740211+1004139637+1001463496+999174095+997567724
3031+996517037+995686054+994825875+993836507+992715023+991494565+990147271
3021+988620728+987006533+985492648+984093577+982594386+980764748+978454484
3012+975564745+972135033+968367622+964398191+960176806+955711419+951348568
3002+947764415+945682378+945466681+946938966+949730493+953692863+958684230
2992+964162521+969403234+974006461+977914001+981112814+983563527+985301632
2982+986442643+987088270+987233425+986736832+985372364+982919235+979258624
2972+974436710+968550497+961490642+952823143+941926544+928276838+911836495
2962+893416398+874713497+857948051+845247640+837938184+836126484+839086192
2952+846178551+857214771+871795453+888586597+905598018+921170549+934536751
2942+945568137+954323924+960945580+965758334+969224367+971741677+973516930
2932+974655142+975326276+975794117+976283840+976845122+977369830+977801732
2922+978313273+979124155+980144373+981028851+981631161+982151161+982754107
2912+983273726+983455837+983387776+983494511+984076912+985030341+986122373
2902+987341559+988784839+990376199+991975255+993675895+995719321+998084989
2893+1000432464+1002526968+1004475300+1006428402+1008304156+1009902704
2884+1011070558+1011738130+1012009357+1012149741+1012281474+1012204762
2876+1011659637+1010653031+1009461832+1008402749+1007552048+1006611404
2867+1005107569+1002711179+999274915+994655404+988627598+980928477+971469114
2857+960837636+950764578+943789322+941932396+945317837+952044574+959551407
2847+966248311+972038220+977684883+983927813+990941361+998249162+1005075701
2837+1010866374+1015534100+1019339612+1022641344+1025613201+1028061751
2829+1029638099+1030344727+1030688277+1031223353+1032050455+1032858984
2820+1033396095+1033782136+1034315812+1035056089+1035754512+1036195446
2812+1036457323+1036783317+1037288306+1037856967+1038311132+1038600488
2803+1038801682+1039006756+1039295412+1039692711+1040061386+1040189303
2795+1040070419+1039932515+1039958849+1040188349+1040657781+1041371406
2786+1042124086+1042610374+1042775438+1042891587+1043196718+1043576652
2778+1043751321+1043717418+1043788278+1044126930+1044451398+1044366862
2769+1043882101+1043423991+1043353768+1043593127+1043777973+1043732557
2761+1043667422+1043835285+1044124958+1044205996+1044008936+1043797247
2752+1043763471+1043816075+1043810159+1043752339+1043705078+1043661570
2744+1043587338+1043457195+1043183424+1042667812+1042037133+1041661206
2735+1041757891+1042121860+1042390415+1042401738+1042201625+1041945664
2727+1041878175+1042167404+1042717618+1043257019+1043573408+1043630529
2718+1043569910+1043605848+1043817729+1044095571+1044296638+1044379202
2710+1044410243+1044480721+1044567992+1044549609+1044445418+1044466791
2701+1044687322+1044884254+1044849651+1044684841+1044647121+1044781017
2693+1044843735+1044651828+1044372905+1044279782+1044344917+1044347143
2684+1044240790+1044128139+1044015361+1043910852+1044011926+1044485237
2676+1045146640+1045601123+1045653727+1045439303+1045219281+1045163369
2667+1045253057+1045316793+1045195237+1044877321+1044481739+1044207840
2659+1044281753+1044745333+1045266669+1045390897+1045013761+1044437213
2650+1043980630+1043735419+1043649929+1043632246+1043542049+1043303835
2642+1043097361+1043246714+1043800236+1044417176+1044792276+1044948308
2633+1044966882+1044735156+1044199062+1043632628+1043410252+1043628748
2625+1044053081+1044327170+1044230930+1043884581+1043675882+1043847816
2616+1044242062+1044550563+1044671801+1044728731+1044895449+1045243961
2608+1045650038+1045902628+1045946899+1045866117+1045701497+1045539105
2599+1045614990+1046029463+1046534897+1046802753+1046698371+1046284788
2591+1045874322+1045972088+1046774066+1047821699+1048463256+1048510072
2582+1048224024+1047892877+1047660897+1047596970+1047714710+1047961447
2574+1048267341+1048635571+1049176881+1049935858+1050649356+1050884962
2565+1050534479+1049982674+1049730212+1049998195+1050667866+1051457058
2557+1052177108+1052802507+1053250757+1053334275+1053091163+1052895567
2548+1053049182+1053461492+1053795247+1053793402+1053480766+1053096761
2540+1052809313+1052574979+1052315265+1052070945+1051943791+1052041049
2531+1052428234+1052998485+1053477585+1053666948+1053589346+1053339364
2523+1052949507+1052520276+1052291667+1052393186+1052685213+1053065402
2514+1053698053+1054645885+1055501929+1055706685+1055137452+1054216717
2506+1053517977+1053343180+1053634890+1054164558+1054671010+1054880346
2497+1054657843+1054199479+1053905799+1053986009+1054197889+1054075888
2489+1053529617+1053014451+1052849260+1052734573+1052384281+1052148929
2480+1052459593+1053117243+1053673691+1054151900+1054882063+1055797900
2472+1056318091+1056017541+1055171864+1054432732+1054141341+1054202405
2463+1054433686+1054743397+1055071808+1055362690+1055529981+1055431069
2455+1055001202+1054435340+1054112972+1054245787+1054612490+1054767759
2446+1054538004+1054143568+1053788441+1053397057+1052881573+1052464237
2438+1052547755+1053219016+1053950961+1054030535+1053400492+1052795828
2429+1052867706+1053464864+1053956304+1053960756+1053567274+1053084357
2421+1052781898+1052799391+1053127547+1053603085+1053968453+1054050890
2412+1053885762+1053603467+1053282561+1052991234+1052828078+1052830559
2404+1052962801+1053197072+1053473578+1053635144+1053541639+1053197962
2395+1052688521+1052094734+1051548146+1051234428+1051233538+1051391287
2387+1051422264+1051172601+1050803416+1050723206+1051284743+1052457049
2378+1053789713+1054756055+1055139487+1055071999+1054856238+1054885307
2370+1055537105+1056847506+1058317373+1059251974+1059297709+1058657679
2361+1057887888+1057474114+1057502547+1057668565+1057574425+1057017404
2353+1056104812+1055172755+1054476113+1053985882+1053532989+1053083149
2344+1052846588+1052971325+1053250884+1053446226+1053599141+1053819800
2336+1054046056+1054162777+1054156734+1054025764+1053646657+1052863508
2327+1051714673+1050501784+1049642496+1049417766+1049713928+1050026628
2319+1049929752+1049552617+1049418084+1049791085+1050362863+1050675245
2310+1050661569+1050487281+1050107920+1049407907+1048555806+1047796447
2302+1047133009+1046604040+1046575798+1047359392+1048747777+1050125603
2293+1050868361+1050669266+1049737400+1048659361+1047970289+1047931615
2285+1048556824+1049564893+1050475387+1051061985+1051567674+1052238363
2276+1052853140+1053003765+1052726813+1052536178+1052769558+1053217999
2268+1053610909+1054071817+1054653327+1054808723+1053954396+1052333267
2259+1050760862+1049723978+1049169184+1048923909+1048960548+1049358674
2251+1050131264+1050988390+1051395103+1051051808+1050170383+1049302508
2242+1049122750+1050050227+1051638279+1052781389+1052859246+1052105293
2234+1050878474+1049617434+1049313639+1050577669+1052336384+1052849451
2225+1051882282+1050723715+1050388561+1050786942+1051262670+1051195309
2217+1050403509+1049408734+1049017732+1049364399+1049651782+1049204360
2208+1048529663+1048739444+1049881155+1050636889+1050133236+1049256964
2200+1049459239+1050925227+1052669947+1053868333+1054359582+1054352077
2191+1054311431+1054657525+1055193682+1055424899+1055515351+1056062512
2183+1056957294+1057541603+1057805069+1058208094+1058443509+1057594907
2174+1055471333+1052891496+1050714491+1049387425+1049333485+1050932287
2166+1053844035+1056827405+1058695208+1059223668+1058914403+1058285823
2157+1057524810+1056586901+1055695935+1055326815+1055347996+1054992615
2149+1054194900+1053864517+1054223015+1054195154+1053182950+1052149056
2140+1052363417+1053922273+1055783016+1056803743+1056728239+1056135280
2132+1055433041+1054514915+1053509390+1052976350+1053114571+1053508372
2123+1053723878+1053529108+1052768604+1051706213+1051132591+1051511189
2115+1052423909+1053276709+1053974432+1054561285+1054821762+1054612363
2106+1054180461+1053978567+1054339927+1055204495+1056017286+1056106783
2098+1055308941+1054126648+1053307369+1053330713+1054124930+1055100304
2089+1055581949+1055361990+1054766614+1054208766+1053920619+1054027927
2081+1054494560+1054983010+1055149665+1055085420+1055115825+1055225550
2072+1055107238+1054766677+1054616625+1054887597+1055405499+1056098196
2064+1057106965+1058047927+1057901691+1056231329+1053925708+1052255855
2055+1051688275+1051904099+1052389751+1052806515+1053278999+1054267095
2047+1055648865+1056482583+1056468653+1056717362+1058083866+1059772611
2038+1060806632+1061679724+1063080004+1064116506+1063571062+1062010616
2030+1060879019+1060573252+1060946126+1062395448+1064886615+1066905298
2021+1067086582+1066449606+1067461491+1070727666+1073737116+1073741823
2013+1070994313+1068223904+1067634252+1068903498+1070018684+1069725958
2004+1068461164+1067068963+1065735536+1064162558+1062024419+1059450560
1996+1057429715+1057136988+1058505337+1060103439+1060916802+1061373957
1987+1062045919+1062592380+1062471969+1061824052+1061242733+1060993896
1979+1060626429+1059503928+1057824788+1056448807+1055573425+1054715472
1970+1054056551+1054535778+1056283488+1057898829+1057955186+1056516677
1962+1054779145+1053867125+1053998158+1054673427+1055600777+1056859082
1953+1058216872+1059104911+1059293892+1058964909+1058299181+1057568382
1945+1057291366+1057739807+1058464373+1058737126+1058350640+1057654826
1936+1057117206+1056869641+1056536141+1055700961+1054498885+1053556842
1928+1053429879+1054109601+1054942046+1055134208+1054611854+1054076842
1919+1053895685+1053601177+1052790931+1051883554+1051391223+1051113063
1911+1050461838+1049291249+1048103295+1047339419+1046891042+1046462574
1902+1046015470+1045673891+1045397957+1045010517+1044491789+1044054862
1894+1043878284+1043832359+1043498096+1042444483+1040699444+1038806834
1885+1037157463+1035654264+1034040705+1032242935+1030341165+1028452562
1877+1026837921+1025933980+1025995553+1026788307+1027814568+1028590211
1868+1028646378+1027777802+1026287134+1024588785+1022974717+1021776267
1860+1021321656+1021643707+1022457515+1023502986+1024662952+1025700409
1851+1026278166+1026411489+1026566058+1027116400+1027895987+1028378713
1843+1028335713+1028087067+1027868063+1027566367+1027051901+1026490237
1834+1026243372+1026545513+1027433616+1028728814+1030010718+1031023240
1826+1031886791+1032703080+1033433243+1034131029+1034908962+1035710240
1817+1036302945+1036505347+1036336657+1035901002+1035245961+1034432089
1809+1033628012+1032952171+1032345472+1031720200+1031076035+1030399558
1800+1029606422+1028758583+1028200036+1028278211+1029038397+1030153838
1792+1031134682+1031887681+1032751231+1033841928+1034904764+1035553318
1783+1035633274+1035406891+1035300346+1035535062+1035993425+1036427618
1775+1036665705+1036630275+1036396259+1036236601+1036318974+1036531300
1766+1036654001+1036501595+1035971608+1035145141+1034419939+1034130330
1758+1034100688+1033916605+1033428790+1032884491+1032600034+1032636927
1749+1032616381+1032098989+1031164769+1030147159+1029230941+1028409117
1741+1027618653+1026914761+1026456333+1026330834+1026541951+1026911008
1732+1026966474+1026544622+1025821583+1024876550+1023733122+1022457833
1724+1021180445+1020099926+1019463331+1019614020+1020958769+1023252177
1715+1025252922+1026502768+1027450345+1028365418+1029254285+1030030373
1707+1030591338+1030893987+1031032463+1031124632+1031160507+1031045630
1698+1030733376+1030170058+1029357076+1028633910+1028282854+1028186678
1690+1028120207+1028022059+1028027148+1028259383+1028516552+1028265744
1681+1027519869+1026638890+1025737556+1024765108+1023725680+1022890944
1673+1022485566+1022208551+1021444166+1020011319+1018574210+1017573138
1664+1016846282+1016149832+1015442886+1014819076+1014293796+1013850699
1656+1013523242+1013314415+1013096810+1012869345+1012795050+1012771070
1647+1012523950+1011960124+1011506404+1011476826+1011810262+1012320148
1639+1012788817+1013079953+1013236303+1013456007+1013823792+1014295895
1630+1014900495+1015712713+1016692922+1017637001+1018399541+1018991991
1622+1019440495+1019778257+1020155329+1020744408+1021408482+1021744399
1613+1021762400+1021706234+1021644025+1021541424+1021415924+1021303019
1605+1021168232+1020990955+1020857441+1020885874+1021100107+1021426483
1596+1021737593+1021924857+1022026630+1022213767+1022560179+1022947810
1588+1023231186+1023367372+1023388427+1023353124+1023313878+1023273423
1579+1023214076+1023174320+1023231314+1023351343+1023448537+1023600307
1571+1023886864+1024105487+1023900921+1023373415+1022888527+1022600571
1562+1022503122+1022664052+1023230359+1023795140+1023660481+1023111793
1554+1022407328+1021690204+1021138082+1020771187+1020471146+1020223772
1545+1020167542+1020453462+1021050302+1021473363+1020913353+1019690668
1537+1018689850+1017978452+1017377287+1016841702+1016442622+1016174257
1528+1015942786+1015710042+1015598218+1015697384+1015693631+1014957361
1520+1013407156+1011692650+1010270170+1009223109+1008393653+1007591485
1511+1006797268+1006047259+1005085179+1003019808+999734169+996810908+994571886
1502+992616112+990690234+988478945+985533230+982078711+979103864+976961208
1492+975227365+973383924+971259079+968976866+966517821+963721841+960434866
1482+956652317+952650000+948656970+944479412+939589819+932974588+923100943
1472+910527939+898677148+888753252+879335489+868991713+857975594+848448234
1462+841660687+836962110+833650965+832292794+833758336+836738844+840171164
1452+843858110+846905280+848258998+848733645+851260497+857764095+867314290
1442+877194678+885051740+891344730+899742528+913346118+928859366+941387843
1432+950995541+959233300+966163139+971113224+974332646+976712498+978794408
1422+980661702+982569769+985092677+988167135+990813253+992633032+993931347
1412+995010594+996014719+996941433+997692460+998113231+998021316+997403613
1402+996458771+995283284+993849546+992186309+990089769+986727482+981085272
1392+972675197+960769193+943336238+919182080+893912164+879115276+880104199
1383+892716068+909747143+925097362+935386690+939388179+935434587+920458132
1373+893723564+859711918+826414468+804187333+800931081+815787316+842513042
1363+874060746+902295841+922075127+934428490+942654418+949449534+956600031
1353+964730483+973299579+981240413+987638739+992155204+995040299+996805056
1343+997907902+998633613+999136884+999539590+999927666+1000320767+1000749299
1333+1001290926+1002048886+1003143717+1004596220+1006147951+1007367456
1324+1008003096+1008098318+1007773978+1007083634+1006114175+1005045932
1316+1004005614+1002977890+1001963905+1001099082+1000470820+999884921+998947839
1306+997370155+995155813+992522862+989719185+986908385+984120356+981218277
1296+977919662+973930195+969098294+963377210+956586164+948245296+937595753
1286+923553518+904528567+878710471+845551498+808016125+773379270+750402571
1276+744085855+752515394+768729736+785362367+797942622+805279811+807912189
1266+806412743+800780647+790740920+776009676+756304304+731576206+702321719
1256+669438171+633875747+596594872+558738213+521687920+486920539+455824234
1247+429652538+409556100+396461952+390702193+391671047+397971384+408018172
1237+420551133+434752994+450127829+466305787+482892175+499527542+516050449
1227+532460164+548695878+564513365+579560998+593552600+606378193+618051517
1217+628605074+638133261+646920662+655387095+663816188+672145671+680062207
1207+687284264+693661917+698991427+702880775+704883492+704678291+702059334
1197+696811306+688656302+677378624+663046079+646056094+626954113+606361846
1187+585172803+564651205+546160184+530775554+519265036+512532002+512006245
1177+519355838+535546898+559897925+589907255+622178634+653723284+682602353
1167+707879648+729382409+747348086+762043199+773666272+782462769+788753469
1157+792846364+794889346+794707807+791782765+785319686+774178703+756725902
1147+730751520+693530438+642630326+578304283+506865080+442173860+401977008
1137+399319155+434709263+495893232+565616148+630114379+681991138+718566656
1128+740262596+750390167+754417100+757779260+763791927+773128270+784556065
1118+796081498+806095973+814096345+820579333+826329996+831749322+836665567
1108+840522602+842486008+841139669+833595561+814954425+781426267+737786250
1098+700527957+687794977+704060015+737458920+771929884+798514972+815963448
1088+825945609+830211457+830346943+828051627+824939512+821966764+819206342
1078+816230159+812493408+807448292+800662017+791897324+780953401+767441725
1068+750892611+731280426+709368662+686173658+662057856+636622430+609381855
1058+580293069+549821050+518714186+487556689+456372858+424725957+392416667
1048+360442659+331483507+309142385+296081281+292336833+295143626+300406729
1038+304658424+306173930+304854306+301356819+296260307+289793984+281998591
1028+272830238+262083183+249372244+234319364+216908624+197811811+178379335
1018+160224789+144636578+132140398+122548062+115479556+110762128+108405524
1009+108562828+111529653+117423968+125882600+136265432+147956248+160314349
999+172491437+183304550+191442125+196472802+199928467+204707079+212848201
989+224100562+236753506+249379273+261505394+273097744+284066761+294370432
979+304233073+314034141+324023013+334204651+344491625+354917997+365642280
969+376759155+388199353+399828214+411554683+423297689+434936441+446423042
959+457900005+469515890+481114124+492313722+502906303+512966258+522591003
949+531777962+540599775+549328847+558307710+567735904+577577491+587629622
939+597671512+607573399+617270848+626664440+635642985+644251327+652730672
929+661297733+669912500+678313607+686277722+693814069+701079507+708141397
919+714889443+721138925+726760589+731779690+736378210+740750665+745041065
909+749487561+754424288+759999137+766071596+772459426+779051313+785580799
899+791514973+796373016+800107414+803034300+805455052+807483849+809110766
890+810251395+810909426+811500605+812842237+815615318+819879066+825091091
880+830509208+835631100+840316446+844489425+847812911+849697952+849594524
870+847356837+843362471+838113426+831662242+823517415+813057998+799733395
860+782476445+759444915+730512415+701510773+683740947+685535600+704075536
850+727647738+745507571+754018911+755070933+751880644+746713781+740542283
840+733365516+724594589+713309787+698431608+678835960+653414655+621329968
830+582471600+537517239+487388158+432992594+376090057+320625677+272713898
820+238371995+220637535+218541870+228427744+246273964+269458346+296954881
810+328281386+362639477+398963010+436244361+473587699+510158543+545198232
800+577981087+607685605+633398619+654294362+669681792+678829218+680783910
790+674237313+657501508+629021265+588543868+538094105+481700722+423955243
781+368582333+317977429+273803576+237769781+211327860+194509857+185625389
771+182438073+183600489+189012133+198971491+213217576+230815023+250563681
761+271291736+292030112+312142580+331337302+349638197+367264872+384389961
751+401055256+417273001+433067366+448467263+463451192+477822824+491248310
741+503448789+514278027+523822561+532481186+540457928+547100383+551511767
731+554255524+557923069+565358596+577318731+592179418+607765115+622850086
721+636952622+649736997+661155886+671572176+681375279+690743491+699708741
711+708173901+715945282+722927789+729297809+735436294+741649073+747941300
701+754098358+759983298+765719967+771561845+777545061+783340059+788567350
691+793215358+797654793+802255794+807037253+811786080+816510736+821446446
681+826540541+831370469+835682178+839652182+843621358+847702423+851558249
671+854750256+857414884+860352202+863832228+866973857+869447532+871439881
662+872853518+873619175+874261367+875586844+877770145+879951348+880963297
652+880554230+879613586+879108661+879240585+879668989+880005161+879957836
642+879392546+878321187+876663356+874114877+870408022+865658813+860383561
632+855159704+850157715+844786795+837826933+828155817+815432570+799963913
622+781914272+760671035+734850268+703110339+665302658+622735273+577308363
612+530821543+484814236+440082536+396089810+351712346+307236830+265107295
602+228543051+200340873+182459382+175031837+176092622+183015337+193410891
592+204778050+214848834+222895513+230059655+238270015+249046536+262983324
582+279834562+298543220+317601279+336272026+354931482+373800338+392325898
572+410101322+427422198+444749531+461992456+478300652+492516888+503624349
562+510727585+513260893+511381927+505177003+492752876+469498366+430425351
552+374925447+310455012+250989461+209828176+192394203+195305791+210959582
543+232378840+255308374+277891797+299509180+319837662+338459717+355124948
533+370139472+384019378+397004787+409439347+421936974+434313745+445348279
523+454582054+462937648+471341330+479949959+488584381+497036692+504939489
513+511958666+518199783+524275200+530849371+537954675+544909957+551126362
503+556648734+561820940+566861668+571855961+576833779+581796586+586811869
493+591825881+596235993+599386336+601738073+604567320+608374867+612364971
483+615860519+619508345+624475413+631094906+638430123+644986834+649994103
473+653650198+656134623+657191543+656752517+654825367+650742013+643315772
463+632316127+619990180+610756055+609028827+616022657+627510052+638296990
453+647087889+654569470+661220449+667253915+672623435+677272461+681573420
443+685372507+687203290+686075255+682579835+677391218+671141228+665634568
433+662345812+659532022+652949422+639995212+621870514+600608130+576643398
424+550387803+521454349+483944865+431382438+378069143+346007291+333050696
414+331092377+338560600+355668579+379952721+406925058+432998096+457659279
404+482012786+505507037+525744209+540531332+550416554+560034874+571601144
394+579287990+573140282+544543381+492358725+425400971+357121367+301995736
384+273611574+273126177+289494896+313916974+342891455+375236938+407964836
374+434576862
##END=
