##TITLE=NiW-X13529
##JCAMP-DX=4.24
##DATA TYPE=INFRARED SPECTRUM
##DATE=28/11/2019
##SAMPLING PROCEDURE=Diamant-ATR
##ORIGIN=Marie
##XUNITS=1/CM
##YUNITS=TRANSMITTANCE
##RESOLUTION=4
##FIRSTX=3997.453
##LASTX=373.96442
##DELTAX=-1.4165319
##MAXY=0.96894586
##MINY=0.62169516
##XFACTOR=1
##YFACTOR=9.0240115e-010
##NPOINTS=2559
##FIRSTY=0.94352305
##XYDATA=(X++(Y..Y))
3997+1045569417+1045735866+1045899343+1045587515+1044586642+1043347522
3989+1042651607+1042898308+1043780752+1044645890+1045056002+1044973504
3980+1044630500+1044415966+1044662205+1045269281+1045726421+1045738508
3972+1045578863+1045621796+1045858919+1046064273+1046145317+1046145846
3963+1046092344+1046032436+1046131314+1046484820+1046817520+1046671018
3955+1046011564+1045359969+1045215911+1045627212+1046273655+1046703714
3946+1046646778+1046295253+1046101261+1046261501+1046541492+1046621876
3938+1046408597+1046022066+1045659247+1045411093+1045195700+1044974098
3929+1044922248+1045176941+1045546762+1045655152+1045393523+1045097944
3921+1045064918+1045210033+1045407658+1045774572+1046254896+1046386668
3912+1045893728+1045091405+1044518345+1044410814+1044694107+1045204220
3904+1045700793+1045968234+1046098487+1046325043+1046585284+1046606156
3895+1046252254+1045539364+1044632944+1044068933+1044426270+1045555348
3887+1046768510+1047438335+1047428559+1047112769+1046774851+1046412032
3878+1046086466+1046006478+1046200536+1046371939+1046215662+1045871007
3870+1045699604+1045678071+1045571068+1045484343+1045696103+1046117378
3861+1046317182+1046119954+1045775827+1045678137+1046119954+1047126838
3853+1048118728+1048288215+1047794351+1047206033+1046860387+1046809726
3844+1046855169+1046812632+1046774124+1046978421+1047495998+1047995542
3836+1047955846+1047343551+1046726964+1046678945+1047214620+1047883123
3827+1048285573+1048326855+1048171899+1047997590+1047769053+1047424728
3819+1047146389+1046943810+1046498361+1045753172+1045135857+1044915247
3810+1045010889+1045315186+1045772525+1046254764+1046593871+1046736805
3802+1046702987+1046559062+1046497106+1046716726+1047257289+1047882793
3793+1048189931+1047973019+1047347316+1046611639+1046106215+1046101922
3785+1046613554+1047273141+1047649302+1047635630+1047366934+1047011842
3776+1046726568+1046603118+1046592219+1046590832+1046618045+1046807678
3768+1047235426+1047871432+1048589474+1049098267+1049147541+1048828051
3759+1048499843+1048377450+1048286564+1047965225+1047314423+1046383035
3751+1045579919+1045687319+1046835684+1048281874+1049193843+1049151306
3742+1048659357+1048394822+1048339273+1048204528+1047882793+1047624203
3734+1047781933+1048300699+1048813454+1049056720+1048958040+1048635578
3725+1048404994+1048517545+1048862662+1049119601+1049065373+1048719793
3717+1048356776+1048307766+1048675473+1049236512+1049544772+1049275020
3708+1048640070+1048163048+1048147790+1048447927+1048624680+1048371175
3700+1047811590+1047288993+1047111844+1047500489+1048324345+1048922835
3691+1048548985+1047251476+1046229863+1046373656+1047096454+1047667664
3683+1048100762+1048700573+1049487770+1050157397+1050393662+1049974567
3674+1048940272+1047836293+1047212704+1047260855+1047690914+1048010866
3666+1048188148+1048397728+1048591522+1048649119+1048680757+1048917947
3657+1049373964+1049748276+1049764128+1049520003+1049286314+1049245032
3649+1049339419+1049233936+1048821248+1048415496+1048322628+1048571046
3640+1048944235+1049244768+1049495498+1049790747+1050041675+1050006998
3632+1049583677+1048971250+1048660083+1049110816+1050098611+1050986801
3623+1051265009+1050692213+1049471786+1048300963+1047901750+1048317013
3615+1049064911+1049746030+1050212946+1050384877+1050103631+1049396091
3606+1048670387+1048283327+1048261597+1048558563+1049072837+1049495498
3598+1049550519+1049308177+1049110222+1049270726+1049750918+1050149273
3589+1050107528+1049688764+1049358706+1049406924+1049630903+1049709834
3581+1049492328+1049129179+1048982083+1049212073+1049601576+1049869084
3572+1049954488+1049970076+1050096894+1050488247+1050963684+1050960249
3564+1050315391+1049541866+1049184662+1049302563+1049490610+1049366699
3555+1048924750+1048439737+1048220116+1048421374+1048933403+1049480373
3547+1049915716+1050357400+1050881318+1051215603+1051030197+1050346568
3538+1049463067+1048668736+1048141119+1047946070+1048045543+1048354597
3530+1048732673+1048949585+1048895490+1048730494+1048576396+1048321835
3521+1047969716+1047785698+1047891908+1048055319+1047991183+1047692434
3513+1047475984+1047756767+1048600505+1049505604+1049922387+1049893787
3504+1049840417+1049901977+1049815516+1049418152+1048921844+1048588153
3496+1048467082+1048568668+1048990537+1049633809+1050094582+1050135468
3488+1050017501+1050035004+1050003432+1049609040+1049010881+1048668075
3479+1048718538+1048902359+1048985848+1048978648+1049042057+1049269537
3471+1049486647+1049404678+1049047671+1048763255+1048712924+1048709357
3462+1048588616+1048375931+1048125795+1047918527+1047889728+1048069784
3454+1048408032+1048955530+1049694048+1050282036+1050359381+1049998478
3445+1049493583+1048915107+1048316881+1048067340+1048481481+1049295297
3437+1049868423+1049801844+1049206194+1048530293+1048201358+1048284516
3428+1048497333+1048619726+1048703941+1048825607+1048917551+1048920919
3420+1048838289+1048647600+1048407636+1048328308+1048466289+1048521574
3411+1048203538+1047649633+1047247645+1047170696+1047266866+1047284039
3403+1047090245+1046735683+1046342810+1045906674+1045317102+1044633340
3394+1044125473+1043919988+1043821836+1043616879+1043367139+1043250427
3386+1043250229+1043129025+1042672281+1041843339+1040708052+1039380820
3377+1038084566+1037073719+1036405479+1035907850+1035376666+1034700963
3369+1033880739+1032994201+1032003367+1030624681+1028679475+1026482811
3360+1024514619+1022792929+1020929692+1018739633+1016488478+1014511500
3352+1012801238+1011060261+1009044314+1006724465+1004216832+1001740442
3343+999521255+997494872+995232553+992375576+988967402+985217612+981212269
3333+977014322+972754814+968473841+964061689+959451318+954781567+950366905
3323+946542411+943442564+940874098+938539718+936483149+935157106+934920247
3313+935630957+936908849+938615479+940847282+943588669+946609651+949666499
3303+952710136+955902719+959368754+962902227+966161455+969234155+972633148
3293+976606522+980831881+984861794+988438068+991395113+993767671+995966646
3284+998397857+1000979599+1003317612+1005167573+1006528557+1007527184
3275+1008345162+1009098938+1009833031+1010701141+1011927249+1013509174
3267+1015214219+1016864573+1018380579+1019642949+1020593888+1021371574
3258+1022162074+1023052774+1024091891+1025280548+1026441859+1027292202
3250+1027735934+1028000799+1028428678+1029157091+1030027381+1030819730
3241+1031546029+1032395645+1033394669+1034300627+1034919922+1035312266
3233+1035548333+1035519865+1035206584+1034901758+1034952882+1035439547
3224+1036227537+1037117048+1037842224+1038143153+1037960984+1037476829
3216+1036970415+1036680516+1036689433+1036845908+1036903307+1036866318
3207+1037085476+1037784825+1038607294+1038962650+1038758750+1038426182
3199+1038329814+1038550887+1039051951+1039634588+1039940207+1039836375
3190+1039596146+1039505855+1039532605+1039485048+1039279893+1038983984
3182+1038739067+1038679819+1038858619+1039218202+1039623029+1039930035
3173+1040023497+1039825410+1039392313+1039020114+1039074805+1039630823
3165+1040425485+1041174043+1041752188+1042113488+1042245789+1042219170
3156+1042144863+1042085417+1042029868+1041942680+1041860909+1041931187
3148+1042255696+1042720961+1043110200+1043362648+1043597063+1043912722
3139+1044262199+1044494897+1044486773+1044289214+1044148591+1044311143
3131+1044776671+1045240416+1045305939+1044869605+1044317946+1044130691
3122+1044276928+1044295422+1043987624+1043658557+1043615360+1043769061
3114+1043830554+1043637355+1043192896+1042598502+1042091890+1041992615
3105+1042386148+1042899761+1043010925+1042597313+1042013553+1041673059
3097+1041702650+1041866193+1041700801+1040925030+1039807642+1038908224
3088+1038420568+1038037735+1037459854+1036692273+1035786910+1034664370
3080+1033362568+1032167108+1031292062+1030626399+1029947657+1029219839
3071+1028573396+1028175306+1028223193+1028849556+1029863045+1030723494
3063+1030930895+1030353673+1029167328+1027727215+1026606261+1026451041
3054+1027533949+1029538404+1031896827+1034227706+1036395637+1038365283
3046+1040168216+1041886272+1043472821+1044684596+1045366442+1045671995
3037+1045781904+1045593196+1044962407+1044103081+1043496666+1043468462
3029+1043931282+1044467288+1044702892+1044670527+1044706921+1045000188
3020+1045434673+1045798879+1045922659+1045714664+1045253098+1044706062
3012+1044025207+1042868057+1040935268+1038263036+1035112924+1031686652
3003+1028062094+1024319371+1020555512+1016752616+1012801304+1008717294
2995+1004713075+1001018173+997726975+994795162+992020948+989015025+985349252
2985+980801894+975444682+969536472+963376672+957240057+951469101+946589902
2975+943118253+941111090+940054932+939323349+938676378+938330930+938650288
2965+939703936+941047284+941984088+942131250+941796239+941866715+943179152
2955+945806469+949047930+952153259+954821528+957065682+959010691+960776304
2945+962186893+962702686+961932001+960043533+957478634+954508775+951256218
2935+947941507+944925611+942562498+941033414+940265965+940026860+940132806
2925+940578321+941487515+943010853+945253224+948159608+951399153+954457322
2915+956977041+959024297+960992952+963259630+965946195+968949145+972084791
2905+975170305+978012289+980421109+982347094+984035164+985900053+988130600
2895+990531230+992820167+994911413+996808006+998426391+999677863+1000610043
2885+1001349551+1001912043+1002123539+1001759267+1000697428+998867811+996149938
2876+992515671+988283377+984110000+980683860+978455756+977697687+978717649
2866+981717363+986325620+991588114+996633300+1001146444+1005101786+1008363524
2856+1010791895+1012567681+1014097954+1015549825+1016735179+1017587833
2847+1018461426+1019710652+1021228507+1022610958+1023580985+1024150875
2839+1024578490+1025193757+1026070586+1026882222+1027264461+1027261356
2830+1027209704+1027269348+1027362613+1027550000+1028073191+1028923137
2822+1029734576+1030232800+1030505063+1030762662+1031057118+1031286316
2813+1031352763+1031312604+1031338760+1031500520+1031676678+1031765517
2805+1031829785+1031923577+1031922058+1031679452+1031313991+1031185588
2796+1031564920+1032411894+1033462305+1034403468+1034999118+1035218738
2788+1035285251+1035504409+1036006860+1036649208+1037160972+1037416590
2779+1037544663+1037717783+1037948764+1038190644+1038486223+1038856902
2771+1039193499+1039413977+1039633928+1040043709+1040650785+1041223449
2762+1041515065+1041519424+1041456543+1041492740+1041568302+1041565726
2754+1041536928+1041626559+1041834752+1042003843+1042048428+1042074650
2745+1042240439+1042555437+1042853526+1042948045+1042816933+1042641303
2737+1042641898+1042853922+1043102406+1043224931+1043244350+1043233584
2728+1043110399+1042738663+1042197770+1041791621+1041753113+1042023262
2720+1042348630+1042540113+1042594407+1042590180+1042548964+1042421947
2711+1042181587+1041903181+1041721078+1041688581+1041732968+1041793074
2703+1041923393+1042221020+1042713299+1043302145+1043771967+1043933396
2694+1043803341+1043569322+1043401222+1043377708+1043503139+1043697791
2686+1043862457+1044005194+1044197931+1044417815+1044586708+1044747212
2677+1044980373+1045158843+1045035922+1044625084+1044233797+1044069990
2669+1044076793+1044160942+1044304141+1044442254+1044468807+1044355793
2660+1044134654+1043819788+1043412252+1042946261+1042549294+1042436148
2652+1042700023+1043125260+1043398646+1043475397+1043536627+1043659019
2643+1043777846+1043933528+1044238024+1044556192+1044536641+1044077982
2635+1043527181+1043335567+1043680948+1044420854+1045249796+1045916318
2626+1046366589+1046691032+1047025713+1047529353+1048234053+1048825673
2618+1048828712+1048166681+1047364754+1047044538+1047290116+1047656039
2609+1047788802+1047845540+1048200037+1048883534+1049483213+1049599595
2601+1049291796+1048937036+1048755659+1048749252+1048976138+1049448338
2592+1049866838+1049891673+1049550651+1049118082+1048830165+1048826136
2584+1049071780+1049320925+1049330965+1049048992+1048620717+1048372827
2575+1048581680+1049098795+1049475155+1049521390+1049445564+1049467030
2567+1049573769+1049640415+1049620599+1049604152+1049700719+1049941938
2558+1050325695+1050818305+1051273397+1051527298+1051590047+1051574987
2550+1051504180+1051337203+1051100608+1050842810+1050533690+1050155746
2541+1049850787+1049837445+1050161756+1050617972+1050939377+1051033500
2533+1051075574+1051401008+1052204455+1053226200+1053789815+1053396678
2524+1052378896+1051634301+1051534299+1051581922+1051400282+1051355433
2516+1051799165+1052407958+1052696139+1052624210+1052442371+1052339793
2507+1052327310+1052254653+1052003989+1051681924+1051472806+1051390770
2499+1051278285+1050945321+1050326620+1049620203+1049154278+1049058041
2490+1049229312+1049595368+1050176222+1050910909+1051603323+1052040516
2482+1052096923+1051795928+1051353517+1051105033+1051301337+1051966142
2473+1052892906+1053714450+1054078326+1053911085+1053432346+1052874940
2465+1052399768+1052254521+1052623747+1053279834+1053721980+1053701306
2456+1053399849+1053196609+1053394366+1053996158+1054651914+1054981840
2448+1054978735+1054947163+1055098949+1055351462+1055483102+1055390631
2439+1055205885+1055139042+1055165396+1055017706+1054601319+1054191604
2431+1054043649+1054077930+1054126147+1054156266+1054085394+1053719008
2422+1053068800+1052497590+1052389398+1052747329+1053182276+1053293506
2414+1053036567+1052670446+1052401023+1052220373+1052088733+1052093092
2405+1052313901+1052623087+1052802350+1052851558+1052954135+1053120584
2397+1053152025+1052995285+1052842311+1052830223+1052874544+1052841452
2388+1052734383+1052664567+1052685043+1052707764+1052596138+1052287811
2380+1051848307+1051531525+1051716072+1052500232+1053426599+1053938496
2371+1053980108+1053788692+1053484592+1053332146+1053833739+1054965922
2363+1055906160+1056022014+1055524648+1054867439+1054177535+1053463059
2354+1052857304+1052500100+1052392370+1052416215+1052521038+1052871439
2346+1053731690+1055048948+1056269573+1056858948+1056741971+1056231924
2337+1055801205+1055700873+1055743476+1055664148+1055482772+1055262954
2329+1054841811+1054139820+1053440800+1053132341+1053312925+1053721386
2320+1054043847+1054268025+1054647423+1055331449+1056130007+1056635629
2312+1056579485+1056104379+1055598692+1055259981+1055017970+1054904164
2303+1055155819+1055789712+1056367659+1056447449+1056105172+1055726699
2295+1055400802+1054875431+1054112607+1053481752+1053302225+1053542585
2286+1054052830+1054762550+1055586142+1056353656+1056820242+1056696066
2278+1055913161+1054929527+1054472387+1054856012+1055700278+1056329812
2269+1056390843+1056118580+1056011776+1056303656+1056854853+1057391320
2261+1057597532+1057250037+1056629090+1056434239+1056849701+1057185703
2252+1057030681+1057107102+1058179839+1059662357+1060157609+1059160501
2244+1057611601+1056788868+1056915223+1057019320+1056320961+1055472534
2235+1055831654+1057721708+1060126565+1061898585+1062623497+1062485912
2227+1061842112+1060999695+1060270821+1060049285+1060550019+1061567207
2218+1062661080+1063242727+1062604540+1060766204+1059151914+1059259115
2210+1060777829+1062071772+1062253346+1061782864+1061341708+1061116011
2201+1061115285+1061504326+1062331617+1063072645+1062891070+1061657631
2193+1060304639+1059659847+1059438642+1059012414+1058598471+1058881963
2184+1059898953+1060998242+1061621435+1061675465+1061323478+1060719836
2176+1059989641+1059381178+1059099800+1058820073+1057956388+1056683648
2167+1056026439+1056632657+1058118610+1059999681+1062718875+1066976533
2159+1071653549+1073741823+1071918811+1068238506+1065266204+1063591477
2150+1062558899+1061916750+1061883460+1062439941+1063324630+1064245383
2142+1064755893+1064512428+1063934282+1064012949+1065100878+1066319522
2133+1066513514+1065461253+1063893661+1062711675+1062309820+1062345289
2125+1062167612+1061566282+1060926907+1060665873+1060743483+1060692954
2116+1060003908+1058675751+1057486962+1057394623+1058483542+1059804632
2108+1060424984+1060327426+1060050738+1059864606+1059762689+1059927289
2099+1060515540+1061112973+1061071691+1060352196+1059551590+1059189299
2091+1059318891+1059712754+1060197306+1060754249+1061244283+1061293953
2082+1060870235+1060632715+1061053593+1061567141+1061368459+1060654380
2074+1060305299+1060721091+1061601091+1062498660+1063136516+1063418489
2065+1063493061+1063781902+1064631320+1065668059+1065867071+1064840174
2057+1063638109+1063462215+1064101920+1064518637+1064425241+1064442744
2048+1065224856+1066929504+1069097832+1070822097+1071378843+1070651619
2040+1068878806+1066544954+1064638388+1064274578+1065739725+1068168030
2031+1070132259+1070484378+1069085282+1067032676+1065877970+1066279891
2023+1067392589+1067648141+1066316748+1064361501+1063544911+1064666327
2014+1067011936+1069260714+1070370043+1070051148+1069065533+1068580387
2006+1068859189+1069191096+1069148229+1069013683+1068959719+1068557864
1997+1067328916+1065517793+1063990690+1063351513+1063439163+1063764068
1989+1064028537+1064008590+1063410166+1062067346+1060098757+1058041858
1980+1056828300+1057040589+1058136509+1059296962+1060853590+1063513668
1972+1066700703+1069003379+1069771884+1069401667+1068511430+1067694179
1963+1067710493+1068933629+1070568197+1071226397+1070494946+1069247768
1955+1068424242+1068166312+1068117633+1068028596+1067904882+1067779054
1946+1067493515+1066813651+1065852144+1065191566+1065159928+1065263628
1938+1064877889+1064096240+1063450391+1063089290+1062815838+1062730104
1929+1063131959+1063840622+1064234551+1063963477+1063211815+1062349979
1921+1061658556+1061343888+1061484114+1061888083+1062274615+1062556059
1912+1062789484+1063079316+1063592600+1064479601+1065640252+1066595418
1904+1066753346+1066034709+1065102992+1064661770+1064817254+1065367460
1895+1066161660+1066935713+1067377661+1067407054+1067031355+1066311067
1887+1065672551+1065603395+1066001485+1066354859+1066434649+1066411927
1878+1066489141+1066718867+1067023033+1067335983+1067710163+1068076351
1870+1068066905+1067554546+1067104210+1067122176+1067275877+1067173960
1861+1066885977+1066678444+1066578773+1066403143+1066054591+1065603791
1853+1065181592+1064949951+1065047178+1065338002+1065386879+1064944667
1844+1064336336+1063999277+1063799670+1063449401+1063054679+1062875152
1836+1062900582+1062940807+1062971256+1063060293+1063110955+1063017294
1827+1062971124+1063231366+1063752642+1064236268+1064497765+1064677952
1819+1065064484+1065710728+1066313643+1066616554+1066663714+1066545351
1810+1066239072+1065814825+1065488268+1065437343+1065709473+1066154394
1802+1066386960+1066096533+1065472019+1064985949+1064838060+1064853318
1793+1064738653+1064438847+1064241288+1064275965+1064321937+1064209914
1785+1064061827+1064100995+1064358463+1064703514+1065014351+1065197048
1776+1065173336+1064965209+1064763026+1064766395+1064878484+1064831455
1768+1064559853+1064217576+1063997361+1063959514+1063985142+1063927083
1759+1063780185+1063579984+1063319148+1063048272+1062821650+1062577063
1751+1062231351+1061839205+1061559875+1061530548+1061759350+1062041058
1742+1062151165+1062167678+1062331353+1062599520+1062701371+1062503350
1734+1062165895+1062016619+1062090464+1062189475+1062179171+1061972959
1725+1061468857+1060613956+1059508062+1058331691+1057225532+1056380407
1717+1056107880+1056462311+1057066547+1057589342+1057982412+1058364584
1708+1058841540+1059452249+1060145588+1060731594+1061090846+1061356173
1700+1061676588+1061898453+1061880091+1061716879+1061494881+1061246594
1691+1061012641+1060827368+1060719969+1060689189+1060660655+1060538064
1683+1060264282+1059732834+1058903694+1057957048+1057112188+1056364357
1674+1055529074+1054518887+1053371116+1052122749+1050809586+1049467294
1666+1048075266+1046489642+1044540604+1042319964+1040018742+1037554637
1657+1034844426+1031654221+1026324354+1016453338+1005445252+997244934+989064035
1647+976579639+958460616+938090108+916845280+892901338+866046322+838198360
1638+810761169+786211604+772309155+773152893+784526705+803473811+829259722
1628+858901040+887685806+913927272+937540298+955606546+965773537+970422284
1618+974297175+981154871+990493448+999328188+1006236677+1010815740+1012663059
1608+1011362974+1006278091+996522665+982455088+967930966+959544120+961770242
1598+973548551+989837230+1005335145+1017193904+1025314432+1030721050+1034209938
1588+1036083281+1036181500+1033890449+1027901458+1016217338+997839328+974529807
1578+951040891+936363002+938584369+952142493+966873487+979255768+988193019
1568+992217318+991426091+987006740+980152280+972045095+962256180+947929617
1558+930339532+916635436+905032756+890489479+870939260+846098871+817995423
1548+791624430+770710585+755121322+744202206+739448042+744959351+763592780
1538+786588360+805419546+823000384+844445809+868916443+890335976+907030342
1528+922103085+937477946+951927100+963969085+974528024+984759679+993591975
1519+1000141476+1005406876+1010185149+1014273056+1017576605+1020391507
1510+1022912482+1025381738+1028327488+1031308377+1033011506+1033343347
1502+1032282433+1028431056+1017914786+995466374+962275930+929144535+905674377
1492+896550995+904254542+924515735+945484337+959970084+968202899+971665631
1482+971069717+967256319+961483514+954757260+947449624+939006568+927871201
1472+913913797+900296294+889802085+883492680+882654689+887888451+896296433
1462+903932608+909828863+915320885+922021511+929156886+934411521+937990635
1452+940856793+942755896+942879279+941581506+940808840+941979068+944362987
1442+945939232+945044833+940907850+932883823+921083057+907897924+895238822
1432+882631505+869629532+857116601+845848603+835025724+823426017+811244796
1422+800084858+791429844+786347801+785097123+785462518+784321484+780085689
1412+772956325+764657194+757366863+752226762+749180879+747917122+748367789
1402+750913136+756864808+767880491+784049683+803837488+825779684+847427755
1392+865072134+877074356+884299297+887734618+887595844+883991564+877492724
1383+869522991+862991192+861532980+866717270+876341915+885549447+888862441
1373+882815589+867859559+847103047+824780132+805255871+791283805+783934292
1363+783219816+786818548+790862861+793481261+795499454+798828234+804958707
1353+813911876+824378541+834955050+845100112+855041406+864873782+873986729
1343+881802695+888866140+896562884+905514996+914713083+922548005+927778729
1333+929429149+926841199+920320562+911609338+903467872+898479094+897902467
1323+901341289+907248244+913522048+917747869+917704936+912346535+902252663
1313+889287480+875837879+863641201+852886817+842468832+831131876+818636053
1303+806150930+795605532+788489841+785171959+785342172+788866332+795978853
1293+806766791+820669372+836437304+852479876+867361929+880247586+891070399
1283+900222647+907947528+914002240+917910157+919507472+919158260+917330888
1273+913897020+907896338+898194215+884595206+868421456+851990107+837375759
1264+825393483+815593803+807076307+799113245+791163327+782871000+774554631
1254+767739009+764796298+767456442+775233769+785167071+793213159+796367961
1244+794146528+788432574+781907380+776607435+773764130+774263939+778474569
1234+785460074+792667246+796735139+795029368+787000321+774729864+762414691
1224+754783470+755013923+763433464+777913464+795463456+813702296+831338352
1214+847833309+862929896+876450041+888369964+898907039+908346675+916738475
1204+923860640+929430602+933254304+935243369+935378576+933734694+930802683
1194+927847818+926467283+927464524+930404659+934295138+938158801+940845762
1184+940992396+937641224+930773290+921281672+910723328+900904889+893084365
1174+887351521+883013875+879538857+876753017+874179598+870766933+865630266
1164+858911145+851700076+845115370+839451086+834148961+828596502+823032617
1154+818722184+817204923+819314597+824829935+832840818+842189435+851635742
1145+860083091+867057433+872963662+878671275+884645471+890286042+894052675
1135+894369589+890639812+883636869+875061910+866605445+859327862+854050308
1125+852125710+855103626+863227589+874573527+885936573+894370580+897851608
1115+895237633+886776413+875059598+864662418+859780379+861849563+869347625
1105+879440837+889589532+898093025+903902951+906460056+905961700+903746212
1095+902144669+903573356+909266702+918465317+928794728+937631977+943354848
1085+945741144+945724169+944849982+944643704+946160173+949837307+955491617
1075+962407768+969594729+976163517+981676081+986211748+990024749+993159075
1065+995464261+996814214+997030466+995512412+991019018+982138769+968631769
1055+952760798+938941309+931373960+931656527+938483178+949129239+960890044
1045+971686635+980259283+986086977+988800623+987451132+980591058+967754742
1035+951251727+935650178+924099547+915119033+904155333+888426371+869285141
1026+850019932+832734938+817693239+804509229+793428156+786196016+785828111
1016+794545279+811553651+833289173+855794257+876622434+894650570+908147729
1006+913841273+910190956+902092489+899032867+906515473+921510672+937409913
996+950487052+960351331+967324286+971567545+973300133+972077592+965724395
986+950980851+926842388+898044543+874044259+863184656+867632343+883446246
976+904238425+924570756+941405810+954035849+963254940+970247975+975685372
966+979542892+981583741+981768684+980343697+978028273+976144494+975903804
956+977165711+978211301+977132752+973404230+967943318+961961989+956279475
946+951684098+949245224+949668282+952371492+955657339+958169265+960044854
936+962224740+964659518+965731594+963761288+958924230+953546872+950553170
926+951511704+955938783+962204727+968790292+974527562+978029660+977640091
916+972471917+963687971+954703032+949654411+950893597+957574606+966780817
907+975877383+983623929+989622564+993518724+994676270+992114806+984944887
897+973565857+960661243+950482561+946355750+948389201+953580558+958256320
887+960467911+960439047+959542601+959274631+960752658+964498882+970375520
877+977701782+985530034+992956364+999331556+1004356531+1008105330+1010858937
867+1012595951+1012426595+1008877336+1001489778+992183896+983999695+978001787
857+972399261+965401074+958068801+953574284+954217160+959802050+968447552
847+978196836+987802458+996512889+1003697934+1008942331+1012376529+1014676826
837+1016569787+1018268623+1019436209+1019619435+1018438308+1015306558
829+1009198675+998985911+984537417+968085063+954257781+947774265+950314857
819+959368027+970007284+977443126+977633485+967274417+947044003+925644880
809+916174861+925163433+947064149+970865685+989524544+1002118453+1010412233
799+1015984639+1019436143+1020465418+1018263405+1011911000+1000693862+984824607
789+966122617+946793669+926526531+902384237+874363617+850679321+843840648
779+859576215+891265250+926054067+954581432+974555633+987987864+997481661
769+1004622386+1010032307+1013839430+1016004455+1016658559+1016406046
761+1016051219+1015914163+1015728097+1015249490+1014618305+1014100530
752+1013706535+1012997079+1011179417+1007556907+1001961846+994757381+986662415
742+978799288+972775092+970272348+972096416+977512876+984674737+991723982
732+997387538+1000739503+1000783163+996169159+985207374+966783063+941718166
722+912963982+884541176+860490495+843907624+835705721+833996119+834839262
713+833924057+828326749+817468004+802678291+785672758+767408027+748469838
703+730042158+713847272+701171724+692552311+688934359+692674638+706175628
693+729203506+758073875+787524899+813383665+833964612+849615501+861363823
683+870140636+877097210+883800082+891250983+898777975+904257382+905520478
673+902140640+896083550+890696484+889630748+893376906+897225443+898053196
663+895476871+889160464+879176633+867057301+855093785+844676261+835898524
653+828843203+823978800+820860392+817997537+814812748+812712915+813586838
643+817918804+824750739+832854887+841309105+849347994+856423394+862499177
633+868016694+873452045+878944529+884305571+889206502+893376972+896938847
623+900428396+903835513+905721604+904409035+900603894+897818516+899218273
613+904856928+912457832+919577552+924791037+928153437+931009027+934647191
603+938990517+942995199+946143660+949026265+952343750+955809587+958587171
594+960598957+962687693+965438525+968497223+971066217+972589158+973252048
584+974064081+975935640+978598295+980680359+980565893+977245831+971245744
574+964728806+959786792+956801279+954768489+952612909+949590144+944679504
564+936620139+925384572+913549063+905399472+904017748+909124031+917597867
554+925500492+929505637+927594975+919672336+907499569+893881008+882312081
544+876530293+878506412+886728790+897440439+907529490+915701010+921577516
534+924771089+924639912+920678295+913459299+904764258+896433225+889605319
524+885003864+883173983+884244936+887765001+892969634+899203675+905887657
514+912352018+918312144+924292020+930886832+937567313+942805632+945573969
504+946274045+946100000+945897553+945571129+944437558+942108396+939027308
494+936382421+935383199+936229116+937967517+939869592+942307409+945772717
484+949887308+953871712+957315025+960119954+962336499+964319355+966757897
475+970258807+974573401+978501926+981476144+984288272+987291288+989594955
465+990699462+991271399+991942347+992774856+993658818+993938611+992648103
455+990375745+988858880+988129940+985872641+980700835+974601209+970416471
445+967963001+964907606+960971155+957819590+955041280+950138302+942327290
435+933946785+927816378+924945795+924738856+925684907+926528975+927773445
425+931114709+936903697+943575789+949684134+954158770+955703113+955158124
415+955135997+957084110+960810122+965227228+969235344+972276934+974607021
405+976961349+979520699+981569738+982400001+982463014+984376120+990280632
395+996652323+998221368+995101508+991375760+989175067+987860319+987836408
385+990446090+993506769+992839652+988294473+981928991+973578208+962344425
375+952349035+951885950
##END=
