##TITLE=X7619
##JCAMP-DX=5.0
##DATA TYPE=LINK
##BLOCKS=1


$$ === CHEMSPECTRA SPECTRUM ORIG ===
##TITLE=X7619
##JCAMP-DX=5.00
##DATA TYPE=INFRARED SPECTRUM
##DATA CLASS=XYDATA
##ORIGIN=ComPlat
##OWNER=
##XUNITS=1/CM
##YUNITS=TRANSMITTANCE
##XFACTOR=1
##YFACTOR=8.9762808e-010
##FIRSTX=3997.453
##LASTX=373.96442
##MAXX=3997.453
##MAXY=0.9638208109951898
##MINX=373.96442
##MINY=0.6703051896852507
##NPOINTS=2559
##XYDATA= (X++(Y..Y))
2559A058241514A058508253A058426180A057765210A056895206A056257013A055997844
2552A056180318A056860079A057792236A058512702A058863904A059025063A059004079
2545A058590924A057845889A057188439A056928806A056968249A057002446A056861075
2538A056633581A056506487A056520365A056598055A056767714A057131532A057592232
2531A057825570A057536520A056703436A055706471A055168147A055448829A056263122
2524A056919775A056976881A056626276A056535305A057196407A058193306A058646171
2517A058342645A057673708A056874090A056033038A055531036A055662047A056027261
2510A056064579A055750495A055488870A055680906A056261130A056605692A056122349
2503A054953733A054008296A054006304A054795961A055905213A057071704A057990912
2496A058111034A057103046A055377048A053854508A053096591A053095064A053903978
2489A055431764A057011344A057913885A057796619A056826148A055904018A055931973
2482A056588095A056902378A056313654A055019007A053650918A052859933A053309212
2475A054895897A056497788A057102182A056401305A054975048A054007566A054427494
2468A055992001A057372042A057520783A056330321A054659239A053613003A053447262
2461A053781798A054236322A054510364A054284065A053796539A054183067A055559854
2454A057175159A058425582A058859123A058260174A056920771A055571010A054755389
2447A054567803A055000016A055899237A056700979A056862802A056468305A056086956
2440A056011789A056102826A056265977A056497522A056576807A056234237A055701756
2433A055521274A055804348A056472953A057384924A058054193A057974245A057015527
2426A055584622A054752733A055374459A056488492A056330785A054578029A052958342
2419A053202902A054989923A057198931A058857795A059460264A059216633A058682294
2412A058323587A058318010A058469407A058379698A057876036A057150324A056499182
2405A056216773A056396325A056677937A056713463A056613859A056660872A056864263
2398A056942949A056713662A056379857A056363323A056814461A057328747A057377553
2391A056932458A056560538A056719240A057149394A057145610A056063583A054130078
2384A052810796A052642997A052452887A051155716A049122010A048024246A048059838
2377A047982545A047054970A045765635A045329837A046107143A047601396A049738291
2370A052268222A054328223A055160643A054754260A053814932A053111133A052933972
2363A053104427A053399386A053904310A054681019A055312240A055153603A054257305
2356A053783922A054436259A055583560A056344863A056331184A055764042A055249224
2349A055177708A055453079A055874734A056388556A057103643A058136532A059187284
2342A059394525A058341317A057012008A056303959A056080449A055943195A055643654
2335A055124985A054470656A053750655A053229396A053385375A053793617A053475749
2328A052498107A052614510A054898486A057859701A059555950A059211122A057455244
2321A055533227A054200465A053800988A054635931A056152695A056901581A055953820
2314A053497263A050868061A049695395A050318050A052114699A054234064A055852490
2307A056686105A057094148A057282598A056872629A055595778A053842091A052064898
2300A050222630A048644046A048675454A050365063A052171141A053268308A053793949
2293A054196348A054600340A054560498A053659883A052179508A051102993A051402467
2286A052870093A054439779A055595512A056475277A056968846A056760144A055837084
2279A054462688A053040349A051982160A051348615A050883400A050669053A051061624
2272A051792050A052074592A051718875A051731558A052909801A054513153A055437475
2265A055445576A055195372A055251282A055324591A055017413A054690381A054799414
2258A054994039A054576501A053464261A052476792A052459062A053283780A054405515
2251A055469680A056296190A056911807A057420715A057645553A057231468A056294132
2244A055526055A055294842A055241986A054961370A054502994A054251860A054635334
2237A055825729A057407833A058516752A058594178A057876899A056994279A056364917
2230A056074340A055908732A055490729A054750343A054232072A054634603A056053025
2223A057728954A058662638A058543114A057966409A057688980A057794560A057762222
2216A057219979A056465716A056216374A056755761A057530876A057824906A057574436
2209A057235319A056989830A056640088A056152031A055773006A055691597A055852423
2202A056043395A056104354A056148312A056486632A057153843A057707772A057727958
2195A057287445A056739293A056255751A055896979A055944789A056674285A057755781
2188A058389127A058209907A057571249A056846334A056034764A055186673A054606250
2181A054440841A054564615A054952671A055727520A056813598A057874509A058602611
2174A058920811A058974398A058965765A058894117A058513499A057717865A056884914
2167A056601973A056996868A057434194A057153644A056221288A055504342A055613906
2160A056251966A056728802A056763132A056594669A056546129A056631788A056543871
2153A056077394A055543652A055494979A056019359A056639690A056906959A056765854
2146A056380521A055937750A055679644A055876926A056590884A057552391A058355727
2139A058703609A058468345A057689976A056567842A055377646A054389711A053888373
2132A054066265A054733211A055334418A055457661A055145769A054678229A054340906
2125A054502927A055506932A057123962A058448292A058750489A058223918A057544821
2118A057073497A056782189A056554296A056299046A056084101A056119693A056382115
2111A056622558A056974557A057879621A059124799A059747653A059247378A058189123
2104A057327751A056838366A056631721A056746133A057156964A057635593A057959371
2097A058020195A057785197A057341829A056835245A056285964A055741199A055543320
2090A056038018A057038038A057939251A058377573A058538267A058800556A059292266
2083A059871228A060327147A060441027A060082919A059462920A059051026A059107402
2076A059475536A059766844A059518764A058465822A057005168A056127727A056529993
2069A057899542A059145583A059334299A058446499A057230605A056371159A056015175
2062A056059466A056476938A057180604A057866872A058250346A058307917A058082547
2055A057485922A056662997A056251169A056683316A057455045A057750801A057546946
2048A057383396A057383662A057311881A057256966A057415934A057503651A057171307
2041A056748722A056811738A057260286A057509295A057329146A056944543A056536301
2034A056061325A055436147A054758577A054446419A054969603A056213652A057327618
2027A057558035A057188904A057206899A057940446A058548958A058233214A057420183
2020A057083523A057361085A057559031A057193220A056454294A055847045A055748371
2013A056173744A056750648A057059751A057131067A057383728A057929158A058312034
2006A058214223A057983010A058101405A058531094A058882165A058922139A058718881
1999A058409181A057910167A057039432A056083039A055846646A056757554A058230226
1992A059251030A059339345A058787807A058161101A057622113A056884515A055943195
1985A055440463A055879914A056880930A057652127A057915080A057984471A058101472
1978A058083610A057694824A057067919A056615652A056657685A057155437A057709233
1971A057920061A057829156A057763085A057779952A057651928A057286050A056770702
1964A056227065A055887484A055977791A056380588A056772228A056984717A056911608
1957A056409738A055622604A054969205A054666078A054681284A055044173A055670414
1950A056104221A055952691A055379107A054858446A054691842A054915751A055320208
1943A055515962A055328973A055119739A055377048A056043197A056569104A056623156
1936A056393935A056098245A055580041A054696623A053819913A053538566A053894217
1929A054262086A054112017A053641622A053413331A053519043A053514196A053170896
1922A052838087A052899908A053226142A053401312A053289225A053172290A053398855
1915A053974829A054476699A054389379A053595539A052487416A051501673A050679478
1908A049908082A049397647A049475869A049975879A050290891A050106558A049754891
1901A049839886A050682134A052036942A053250512A053817323A053769048A053367181
1894A052652160A051670003A050887915A050856640A051516547A052226455A052506938
1887A052471014A052402487A052212975A051660573A050934928A050531268A050572902
1880A050755443A050950201A051328296A051877045A052244914A052156798A051735741
1873A051321455A051028954A050664803A050209283A049999916A050089095A049931854
1866A049214708A048440788A048205657A048446632A048786612A049050428A049182569
1859A049137084A048996178A048880970A048746571A048431691A047809567A046909616
1852A046049572A045668555A045851958A046256349A046580857A046805430A046986576
1845A047090031A046916256A046099175A044412687A042061710A039455018A036927080
1838A034783345A033102168A031347486A028739599A025095901A020864808A016415848
1831A011737534A006784713A001776314I97000986I92503221I88244570I84513619
1824I81797895I80262008I79671890I79768306I80490897I81981630I84432941I87687454
1816I90983071I93363862I94397149I94385861I93944152I93513002I93277937I93277207
1808I93314127I92933575I91884815I90603714I89959478I90467191I91831295I93350316
1800I94757449I96401306I98495637A000633263A002293057A003431592A004392634
1793A005564237A007139037A008937346A010576754A011957393A013336371A014860173
1786A016348383A017587319A018544841A019262983A019807350A020359154A021124773
1779A022098431A023094401A024011550A024914623A025893062A026885645A027562086
1772A027500000A026643210A025338735A023778943A021813831A019429919A016969909
1765A014859841A013477410A013102502A013653044A014653994A015678516A016664259
1758A017781347A019149369A020651855A021959717A022809933A023270898A023690163
1751A024382009A025355468A026361132A027254112A028231754A029626868A031517410
1744A033580267A035351218A036707753A037997287A039523280A041099075A042367892
1737A043331722A044266602A045298096A046326669A047263474A048142509A048983628
1730A049668369A050038297A050028336A049666643A049118292A048769414A048967758
1723A049608474A050244144A050616662A050848273A051159368A051613627A052102946
1716A052438277A052428251A051961243A051160962A050460749A050315660A050757899
1709A051386332A051798757A051883685A051766884A051677240A051846500A052351158
1702A052993004A053426213A053459480A053182051A052813717A052515903A052319816
1695A052128312A051847961A051591781A051604198A051965692A052573805A053376677
1688A054327559A055157323A055511712A055343449A054960440A054684737A054573380
1681A054469328A054266933A054076027A054072374A054237716A054390641A054479155
1674A054630619A054843372A054872722A054598148A054312618A054420190A054928899
1667A055431299A055566760A055325188A054869004A054314677A053801785A053520239
1660A053478538A053462801A053364591A053354631A053624291A054108697A054520790
1653A054618136A054460895A054390442A054700807A055377845A056162987A056745402
1646A056913268A056690156A056315381A055975932A055616230A055168678A054837131
1639A054864356A055120204A055282890A055346835A055503213A055635286A055456067
1632A055059579A054832881A054863160A054861500A054659305A054416538A054274171
1625A054102919A053792356A053550252A053641821A054002054A054351663A054544893
1618A054618600A054644298A054644033A054581548A054425768A054229814A054117261
1611A054249868A054766412A055541926A056106811A056129919A055861520A055793723
1604A056055216A056390150A056526872A056378131A056035229A055668489A055358854
1597A055071797A054849747A054881023A055240791A055708795A056050634A056360999
1590A056818843A057195411A057062872A056514654A056142734A056196188A056342273
1583A056361331A056398050A056420230A056175670A055828319A055899967A056465251
1576A057040760A057278813A057235386A057021171A056662333A056317505A056308873
1569A056803637A057566933A058183213A058474653A058522065A058364890A057969198
1562A057497874A057326556A057615406A057963089A057810165A057278282A057147203
1555A057790775A058729572A059466107A060000248A060293946A060133717A059850909
1548A060295739A061659511A062947053A063053230A061958454A060465662A059186553
1541A058308913A057953859A058113889A058438730A058527111A058263162A057730017
1534A057155105A057006430A057679485A058979577A060184647A060648867A060260545
1527A059463584A058914768A058972937A059496055A060143744A060696610A061045289
1520A061157177A061100735A060813810A060020899A058790861A057916541A058168605
1513A059328522A060423894A060814806A060746478A060906707A061605725A062450430
1506A062919363A063062726A063234708A063316449A062832509A061806990A060911886
1499A060692227A061044957A061452933A061448750A060932870A060282325A060063928
1492A060533526A061532018A062748776A063734585A063871241A062947186A061674119
1485A061015607A061070721A061171785A060991038A060969457A061581156A062565970
1478A063102966A062699505A061764028A061118265A061048808A061200803A061304656
1471A061403330A061324378A060724034A059855358A059498976A059863990A060287770
1464A060246866A059967312A059850511A059910538A059951309A059872822A059661861
1457A059354950A059122807A059206341A059655752A060257624A060791166A061184335
1450A061427634A061571196A061715488A061772860A061551341A061290513A061518472
1443A062147568A062414572A061915691A061053191A060445476A060407693A060881673
1436A061526772A062055136A062476526A062803757A062810331A062401757A061876846
1429A061551076A061422853A061348814A061311031A061456718A061922730A062450031
1422A062210053A060496672A057680547A054934809A052871421A051036723A048927053
1415A046804434A045137867A043826752A042374930A040418052A037887657A034866016
1408A031369997A027593229A024566807A023631529A024721458A026317041A027524236
1401A028884091A030933733A033368908A035687945A037653322A039153950A040086173
1394A040302246A039642672A038246229A036736770A035677188A035088331A034833147
1387A035099155A036142336A037728955A039236555A040268580A040795085A040780078
1380A040200584A039425071A039055874A039341338A040106094A041301868A043067109
1373A045117814A046748191A047577092A047826765A047880750A048013024A048525649
1366A049689684A051381750A052991676A053939370A054322579A054841779A055951429
1359A057326556A058275844A058416883A057917404A057392361A057461154A058102534
1352A058705202A058948434A059103285A059299570A059260193A058985487A058957863
1345A059443730A060130264A060476552A060084114A058932763A057537516A056636502
1338A056556687A057050588A057736458A058401743A058827316A058694910A057967273
1331A057096737A056550909A056416644A056610473A056883519A056677539A056013914
1324A056254556A058493711A061466014A062705946A061668077A060163067A059805755
1317A060373761A060690833A060124288A058993986A058158644A058389924A059576734
1310A060539103A060442621A060152442A061103192A063177602A064737328A064364145
1303A062003608A058988010A057147203A057366198A059137017A061471791A063606030
1296A065100881A066137887A067238971A068083809A067466399A064942113A061683084
1289A059391205A058816360A059417501A060082454A059942744A058694445A056633913
1282A054455583A052795855A052101485A052843598A055216355A058674923A062318554
1275A065333090A066786704A065919290A063140483A060174687A058853744A059723350
1268A061715222A063400316A064476300A065506666A067042354A069596521A072708403
1261A073741823A070803385A066326536A064092893A065095436A067762222A070030262
1254A070752388A070022161A068392381A065958866A062750436A059416305A056737766
1247A055085343A054924782A056943547A060854581A064917809A067496679A068372261
1240A068115416A067131864A065678382A064124367A062977930A062808338A063696072
1233A064725574A064903798A064530750A064523778A064666676A063880073A062030634
1226A060217849A059391604A059575671A060279868A061061624A061674983A061929370
1219A061601143A060738244A059988760A060114261A061040108A061924988A062259589
1212A062263308A062208858A062133690A062161380A062223267A061723390A060500258
1205A059675939A060347134A061893446A062784965A062668893A062448172A062643727
1198A062857808A062808006A062991543A063972837A065288135A065537012A063849395
1191A060969922A058614098A058045694A059329650A061128557A061156778A058181155
1184A053992692A052189335A054353190A058650022A062648574A065811785A068592119
1177A070456897A070111339A067630812A065193512A064954928A066984849A069901308
1170A072254542A072658999A070496406A067485523A066667844A068752215A070910757
1163A070305632A067526427A065273660A065044572A066553167A068726053A069936236
1156A069194787A067790509A067545485A067767003A066637233A064574974A063500118
1149A064064140A065234615A065549761A064282405A062206733A061227298A062615108
1142A065657731A068297890A068597564A065856872A061288454A057231202A055408191
1135A056451240A060418649A066181181A070857370A072207397A070962817A068963441
1128A066545465A063533253A061393370A061983687A064596687A066694671A067191161
1121A067102979A067380010A067498804A066281316A063338362A059785636A057846885
1114A059280644A063590426A067931681A069542204A068259775A066003820A064315805
1107A063461139A063481327A064487987A065925930A066777143A066631921A065970354
1100A065467223A065356464A065305931A064780157A063699990A062737089A062582703
1093A062871819A062665706A062091790A062369219A063647532A064517669A064212350
1086A063659816A063949065A064778630A065303607A065544449A066009465A066732055
1079A067321908A067458962A066981463A065980712A065033615A064742640A064969470
1072A065088663A064819202A064551467A065032752A066595731A068504269A069410860
1065A068892988A067875438A067310819A067297140A067480211A067621582A067714545
1058A067751730A067428284A066514588A065685288A065870285A066994544A068178166
1051A068571800A067983076A067007492A066521095A066984650A068162230A069319756
1044A069743005A069319690A068573991A068031683A067784201A067764148A068015149
1037A068444374A068790662A068947836A069001755A068914901A068437401A067478684
1030A066303893A065458325A065556667A066680793A068107780A068942391A068976722
1023A068611508A068134739A067779951A067861892A068305460A068671470A068737341
1016A068511042A068020925A067479348A067234057A067368788A067594888A067538313
1009A067186513A066992751A067203645A067449267A067373436A066985048A066440350
1002A066056809A066150570A066574748A067000587A067187775A066871036A066042931
995A065121133A064354252A063622100A062896388A062120875A060795085A058218805
988A054221049A049468166A044362951A038383948A031005049A022015428A010623302
981I96026000I79709075I63932400I48363497I32408067I17568462I04704129
974H92472611H79820832H68193708H59727138H54341573H50722643H48117545
967H46468973H45706275H45471875H45503748H45828323H46682855H48373127
960H50694555H53371700H56891956H61585409H67134922H73433387H80680743
953H88400551H95928656I03950661I14450206I28107716I41997899I53691094
946I63608754I72525001I80469781I87330010I93600586I99859874A005598634
939A010071233A013673031A017218918A020500259A023279265A026101565A028807595
932A030686716A031614490A031820736A031504263A030617724A028590327A024982353
925A020962950A017362879A013324883A008086532A000836122I90610288I78267081
918I66067303I53664931I38787543I22147836I07187246H93955707H79830593
911H63700325H47930622H35544519H26693347H20223962H15690272H14339714
904H19046847H27526165H35068879H43889373H58776854H79924419I00007821
897I15696977I29047509I41216343I52039069I62127516I72908873I83235772
890I90207159I94025030I95977725I96420430I95273196I92463246I87523706
883I80159084I71843978I64570128I58595242I53813141I51556788I52655150
876I55415763I57981152I59445259I59736632I59688557I60404574I62462849
869I65869756I70353311I75559988I81116208I86701512I92204410I97647546
862A002842603A007437980A011363623A014915885A018413033A021867152A024932219
855A027185451A028465357A028930838A028968754A029294723A031022712A034343960
848A037537517A039459003A040482529A041623322A043375548A045118079A046307412
841A046889562A046706358A045451751A043745940A044132203A046494070A048307253
834A049317167A050037301A050709691A051267471A051414685A050868194A049641609
827A048026570A046303229A045009578A045763245A048567750A050955181A051841586
820A051684013A051542975A051800749A051780695A050944291A049337021A047260951
813A044495358A040039160A033328469A024781220A013283316I96674087I76455026
806I57651000I43555766I35055464I32868036I39308404I58536276I84175698
799A001438657A009998854A014175498A015247100A012529250A005341059I95541196
792I87032859I82045841I81357780I85952625I95329970A005856740A014435729
785A020537577A024770862A027949079A030487310A032090197A032253149A030827157
778A028011630A024365674A021020389A018595241A016403896A013582458A009785238
771A005340528A000978223I96848858I92306404I86589689I80238036I76234769
764I75597904I76164316I76550646I76401439I75855745I75331763I74916815
757I73906370I71248415I66400576I59658277I51244099I40773572I29326532
750I20230600I14458507I10281664I06511137I02871490H98949898H93804842
743H86604831H77563682H67481078H55887620H41910715H28189791H19059662
736H14983950H15058919H19861803H30194811H45320876H63426282H83461276
729I04822591I25242652I42154343I55584823I66808619I75890207I82094249
722I85443253I86532982I85759395I83303834I79557611I75646776I73270368
715I73034905I73658158I73407090I71202265I66805033I60499529I52372209
708I42139403I30285913I18841993I09617109I02814118H98025975H94928304
701H93083114H92177851H92389541H93972176H96678538I00034913I03809291
694I08092311I13042409I18461774I23813739I28685284I33016844I36960880
687I40633463I43905374I46439887I48053996I49009792I49753299I50293815
680I50262805I49545261I48404866I47148599I46013584I45321405I45448101
673I46598323I48751819I51754866I55355005I59177325I62642998I64938728
666I65287672I63390357I59673284I55123459I50707834I46944279I44005243
659I41861044I40120372I38008975I34837133I30516994I25570082I20731141
652I16606557I13536244I11566749I10449728I09653165I08537140I06773958
645I04651671I02805087I01598224I00832870I00018910H98827917H97265070
638H95503813H93693751H91924658H90202180H88333086H85957408H82912859
631H79620828H76977282H75732238H75935960H76940296H77865481H78047556
624H77111814H74887666H71554731H67835600H64801409H63352377H63749595
617H65423068H67195614H67851868H66654633H63509020H58881504H53537971
610H48109842H42837692H37760300H33062995H29218961H26865395H26525548
603H28446104H32680186H39084762H47075359H55627654H63688837H70424097
596H75070339H76855235H75165759H69730857H60762750H49040671H35721216
589H21957329H08752020G97089570G87952868G82083959G79776078G80860230
582G84732751G90429810G96916658H03408421H09394131H14464219H18216750
575H20228875H20022829H17121509H11173848H02095048G90301188G76950126
568G63887449G53264395G47087712G46751583G52445455G62656747G74298678
561G83788774G88653347G88753216G86483649G85673872G89485634G98656401
554H11480893H25297701H38031421H48911983H58399622H67565276H77331606
547H88075246H99630257I11418738I22703226I32987428I42204212I50461746
540I57701001I63742555I68634020I72769893I76591948I80286975I83811082
533I87030934I89784707I92007593I93860552I95559457I97068783I98096692
526I98331823I97549204I95551887I92142988I87197471I80867929I73800724
519I66969047I61018663I55812982I50802324I45756274I40846615I36051699
512I30819722I24442437I16734050I08530500I01613696H97821920H97941910
505I01371526I06634513I12124463I16765259I20403114I23584452I26911012
498I30657767I34797225I39044454I42904956I45993065I48482358I51063750
491I54201263I57561954I60503779I62909405I65041585I66854835I68095032
484I68883229I69648915I70689506I72127981I73982268I75975003I77498938
477I77964419I77167590I75390131I73186900I71014280I69112118I67761958
470I67393890I68198354I69787496I71435803I72569756I72968170I72715443
463I72082960I71230154I69905892I67547279I63500386I56828274I46281185
456I31385138I13971246H98284944H88989673H88397563H95098227I05120472
449I14532744I21237659I25090392I27232665I29425471I33309612I39638755
442I47931152I56785975I64634140I70455305I74021445I75571277I75315096
435I73267113I69418233I63886648I56982062I49408870I42379115I37175426
428I34485466I34252592I36011857I39176064I43173354I47548342I51952347
421I56071619I59626736I62319353I63742821I63505632I61494569I57962825
414I53425152I48481096I43612673I39151960I35497836I33234644I32941544
407I34985276I39465445I46094395I54070384I62345117I70213468I77548673
400I84413817I90699267I96248714A001007374A004832351A007444222A008727979
393A008818884A007839515A005904151A003460278A001245825I99668171I98320534
386I96286762I93047455I89118823I85794123I84284730I85027109I87489177
379I90422303I92500830I93099912I92640342I92168818I92529383I93879875
372I95878653I98190452A000746944A003553175A006297918A008311769A009126194
365A009001557A008610115A008252140A007662420A006507948A004896097A003527743
358A003336637A004688589A007006763A009424939A011519137A013094268A013754640
351A013181985A011573255A009441938A007117456A004551535A001436798I97380011
344I91889928I84246084I73711545I60198793I44656651I28668086I13766461
337I01067470H91159703H84077424H79411527H76585442H75233290H75493455
330H77825175H82364242H88512904H95097696I00678352I03931405I04326300
323I02425000H99147046H95013631H90649932H87694229H88308783H93579406
316I02792272I14178554I25821349I35941803I43167046I46977281I47679619
309I45938283I42540273I38361373I34158899I30437908I27588316I25857007
302I24986472I24233734I23346001I23641624I27443028I35948045I47996956
295I61018929I72630249I81343902I86617579I88704141I88397561I86949989
288I85887684I86188221I87517730I88678311I88860319I88372793I88299087
281I89449242I91539058I93502112I94598747I94948223I94943508I94461958
274I92927133I90205101I87168453I84940720I83625222I82246244I80043876
267I77380941I75122264I73487437I71999957I70524032I69815717I70722176
260I73100842I75812583I77667202I78184211I77527292I76028324I73950594
253I71582618I69340276I67731147I67238375I68072854I69861734I71602871
246I72124794I70951928I68875659I67383332I67476627I69291537I72605149
239I77108160I82190598I87175359I92023995I97181800A002468824A006732322
232A008897438A008977785A007926038A006766519A005936821A005376319A005078038
225A005210047A005658330A005924736A005694320A005162171A004664087A004255712
218A003790165A003310541A003233580A003958628A005351750A006758617A007324034
211A006355953A004155113A003352042A006736771A011472921A013546933A012759733
204A010947811A009763923A009507012A009652832A009912000A010420377A011273847
197A012206933A012993668A013964338A015491128A017037242A017466931A016305620
190A014099534A011665421A009624478A008542385A008850691A010537311A013201973
183A016328529A019302692A021444567A022334824A021998894A020560950A017734002
176A013015980A006781460A000837782I97074361I95572804I94933880I94283535
169I93722103I93198586I92454813I92039865I93162663I96206349I99889025
162A002213308A002274265A001066007A000474760A001608780A004100862A006681325
155A008309511A008921874A009102223A009183566A008897305A007727229A005585818
148A003178201A001363490A000093146I98495704I96086559I93426147I91476706
141I90642958I90545413I90502782I90258953I90176348I90435185I90301716
134I88768153I85887950I82691472I79708079I76901250I75380104I77268123
127I82819695I89154814I93035901I94068856I94141367I94557511I95027042
120I94857119I93779674I91748292I89082502I86816919I85975069I86525280
113I87549603I88033079I87129209I84168593I78938409I72233428I65943130
106I61755662I59850180I59496388I60762748I64569730I70477218I76187358
99I80013131I82307267I84106241I85482364I85976331I85800298I85104866
92I82621218I77311750I71209968I67667866I67372110I68268608I68712110
85I69510532I72653224I78991199I87628622I96608150A003651650A007441433
78A008888407A010117847A011943847A013039154A011481354A006861076A000655840
71I94943707I91181813I89560798I89205745I88945315I87848214I85296304
64I80798937I74336856I67080935I61263223I58842723I59685502I62204543
57I65739009I70071765I74079813I77124827I80624365I86181514I92777197
50I97604451I99690482A000920320A002944132A005204602A006498121A006979073
43A007517530A007682274A006146587A002739879I98324784I92868965I85519483
36I76509874I66729866I55922811I45279439I40756042I44840121I52601231
29I59626205I64407110I66710211I65958071I61913302I56938170I54980761
22I57293489I60837584I61005183I55582831I49187153I50197199I57037110
15I61542644I61936610I61344300I59824084I54445889I46734713I44290774
8I50807238I59375138I62932778I61246622I55250753I43406228I26847067
1I15114629
##END=


$$ === CHEMSPECTRA PEAK TABLE EDIT ===
##TITLE=X7619
##JCAMP-DX=5.00
##DATA TYPE=INFRAREDPEAKTABLE
##DATA CLASS=PEAKTABLE
##$CSTHRESHOLD=0.93
##MAXX=3997.453
##MAXY=0.9638208109951898
##MINX=373.96442
##MINY=0.6703051896852507
##$CSSOLVENTNAME=- - -
##$CSSOLVENTVALUE=0
##$CSSOLVENTX=0
##NPOINTS=30
##PEAKTABLE= (XY..XY)
417.87690865519926, 0.8444490397288593
457.5398016340887, 0.8606841524684617
497.2026946129786, 0.8683403697448487
519.8672048866297, 0.861270900527375
555.28050218921, 0.8755285700237203
607.6921821970286, 0.8904828393034092
797.5074557388584, 0.8288212980533081
824.4215616888191, 0.7968192664043503
842.8364762861606, 0.7856339776547832
903.7473476465984, 0.8905985911372094
913.6630708913212, 0.8835216123632184
950.4929000860043, 0.8374345268929555
977.4070060359654, 0.8386113603919834
1012.8203033385453, 0.797450598752369
1090.7295574042219, 0.8059101662315136
1172.8884071462076, 0.6703051896852507
1199.8025130961687, 0.6999489037250702
1228.1331509382326, 0.7419125407221878
1249.381129319781, 0.7749693365299462
1364.1202125801406, 0.800843891411656
1415.115360695856, 0.731552478269316
1491.608082869429, 0.8808942998544623
1510.022997466771, 0.8373685440480508
1616.262889374511, 0.854144092623407
1654.5092504612976, 0.7309741939455691
1739.5011639874901, 0.75891929585025
2364.1917284050173, 0.9196799357991405
2871.3101457779608, 0.9097257816616727
2927.97142146208, 0.8886154255149422
2953.4689955199374, 0.8793809976506711
##END=


$$ === CHEMSPECTRA PEAK TABLE AUTO ===
##TITLE=X7619
##JCAMP-DX=5.00
##DATA TYPE=INFRAREDPEAKTABLE
##DATA CLASS=PEAKTABLE
##$CSTHRESHOLD=0.93
##MAXX=3997.453
##MAXY=0.9638208109951898
##MINX=373.96442
##MINY=0.6703051896852507
##NPOINTS=46
##PEAKTABLE= (XY..XY)
2953.4689955199374, 0.8793809976506711
2935.054080922596, 0.8915935122271725
2927.97142146208, 0.8886154255149422
1739.5011639874901, 0.75891929585025
1654.5092504612976, 0.7309741939455691
1616.262889374511, 0.854144092623407
1607.7636980218917, 0.8614433968178805
1510.022997466771, 0.8373685440480508
1491.608082869429, 0.8808942998544623
1454.7782536747459, 0.8757240734195443
1415.115360695856, 0.731552478269316
1385.3681909616885, 0.8734234535481323
1364.1202125801406, 0.800843891411656
1328.7069152775603, 0.8485470377530524
1263.5464482408129, 0.786081847390043
1249.381129319781, 0.7749693365299462
1228.1331509382326, 0.7419125407221878
1199.8025130961687, 0.6999489037250702
1172.8884071462076, 0.6703051896852507
1161.556152009382, 0.7052429292295257
1090.7295574042219, 0.8059101662315136
1038.3178773964032, 0.8683599200844312
1012.8203033385453, 0.797450598752369
977.4070060359654, 0.8386113603919834
950.4929000860043, 0.8374345268929555
913.6630708913212, 0.8835216123632184
903.7473476465984, 0.8905985911372094
842.8364762861606, 0.7856339776547832
824.4215616888191, 0.7968192664043503
797.5074557388584, 0.8288212980533081
780.5090730336196, 0.8849604688845667
772.0098816810005, 0.887125011929563
743.6792438389366, 0.8705338200045333
726.6808611336978, 0.86822032545357
716.7651378889755, 0.8683504429271626
607.6921821970286, 0.8904828393034092
566.6127573260355, 0.8888100941166518
555.28050218921, 0.8755285700237203
535.4490556997653, 0.8850389081143375
519.8672048866297, 0.861270900527375
497.2026946129786, 0.8683403697448487
457.5398016340887, 0.8606841524684617
417.87690865519926, 0.8444490397288593
405.12812162627006, 0.8572175469333688
398.0454621657541, 0.8520170417080563
385.29667513682534, 0.8476219144273339
##END=

##END=

