##TITLE=CZ-PHOS29
##JCAMP-DX=4.24
##DATA TYPE=INFRARED SPECTRUM
##DATE=12/10/2021
##SAMPLING PROCEDURE=Diamant-ATR
##ORIGIN=Angelika Moesle
##XUNITS=1/CM
##YUNITS=TRANSMITTANCE
##RESOLUTION=4
##FIRSTX=3997.453
##LASTX=373.96442
##DELTAX=-1.4165319
##MAXY=0.89838105
##MINY=0.22386736
##XFACTOR=1
##YFACTOR=8.3668256e-010
##NPOINTS=2559
##FIRSTY=0.89637268
##XYDATA=(X++(Y..Y))
3997+1071341416+1070704893+1070761742+1071254291+1071795495+1072054165
3989+1071919523+1071710507+1071879486+1072373602+1072664828+1072492001
3980+1072162876+1072053025+1072184604+1072337768+1072335418+1072215166
3972+1072153971+1072177694+1072149341+1072096410+1072154185+1072185103
3963+1071987200+1071828906+1072152048+1072814430+1073239942+1073166424
3955+1072805240+1072417485+1072033719+1071609988+1071319475+1071405888
3946+1071735298+1071999168+1072273653+1072786505+1073326427+1073501747
3938+1073250130+1072679005+1071930565+1071369342+1071374115+1071753250
3929+1071897154+1071583701+1071056317+1070590127+1070320843+1070248535
3921+1070256300+1070250601+1070342998+1070746212+1071346118+1071722617
3912+1071679660+1071368273+1070948817+1070478922+1070196245+1070539262
3904+1071489380+1072138583+1071926789+1071666980+1072123410+1072666965
3895+1072297874+1070973964+1069625832+1069216705+1069521039+1069711676
3887+1069869043+1070588773+1071452193+1071331015+1070372064+1069743306
3878+1069690304+1069535359+1069272771+1069334749+1069494610+1069371295
3870+1069534361+1070451210+1071410376+1071911401+1072210891+1072293101
3861+1071800838+1070912627+1070026624+1069102936+1068142702+1068158517
3853+1070212345+1072220224+1072337982+1071645323+1071196516+1071029246
3844+1070638071+1069593419+1067998300+1066635137+1066562616+1068008559
3836+1069768738+1070712587+1070901585+1070902582+1070892181+1070623609
3827+1070104774+1069655397+1069265077+1068800526+1068859654+1069986018
3819+1071003600+1070969761+1070801280+1071272813+1071577076+1070905931
3810+1069493256+1068142132+1067806595+1068636818+1069402212+1069359896
3802+1069240499+1069597978+1069693296+1069360822+1069442819+1070037168
3793+1070228445+1069633526+1068779581+1068133512+1067739417+1067769836
3785+1068480091+1069364669+1069504868+1068951268+1068693026+1069122598
3776+1069439613+1068925194+1067641819+1066138030+1065151223+1065123084
3768+1065746641+1066565608+1067465573+1068117555+1068043822+1067451966
3759+1067295454+1068134866+1069249333+1069732620+1069636091+1069818107
3751+1070965843+1071969177+1071227291+1069357403+1068345378+1069496676
3742+1071233061+1071512533+1070627385+1069838909+1070292276+1072128111
3734+1073741823+1073686541+1072378232+1070567402+1068522336+1066782460
3725+1066350679+1067556332+1069408553+1070703825+1070997829+1070564980
3717+1069891484+1069188138+1068480020+1068163290+1068950057+1070570322
3708+1071745343+1071904705+1071327240+1070528932+1069944699+1069557229
3700+1068917999+1067929839+1067015412+1066475846+1066140452+1065663434
3691+1065152078+1065487045+1067224215+1068945854+1069023291+1067569155
3683+1065580297+1063917146+1062785368+1061864600+1061291195+1062037712
3674+1063784142+1064199182+1062646309+1060511767+1059324921+1059200537
3666+1059243708+1058900192+1058115349+1057250148+1056792080+1056874718
3657+1057227922+1057286124+1056466802+1054867979+1053331348+1053016542
3649+1054435557+1056066722+1056291624+1055383395+1054065611+1052747257
3640+1051636495+1050777136+1050048999+1049346010+1048690609+1047997024
3632+1047025391+1046056039+1046339856+1048153608+1049274272+1048595505
3623+1046903857+1045113472+1043918505+1043922209+1044820109+1045230376
3615+1044467831+1043083937+1041873867+1041201440+1041169881+1041597387
3606+1041715858+1040971123+1039803155+1039028072+1038911240+1038946218
3598+1038594083+1037980143+1037572797+1037479331+1037415073+1037284064
3589+1037311847+1037615754+1037902350+1037812588+1037303584+1036434393
3581+1035384540+1034511575+1033940022+1033352512+1032506403+1031587844
3572+1030773793+1029867345+1028675156+1027484605+1026789595+1026365223
3564+1025579525+1024569424+1023866150+1023476827+1022919594+1021981230
3555+1020911003+1019966014+1019184876+1018437718+1017540673+1016522095
3547+1015760048+1015574114+1015722434+1015736967+1015514843+1015172111
3538+1014729715+1014167566+1013513874+1012729245+1011721566+1010601186
3530+1009733065+1009354214+1009174976+1008684708+1007940044+1007639058
3521+1008189310+1009083647+1009500397+1009134299+1008283916+1007503561
3513+1007236271+1007434957+1007506197+1006984155+1006129640+1005436482
3504+1004935243+1004360200+1003641894+1002964979+1002536973+1002425698
3496+1002459251+1002284644+1001716440+1000956530+1000304406+999735703+998959124
3486+997883126+996812970+996152938+995972489+995811774+995147752+994188302
3476+993702878+993933194+994275570+994272721+994200627+994456945+995015604
3466+995574048+995872968+995934020+996052135+996403273+996801643+996956802
3456+996737243+996254312+995914429+996134131+996904299+997916609+998968884
3446+999939732+1000666088+1001123159+1001447511+1001777919+1002192959
3438+1002627305+1002859901+1002851281+1002909911+1003271023+1003808238
3429+1004312113+1004704998+1004929544+1004965092+1004956116+1005091471
3421+1005387470+1005739677+1006151226+1006707533+1007305017+1007672611
3412+1007784457+1007997035+1008597653+1009434501+1010127730+1010538139
3404+1010931166+1011631876+1012543311+1013205836+1013347246+1013149129
3395+1013014630+1013268883+1013942165+1014709910+1015263796+1015698640
3387+1016257797+1016919681+1017556845+1018201703+1018837798+1019250416
3378+1019366536+1019488569+1019938231+1020572046+1020909863+1020802434
3370+1020717944+1021177723+1022132329+1023077317+1023579768+1023572217
3361+1023337198+1023304286+1023687695+1024320799+1024907027+1025297275
3353+1025447732+1025349351+1025153229+1025124876+1025312164+1025498312
3344+1025627825+1025965357+1026638782+1027353383+1027770773+1027910474
3336+1028002515+1028157175+1028309698+1028371035+1028338479+1028245013
3327+1028045757+1027702954+1027411371+1027506048+1028043905+1028652573
3319+1028903478+1028754231+1028557754+1028645307+1028934039+1029052510
3310+1028837083+1028508100+1028327437+1028333849+1028446193+1028591735
3302+1028703295+1028760287+1028815782+1028890940+1028933042+1028942659
3293+1029013400+1029222345+1029567926+1029976626+1030308316+1030427285
3285+1030314514+1030100226+1030026850+1030322991+1030929950+1031377261
3276+1031161263+1030279179+1029255400+1028642671+1028571147+1028758506
3268+1028903763+1029017460+1029330415+1029973278+1030850019+1031691853
3259+1032171579+1032178845+1032020694+1032107178+1032424692+1032539173
3251+1032156120+1031528858+1031221033+1031476782+1031959784+1032243388
3242+1032335144+1032452333+1032588257+1032641544+1032702240+1032856045
3234+1032917097+1032674528+1032318047+1032357798+1033003582+1033809725
3225+1034189929+1034145405+1034087274+1034102661+1033902123+1033436717
3217+1033069051+1033076816+1033363768+1033700729+1033974288+1034129162
3208+1034107790+1033971795+1033862656+1033749671+1033478320+1033141857
3200+1033082871+1033461152+1034091833+1034685755+1035044587+1035129148
3191+1035095523+1035125586+1035200244+1035177020+1034992582+1034687963
3183+1034414974+1034455723+1034967007+1035674199+1036048134+1035876376
3174+1035510420+1035452360+1035774005+1036118590+1036260926+1036355888
3166+1036543247+1036688789+1036683018+1036640275+1036638993+1036564049
3157+1036346840+1036149508+1036203079+1036546453+1036963701+1037147570
3149+1036943469+1036471723+1036042791+1035923038+1036109756+1036322619
3140+1036272894+1035950394+1035603316+1035451007+1035456421+1035374353
3132+1035012315+1034466979+1034051013+1033942872+1033972365+1033803385
3123+1033237959+1032271242+1031013157+1029720877+1028751524+1028311693
3115+1028305424+1028460868+1028472338+1028096266+1027345261+1026519955
3106+1025866121+1025338095+1024809714+1024229042+1023431733+1022133967
3098+1020288087+1018198568+1016177225+1014249135+1012307580+1010495040
3089+1009263527+1008944018+1009376726+1010160927+1011100573+1012135537
3081+1013094133+1013847915+1014462140+1014909594+1014931536+1014398167
3072+1013542513+1012730029+1012178993+1011891899+1011699126+1011418372
3064+1011013234+1010536715+1010052501+1009736484+1009847475+1010422518
3055+1011155499+1011686944+1011874873+1011714584+1011129710+1009967655
3047+1008239533+1006266633+1004425312+1002824709+1001428847+1000376857
3038+999879535+999902688+1000260309+1000920270+1001911564+1003029165+1003930556
3029+1004474681+1004743396+1004819693+1004710127+1004450958+1004161798
3020+1003964608+1003852192+1003668395+1003268316+1002680093+1002060953
3012+1001527656+1001054698+1000494971+999713049+998777108+997984927+997599024
3002+997583565+997660646+997574090+997265054+996854360+996490897+996205655
2992+995928250+995645501+995488347+995617789+995979043+996213563+995958384
2982+995262875+994529894+993986838+993402177+992383242+990758274+988575076
2972+985896409+982683732+978767639+973883048+967811967+960564156+952416807
2962+943822432+935323374+927547681+921271431+917414680+916748165+919396770
2952+924697540+931677207+939599867+947982448+956320647+964096839+971006834
2942+976971056+981951321+985926329+989025949+991509279+993585119+995341381
2932+996826648+998091287+999150188+999972289+1000519121+1000765467+1000676061
2922+1000220059+999461931+998615323+997882770+997259284+996596688+995852807
2912+995196266+994899127+995148322+995884651+996814039+997664849+998432381
2902+999305347+1000373010+1001474297+1002386658+1003103824+1003777819
2894+1004415125+1004857378+1005082851+1005282606+1005611517+1006089818
2885+1006718931+1007473925+1008162524+1008444204+1008089290+1007223947
2877+1006240845+1005390533+1004585814+1003658066+1002570812+1001287365
2868+999669664+997568819+994852110+991432696+987395710+982881136+977789452
2859+971978039+965820616+960204896+955939018+953500498+953304733+955705567
2849+960534520+966918698+973779038+980411484+986499378+991802642+996148949
2839+999638960+1002536973+1004958040+1006886985+1008448122+1009894778
2830+1011319064+1012586553+1013616032+1014548910+1015546900+1016547954
2822+1017347473+1017851704+1018143001+1018333923+1018462296+1018523704
2813+1018551986+1018618167+1018746042+1018887879+1019025870+1019249775
2805+1019639881+1020085197+1020332326+1020272984+1020094815+1020055633
2796+1020207301+1020443673+1020725781+1021121729+1021660725+1022224940
2788+1022606141+1022725538+1022777543+1023032722+1023523703+1024043535
2779+1024359410+1024318519+1023921360+1023426105+1023224142+1023487228
2771+1024017391+1024454800+1024568783+1024378360+1024080865+1023878260
2762+1023856247+1023982626+1024165497+1024304699+1024323506+1024174188
2754+1023881110+1023606269+1023551486+1023708426+1023823335+1023700020
2745+1023430165+1023244373+1023239031+1023330288+1023400815+1023427031
2737+1023470629+1023571575+1023673946+1023660624+1023468777+1023161593
2728+1022899932+1022803474+1022833750+1022844864+1022766358+1022684433
2720+1022719768+1022850207+1022898293+1022733232+1022452834+1022317052
2711+1022504483+1022950227+1023393691+1023619163+1023674516+1023751882
2703+1023877263+1023918867+1023856889+1023780948+1023680358+1023502616
2694+1023336201+1023331072+1023484379+1023620446+1023573570+1023379871
2686+1023237321+1023232833+1023258835+1023265389+1023367404+1023617952
2677+1023905616+1024110572+1024193494+1024156236+1024037623+1023906756
2669+1023803032+1023712629+1023613963+1023545716+1023596224+1023745827
2660+1023783085+1023553053+1023220865+1023089927+1023227490+1023447904
2652+1023547497+1023409506+1023008287+1022477768+1022102479+1022106896
2643+1022438657+1022800553+1022924794+1022813732+1022693267+1022754604
2635+1022977084+1023175913+1023175414+1022969176+1022721477+1022556558
2626+1022383305+1022066646+1021711376+1021561773+1021656593+1021819303
2618+1021942975+1022053111+1022131616+1022097564+1021961426+1021865253
2609+1021966555+1022314986+1022835603+1023415063+1023978565+1024462351
2601+1024760701+1024772099+1024520340+1024201188+1024082361+1024285179
2592+1024626914+1024763764+1024558524+1024217074+1024022805+1024083928
2584+1024379001+1024826312+1025235297+1025401000+1025321425+1025212002
2575+1025297204+1025597050+1025877305+1025903379+1025783626+1025822878
2567+1025984164+1025830359+1025146248+1024352714+1024143698+1024803088
2558+1025974333+1027084027+1027797773+1027985560+1027621029+1027039859
2550+1026887193+1027408878+1028113648+1028413138+1028279849+1028081305
2541+1028066416+1028197639+1028350162+1028531324+1028850547+1029304982
2533+1029708339+1029867772+1029739399+1029400371+1028973007+1028611539
2524+1028511021+1028755585+1029119903+1029218426+1028970514+1028715905
2516+1028797901+1029281829+1030057767+1030869325+1031265771+1030904303
2507+1029931318+1028809941+1027850419+1027116156+1026663787+1026620829
2499+1026976456+1027370338+1027306222+1026761598+1026350619+1026565619
2490+1027162461+1027658358+1027991330+1028263322+1028349236+1028203623
2482+1028098688+1028218298+1028404732+1028469132+1028415133+1028258762
2473+1027906840+1027322892+1026676182+1026240910+1026180357+1026463391
2465+1026922955+1027335787+1027514740+1027415005+1027101908+1026615344
2456+1025975615+1025319716+1024888576+1024832795+1025087761+1025453218
2448+1025760829+1025950468+1026028831+1026036881+1026048279+1026081049
2439+1026027121+1025804071+1025550744+1025476513+1025534644+1025488054
2431+1025335174+1025340304+1025533932+1025566845+1025271772+1024973279
2422+1024945140+1024905602+1024373587+1023338765+1022352600+1021997401
2414+1022323820+1022846217+1023128040+1023222859+1023392551+1023615174
2405+1023669957+1023561388+1023529188+1023683279+1023878332+1023948146
2397+1023861947+1023591736+1023034788+1022235626+1021537766+1021300610
2388+1021551088+1022044419+1022508828+1022710079+1022527849+1022109105
2380+1021718500+1021351831+1020787688+1020107923+1019824533+1020384331
2371+1021826783+1023930550+1026312720+1028306920+1029101523+1028337482
2363+1026631444+1025159000+1024570279+1024678776+1025132499+1025671424
2354+1025813404+1025170968+1024002359+1022822566+1021834549+1021091951
2346+1020778213+1020952108+1021147018+1020806637+1020040459+1019498328
2337+1019625419+1020140621+1020322068+1019883733+1019316170+1019131660
2329+1019147546+1018896998+1018312693+1017625377+1016959076+1016338297
2320+1015934299+1015971985+1016368360+1016704325+1016664502+1016311511
2312+1015913355+1015760119+1016098648+1016853286+1017467867+1017432176
2303+1016882708+1016360453+1016123440+1015955600+1015585441+1015103436
2295+1014869059+1015021582+1015274980+1015268854+1014961812+1014687185
2286+1014949559+1015959304+1017183907+1017710650+1017284853+1016643629
2278+1016620975+1017280579+1018114648+1018768981+1019276560+1019774167
2269+1020363672+1021166823+1022097279+1022684718+1022568669+1022035301
2261+1021632656+1021514471+1021597322+1022020341+1022888320+1023789995
2252+1024180529+1024109788+1023964887+1023587533+1022301023+1019756428
2244+1016040802+1010712106+1002064657+987614343+965632117+936862926+905424970
2234+878242705+862789058+863528877+879180356+903567834+929574152+952357963
2224+969899562+982299895+990893558+997054329+1001492748+1004716182+1007495368
2214+1010313237+1012776406+1014162508+1014414552+1014118340+1013683638
2206+1013168934+1012805827+1012886755+1013184393+1013369971+1013866153
2197+1015213287+1016710309+1016970902+1015954603+1015112982+1015272059
2189+1015665371+1015341446+1014385700+1013326016+1012348471+1011823652
2180+1012675246+1015157150+1017891384+1019324291+1019677851+1020293643
2172+1021595826+1022816582+1023034146+1021698767+1019104874+1016792590
2163+1016320487+1017572802+1019469191+1021816810+1024690317+1026853069
2155+1026734883+1024157661+1020438402+1017296465+1015588504+1014936095
2146+1014607255+1014389690+1014461998+1015061120+1016461399+1018610473
2138+1020732620+1021982726+1022356234+1022261770+1021619264+1020235655
2129+1018552770+1017234558+1016426563+1015936437+1015692727+1015626403
2121+1015527879+1015326629+1015136135+1014867705+1014239446+1013410791
2112+1013115789+1013696176+1014398595+1014189935+1013026028+1011777774
2104+1011221751+1011660514+1013005867+1014562018+1015216849+1014558384
2095+1013473980+1013185319+1014033707+1015437762+1016590627+1017038437
2087+1016852289+1016351405+1015656538+1014661325+1013477685+1012600516
2078+1012426336+1012794999+1013156111+1013059938+1012475420+1011793019
2070+1011497803+1011812538+1012683011+1013834237+1014667238+1014625706
2061+1013952851+1013503331+1013619807+1013831459+1013849554+1014159231
2053+1015275479+1016864542+1017983141+1018215096+1018335490+1019327425
2044+1020970844+1022184689+1022466654+1022157975+1021597749+1021127214
2036+1021607153+1023468207+1025295708+1025103789+1023192369+1022002531
2027+1022899860+1024572701+1025087404+1024403294+1023864867+1023886239
2019+1023471698+1021933856+1019943502+1018620732+1018532751+1019572417
2010+1020983524+1021754262+1021537410+1020736110+1019680986+1018518361
2002+1017637274+1017328665+1017291336+1017057743+1016519174+1015800013
1993+1015300270+1015837842+1017642973+1019281262+1018919866+1016614634
1985+1014234816+1013084373+1012779113+1012633856+1012819862+1013497703
1976+1014059710+1014169703+1014207032+1014191645+1013733434+1013023178
1968+1012481903+1011744362+1010428146+1009245361+1009031073+1009497405
1959+1009721666+1009157024+1007853630+1006379334+1005403142+1004824965
1951+1003811871+1002098709+1000570057+1000244138+1001211139+1002607002
1942+1003230630+1002571311+1001373921+1000828798+1001447939+1002770211
1934+1003963753+1004583535+1004737055+1004711480+1004616875+1004407289
1925+1004154888+1004132092+1004511227+1005124027+1005668081+1005911150
1917+1005616718+1004642165+1003237398+1002051335+1001719645+1002321546
1908+1003303080+1004008776+1004100746+1003584475+1002762517+1002016214
1900+1001371428+1000538000+999538798+998838730+998589321+998329939+997721057
1890+996963784+996399640+996168041+996304108+996702834+997033883+997023696
1880+996651328+995982107+995139417+994449537+994248428+994507739+994865075
1870+994977918+994744396+994266665+993734651+993415499+993514735+993890308
1860+994137509+994116137+994124044+994413632+994754583+994630128+993856897
1850+992865460+992211484+991997054+991997054+992060742+992056254+991804993
1840+991344431+990922125+990750367+990802728+990815836+990587371+990244782
1830+990121395+990316662+990609099+990811918+990815907+990584664+990300277
1820+990206740+990364036+990611237+990663882+990361400+989904828+989704147
1810+989899129+990201183+990282966+990051723+989622649+989280416+989288608
1800+989533458+989552122+989096975+988406809+987974885+988235407+989094054
1790+989751735+989712909+989284548+988959127+988974942+989281769+989807943
1781+990576614+991452572+992074847+992242473+992254940+992830339+994281697
1771+995684469+996146099+995877314+995300917+994606833+994097045+994128461
1761+994531889+994755082+994649149+994349517+993904912+993433309+993203562
1751+993331864+993509250+993419132+993228567+993117149+992909486+992485613
1741+992170806+992196452+992105195+991468672+990566000+989966949+989649791
1731+989255625+988851556+988483462+988002170+987404116+986816321+986234083
1721+985696013+985625272+986581659+988205273+989124188+989012271+988423194
1711+987631370+986717156+985832080+985192707+984833234+984447117+983854620
1701+983389428+983383444+983345830+982715220+981532862+979862586+977777413
1691+975466696+973072559+970655909+968353385+966628611+966166055+966530016
1681+966417245+965704994+964891228+964492716+964801182+965326287+965277701
1672+964836445+964742908+964901843+964424611+963202359+961827655+960790269
1662+960070610+959201420+957867750+956129370+954378594+953534693+954401248
1652+955070683+954148491+952881287+952390591+952631308+952535563+951839128
1642+950945004+950047033+949261691+949021758+949895650+951310817+951956103
1632+951886217+951761691+951932024+952366441+952934859+953815946+955252699
1622+956808850+957820091+958504558+959655000+961316585+962236569+961797307
1612+960444118+958608923+956607100+954710569+952898099+950904397+948770212
1602+947202592+947168112+949055098+952380689+956216353+959755305+962646337
1592+964937320+966759977+968180060+969279282+970163147+970883804+971458135
1582+971870254+972004896+971805141+971595270+971967210+972707956+972757752
1572+972043365+971392309+971455499+971836700+971673918+970777443+969322595
1562+967432547+965003644+961525031+957363162+954941312+954878337+956427078
1553+958736228+961041031+962946112+964197144+964731296+964905761+965176399
1543+965820758+967363088+969860238+971358400+971136703+970310969+969877478
1533+970093262+970404150+970476244+970559807+970810498+970988169+971008330
1523+971263865+971798658+971887707+971384901+970942220+970760987+970441479
1513+969794840+968958705+968071848+967451211+967763595+968412229+967733105
1503+965769822+962919539+959103252+954292465+949427251+946299777+945451745
1493+945946929+947070586+948591686+950045252+950695524+950327431+949172927
1483+947438394+945198062+942451931+939141371+935144065+930353296+924619462
1473+917636519+909678880+901886587+894651386+887454155+879951948+872734272
1463+866970090+862968224+860267259+858816614+859319848+861323096+862461143
1453+862163078+861284128+860660927+861196575+863811127+868610160+874864895
1443+882071815+889804338+897274843+904361938+912132217+920706859+927680827
1434+931907309+934864237+937892262+940952985+943323187+944941885+946320507
1424+947554941+948256719+948392857+948453767+948656158+948592684+947979955
1414+946868765+945340184+943321050+940563022+936816905+931735979+924696828
1404+915312338+903381899+887728925+867083004+843196481+821032594+805665787
1394+800742513+806378750+819115118+835806334+854663864+873155296+888145888
1384+898837547+906691248+913103565+918448005+922604103+925761499+928498368
1374+931205816+933652173+935468489+936749727+937762179+938536122+939098913
1364+939802899+941017671+942592628+944086729+945365331+946535507+947700554
1354+948938693+950360130+952116391+954266748+956628757+958913614+960983613
1344+962846092+964544863+966164915+967786819+969314688+970516565+971320785
1334+971896683+972454416+973063440+973627512+974011136+974194078+974310626
1324+974507388+974755444+974892080+974839078+974629065+974205049+973407526
1315+972220964+970868986+969633198+968643400+967849296+967110118+966301267
1305+965421676+964638187+964191873+964203698+964548425+964911817+964945584
1295+964312979+962624538+959477259+954586042+947721356+938533273+926694733
1285+912316585+896106376+879131557+862430938+846599794+831504551+816362148
1275+800184639+782225150+762146080+739993806+716125092+691076443+665480462
1265+640088938+615712503+593044135+572582154+554620458+539193489+526106945
1255+515062152+505783595+498194121+492506628+489042904+488010647+489513546
1245+493615681+500281289+509353109+520640685+533940805+548961674+565321307
1235+582653569+600667270+619093376+637653482+656109935+674275376+691896905
1225+708568174+723883831+737706099+750168695+761414667+771470088+780365806
1215+788194502+794998421+800752914+805509488+809388537+812275009+813636463
1205+812837443+809625479+804273273+797429033+789900967+782261055+774370310
1196+765367448+754262388+740573195+724517860+706844113+688697194+671784852
1186+658475506+651166358+651084362+657640582+668982869+683118519+698657012
1176+714872564+731298128+747322473+762273385+775831071+788099825+799241787
1166+809227323+817965103+825548379+832302573+838561512+844405268+849689868
1156+854296626+858263726+861736070+864886128+867802307+870392495+872474533
1146+873934368+874680884+874484407+872932531+869455699+863293218+853481720
1136+838984816+818863358+792409515+759448535+720996076+679829474+640160534
1126+606271805+581035048+565422502+559209121+561888679+572738667+590262242
1116+612067190+635474772+658287221+679232275+697858919+713987772+727419435
1106+738282354+747259569+755084062+762039435+768283414+774423383+781360448
1096+789594068+798882670+808470904+817414209+824841116+830258933+833702068
1086+835506773+835949453+835047921+832579979+828288312+822085083+813966158
1077+803790057+791383883+776844449+760496820+742542746+722909563+701436127
1067+678085679+653001197+626497343+599128075+571749724+545373246+520845070
1057+498723535+479488401+463705237+451795208+443686222+438841347+436544415
1047+435961108+436023798+435530288+433438775+429080108+422212002+412975049
1037+401778909+389159373+375638803+361664545+347674331+334141365+321473600
1027+309911077+299518979+290210928+281894226+274788840+269631456+267565464
1017+269872405+277644074+291404916+310887909+335108972+362609499+391720282
1007+420823442+448633111+474406585+497896590+519085033+538030793+554913073
997+569999482+583511788+595622818+606558329+616596653+625975515+634846085
987+643302399+651396746+659079473+666177681+672514627+678006817+682625615
977+686444751+689834244+693430045+697763886+702971689+708827770+714925494
967+720872548+726503156+731960796+737508838+743261194+749144203+755039822
958+760796381+766136832+770814545+774903108+778720749+782457319+786061242
948+789430431+792502268+795270341+797908972+800697490+803624854+806294189
938+808410849+810131491+811794429+813566363+815451639+817352801+819007262
928+820066447+820274893+819373645+816865026+812274653+806050479+800178013
918+797398044+799293507+805063602+812268527+818691957+823493625+826955853
908+829621199+831807389+833663742+835283437+836650661+837660692+838238727
898+838244284+837252134+834675980+830237133+824294070+817739987+811530986
888+806186404+801856980+799027499+798845982+802273231+808920638+817063926
878+824845319+831295678+836357868+840321692+843366172+845428264+846268959
868+845571669+843083495+838915642+833798241+828782641+824453004+820557428
858+816554565+812221794+807412645+801540322+793836437+784031208+772382877
849+759126889+744270939+727960925+710751515+693254512+675502900+656864288
839+636609043+614320345+589822589+563234744+535259373+507184017+480632931
829+457424535+439367520+427852014+423539653+426256433+434803755+446734371
819+458609172+466919659+469154826+464480534+454085978+441335077+431287207
809+429169727+438329350+458830121+487469122+519098640+548649076+572912491
799+591007547+603538568+611584117+616212317+618391455+619008815+618951894
789+619286363+621288328+625924009+633205089+642400439+652838557+663952736
779+674644182+683357384+688987993+691381846+690886092+687568266+680917155
769+670311553+655708146+637828659+618112553+598954821+583530382+574468570
759+572428776+576076012+583383878+593094003+605305445+620826627+639852567
749+661203827+682835842+702952027+720568712+735435419+747867667+758412288
739+767300027+774380426+779640733+783467848+786403618+788893002+791124358
730+792850557+793504177+792743271+790970553+789354348+789290090+791580717
720+795847236+800752843+804942780+807749678+809166128+809507008+809231526
710+808906461+809011468+809664233+810722777+812177055+814185219+816734872
700+819539348+822246938+824528732+826084241+826916600+827538804+828562512
690+830052980+831474631+832286117+832465640+832389841+832285761+832018614
680+831548292+831267467+831468931+831784450+831685499+831272097+831063010
670+831335643+831846998+831844220+830972679+829725351+828764618+828565718
660+829033332+829521321+829531224+829090466+828458645+827686198+826499067
650+824512418+821261628+815867676+807438220+796692419+786545028+779711473
640+775871606+772145579+765994069+756744720+744780728+730523187+714408440
630+697027557+678739869+659489668+639322618+618673135+597954550+577427243
620+557756267+540510953+528094627+522909264+526051805+536692635+552624512
611+571343695+590811604+609323980+625218527+637456505+646244652+652497749
601+656963809+660251715+663371282+667734971+674524714+684033017+695421539
591+707071010+717562629+726517261+734321308+741299408+747401335+752276237
581+755333969+756131421+754811429+751779201+747107972+740547691+731556157
571+718766216+699851054+672652475+636873840+595008593+552065319+514388585
561+488257170+479058579+490341845+521317280+564767849+609574813+647029708
551+674627726+694290473+708678168+719468351+727540827+733680868+738919233
541+743970025+748619241+752357664+755341876+758048541+760433489+762023763
531+762482615+761979309+761303391+761288360+761755974+761567831+759989526
521+757034236+752438520+745171190+734340899+720019671+702206010+679982852
511+653145670+623956737+596487734+575095796+563420287+563274959+573650886
501+590187797+606609479+618172964+623136417+622086778+616920578+609461187
492+601266036+594658203+592186593+595015468+602632263+613355908+624773709
482+634660507+642110424+647819680+653558430+661184379+671468051+683270900
472+694066283+702548457+709902485+717569896+725398734+732125786+736560073
462+738341981+738399756+738269388+738302942+737480983+735685255+734031436
452+733060017+732335942+731602890+731134135+730852242+730153313+728919164
442+728203495+729503112+733297102+738460951+742956361+745445390+746193830
432+745855443+744503892+742417009+740592928+739917722+740396592+741353692
422+742182276+742263061+740019523+734960396+730590152+729641103+731384256
412+733560687+734912381+736616495+740369806+745846253+751157354+755177385
402+758410935+762042427+766785965+771700049+774471113+774868842+775243632
392+777535969+781668843+785795591+787809026+787055742+785746934+788303996
382+796383739+807082309+817817210+828897123+840783179+847861013+841473844
##END=
