##TITLE=JPK-028
##JCAMP-DX=4.24
##DATA TYPE=INFRARED SPECTRUM
##DATE=16/11/2018
##SAMPLING PROCEDURE=Diamant-ATR
##ORIGIN=Angelika Moesle
##XUNITS=1/CM
##YUNITS=TRANSMITTANCE
##RESOLUTION=4
##FIRSTX=3997.453
##LASTX=373.96442
##DELTAX=-1.4165319
##MAXY=0.7790783
##MINY=0.25729388
##XFACTOR=1
##YFACTOR=7.2557321e-010
##NPOINTS=2559
##FIRSTY=0.66973716
##XYDATA=(X++(Y..Y))
3997+923045598+923361294+923947504+924525007+924713045+924393652+923886304
3988+923515650+923237167+922905370+922579898+922427267+922540714+922794470
3978+922791841+922314395+921776980+921751268+922234711+922880808+923504560
3968+923949394+924023245+923851473+923756345+923726607+923521236+923264851
3958+923426602+924193456+925180387+925778920+925673523+924992513+924084610
3948+923290564+922850002+922797592+922954577+923135057+923322684+923482627
3938+923430709+923125035+922785516+922555747+922362945+922222060+922223457
3928+922204645+921981530+921763672+921875723+922160203+922236272+922195691
3918+922474995+923086425+923542677+923648731+923683890+923874803+924189513
3908+924496748+924615617+924321854+923615707+922836612+922253605+921963211
3898+922129233+922702217+923243657+923284649+922690059+921989416+922052999
3888+922922046+923738108+923740490+923039354+922138187+921167440+920477640
3878+920776906+922041005+923558614+924712059+925214643+924965733+924068427
3869+923184510+923066545+923660396+924229520+924064648+923223531+922354730
3859+922001574+922393832+923449028+924597216+924886624+924457153+924369583
3849+924742207+925156810+925310428+925146706+924825834+924567724+924379112
3839+923987675+923265837+922678148+922710679+923164795+923493963+923620718
3829+924013798+924833721+925563445+925711722+925310674+924581115+923898626
3819+923862152+924596230+925524917+925972461+926000885+926172657+926713850
3809+927316162+927421476+926947644+926533288+926508397+926473320+925998584
3799+925280115+924750258+924671806+925069897+925545947+925619716+925324393
3789+925163300+925445069+925886288+926121068+926336625+926872232+927484730
3779+927735858+927942954+928704223+929681952+930039708+929570066+928795325
3769+928201885+927827946+927642455+927683940+927809216+927904098+928170751
3759+928761891+929321650+929523159+929707993+930298229+931022367+930971189
3750+930003152+929322060+929510098+929974236+929865718+929303495+928925037
3740+928668324+928220287+927746455+927853658+928663559+929526692+930025168
3730+930247215+930314248+930173364+929730255+929203192+929201138+930059670
3720+931245975+931854612+931651130+931145507+930714393+930137054+929216335
3710+928525057+928556027+929004393+929500733+929905642+930090230+930061478
3700+930101566+930320984+930509925+930560529+930598399+930695088+930708642
3690+930416934+929804518+929187583+928866958+928879116+929038320+929081037
3680+928986156+929138705+929878040+930830058+931244167+931326234+931524293
3670+931385545+930483145+929504923+929118415+929129915+929193580+929346623
3660+929803943+930540895+931303314+931894947+932322200+932614895+932662377
3650+932303470+931461696+930332896+929491286+929521434+930556668+932030081
3640+933013232+933154856+932943653+932820677+932753397+932792417+933237579
3631+933971246+934126014+933200531+932189120+931949904+932410674+933108278
3621+933405901+932952442+932338794+932465960+933334022+934196661+934378949
3611+933839234+932994256+932278251+931980052+932118226+932438605+932628039
3601+932508348+932124551+931716603+931535630+931635440+931977670+932713391
3591+933914564+935024553+935046568+933803828+932477132+931908090+931938239
3581+932264039+932809176+933590735+934548256+935448438+935953650+935875445
3571+935315193+934518765+933782469+933532410+934021193+934840376+935322833
3561+935250378+934992515+934944951+934986107+934795852+934418626+934212434
3551+934397103+934834954+935190739+935151554+934655214+934077218+933950134
3541+934378538+934884407+934930082+934546449+934214652+934148440+934154355
3531+934182203+934446392+934964256+935385102+935385677+934950044+934296800
3521+933809907+933872586+934474323+935117791+935372040+935375572+935524918
3512+935895161+936281340+936599583+936892935+937031765+936756815+936060361
3502+935329898+934941501+934886461+934987339+935246846+935747129+936329479
3492+936689125+936771437+936806350+936943538+937096252+937114242+936871576
3482+936310256+935697265+935557613+936039413+936704076+937128536+937344586
3472+937501654+937540757+937430431+937353787+937473313+937693388+937730109
3462+937372106+936707279+936070630+935747540+935791325+936062661+936323154
3452+936382218+936274029+936180298+936134705+935956443+935566814+935195832
3442+935105715+935195421+935051579+934442860+933575127+932791185+932272911
3432+932128412+932404595+932843267+932983084+932647015+932044703+931386448
3422+930693281+929952385+929192019+928463364+927898922+927661760+927706284
3412+927732490+927463454+926864264+926061346+925189094+924327605+923452232
3403+922445504+921246631+919942854+918660929+917459099+916303846+914991773
3393+913146639+910505076+907217499+903698592+900137379+896172078+891143284
3383+884845710+877914278+871277184+865430521+860369690+855838140+851466698
3373+847101252+843145234+840184607+838288459+837050976+836121221+835283636
3363+834340491+833353561+832725044+832736627+833267469+834115158+835303681
3353+836937776+838966922+841205300+843448443+845503220+847278200+849003151
3343+851161763+853962775+857008179+859712256+861880891+863698998+865366035
3333+866904263+868160229+868905314+869006768+868475350+867363061+865711879
3323+863574133+860963951+857803047+853955382+849321311+844008367+838456781
3313+833245371+828689670+824752382+821432931+819104847+818297657+819171387
3303+821335010+824171921+827275158+830609477+834306482+838278519+842157071
3293+845789096+849567838+853894099+858493750+862704017+866242065+869292808
3284+872038699+874474398+876594482+878458593+880010211+881040926+881505065
3274+881731794+882099737+882668778+883326047+884016340+884680181+885269841
3264+885903945+886716967+887569749+888180686+888529981+888961588+889845587
3254+891167107+892474252+893257701+893345518+892968539+892580306+892561001
3244+892966731+893600835+894270097+894824681+895073755+894909622+894442855
3234+893881536+893340178+892791838+892127586+891281787+890263476+889005045
3224+887328644+885206505+882917770+880817565+879077663+877689602+876553983
3214+875528443+874551699+873765047+873370570+873352826+873459291+873472845
3204+873331796+872971987+872285966+871324994+870309558+869332732+868240981
3194+866881754+865283886+863545134+861690060+859638980+857314100+854843488
3184+852560421+850601676+848581894+845898929+842372382+838443883+834618399
3174+830754551+826205257+820743460+814959805+809493900+804263925+798817654
3165+793120583+787572201+782355206+777169098+771733834+766294135+761371395
3155+757171560+753534852+750337885+747623457+745420977+743622175+741962203
3145+740148532+738169085+736356317+734976225+733920372+732908058+731804559
3135+730680113+729733189+729177291+729105822+729465631+730177447+731183271
3125+732342795+733437094+734423038+735576154+737178705+739157330+741211285
3115+743193114+745174450+747234977+749375599+751619235+754069392+756798278
3105+759689161+762467747+764909196+767013015+769025485+771252363+773730614
3095+776103634+777873438+778683914+778376597+777082103+775381796+774136509
3085+773937218+774733153+776069624+777657141+779531767+781653248+783677466
3075+785320679+786660847+787856270+788717185+788700837+787303001+784503139
3065+780920156+777528744+775211421+774532136+775726902+778676356+782779748
3055+786960935+790090541+791595170+791616693+790703368+789569638+788943914
3046+789160950+789856993+790307906+790139666+789650801+789449538+789844096
3036+790653340+791547360+792329905+792848919+792937721+792609210+792164869
3026+792051833+792635004+793966300+795704724+797414478+799014892+800799729
3016+802965570+805294723+807440684+809417913+811564449+813988154+816321907
3006+818193493+819718084+821296976+823087727+824922347+826664138+828393854
2996+830215165+832032205+833613889+834849400+835869683+836884790+837940396
2986+838904571+839681448+840297315+840738780+840942836+841100561+841708541
2976+843028419+844684940+846068729+846914857+847258073+847124911+846558662
2966+845729128+844818842+843959653+843344197+843226068+843738098+844721989
2956+845720667+846255863+846281411+846261367+846633335+847331021+847978843
2946+848387449+848654267+848896358+849091789+849162765+849061065+848741919
2936+848121206+847088437+845550702+843502251+841071234+838493173+836066428
2927+834097907+832753631+831936009+831446487+831269293+831596900+832631641
2917+834398981+836630869+838853804+840785687+842577999+844481295+846437247
2907+848186021+849573917+850607837+851396297+852111480+852867409+853635496
2897+854355691+855033826+855712289+856468875+857420400+858573516+859720143
2887+860639054+861361056+862076486+862823297+863464547+863958258+864380830
2877+864690200+864777113+864771445+864987577+865530331+866175032+866636870
2867+866819239+866829590+866803467+866707107+866372927+865751968+864988481
2857+864205196+863351182+862342072+861281208+860500799+860394088+861217379
2847+862961388+865304424+867725993+869813054+871476476+872852296+874087150
2837+875245606+876298420+877160567+877823586+878423680+879107811+879874995
2827+880594286+881124061+881400900+881470809+881458486+881494796+881670265
2817+882013809+882448210+882783539+882887293+882862895+882898958+882947754
2808+882775653+882338788+881852963+881442878+880967157+880271196+879412582
2798+878527515+877590121+876448998+875078106+873640263+872245549+870798259
2788+869208853+867623800+866279607+865219646+864364893+863775725+863586291
2778+863727997+864011326+864461499+865284051+866503297+867889139+869230047
2768+870509590+871826428+873208492+874515636+875556127+876276897+876753850
2758+877065275+877306298+877615915+878043415+878483320+878832696+879139274
2748+879557409+880195866+881013982+881847130+882535369+883024070+883372790
2738+883705901+884122640+884624073+885132161+885571655+885916842+886215123
2728+886563267+886995532+887420732+887755486+888081615+888559226+889209184
2718+889901859+890556745+891223050+891921804+892535370+892907585+892966074
2708+892731787+892331396+891981608+891826102+891805236+891819530+891947270
2698+892331232+892921386+893500203+893900101+894069655+894039425+893953497
2689+894013137+894261965+894498470+894491241+894241592+893997775+894010016
2679+894292606+894647898+894881527+894939524+894896150+894892700+895022823
2669+895212092+895308288+895296952+895286519+895293748+895237065+895141527
2659+895135530+895244295+895415574+895721905+896245272+896778744+897007691
2649+897002516+897189075+897785718+898528832+899003896+899082759+898977855
2639+898949678+899061236+899248452+899491611+899810922+900163831+900404854
2629+900342093+899938662+899407820+898948610+898551177+898244927+898177566
2619+898240902+898102975+897796397+897741522+898077591+898447341+898507474
2609+898326747+898288713+898740611+899686138+900785940+901670185+902170222
2599+902305438+902260339+902357931+902786663+903309538+903505872+903382650
2589+903461759+904107198+905026028+905593591+905475708+904853516+904226971
2580+904000323+904120260+904185239+903936083+903501436+903170214+903083548
2570+903151156+903213588+903254498+903369917+903571098+903827647+904239621
2560+904905680+905662184+906191631+906386076+906479971+906807661+907408905
2550+907891609+907853081+907444147+907251016+907596614+908275488+908981964
2540+909582468+909953204+910033545+910093349+910505076+911210813+911779772
2530+911901845+911523634+910730081+909811251+909191524+909012112+908999379
2520+908881989+908689680+908571468+908543209+908496138+908357718+908206401
2510+908191286+908301365+908327406+908186193+908154237+908604246+909587315
2500+910767540+911657618+911899216+911513530+910904975+910499983+910437797
2490+910628792+910838681+910718333+910157753+909611631+909663056+910315314
2480+911057606+911408380+911125379+910258467+909319347+908989932+909376522
2470+909933570+910308002+910756697+911470402+912067456+912162912+911952941
2461+911807046+911758003+911826268+912322773+913306171+914196741+914436779
2451+914154681+913746404+913249324+912588276+912029503+911886565+912071645
2441+912385699+912965830+913966233+915006888+915476448+915322667+915063817
2431+915014035+914945852+914617259+914195838+913955143+913918751+914004678
2421+914178833+914283572+914054707+913486158+912904548+912568889+912426608
2411+912307165+912154451+912071645+912259190+912873578+913837260+914792070
2401+915287507+915075893+914311174+913458885+912919745+912735486+912728750
2391+912812049+912953179+912941021+912526665+911831937+911298219+911150680
2381+911175407+911111742+911000184+910961657+910866693+910570959+910381607
2371+910868418+912156258+913770473+915202073+916234924+916792054+916977134
2361+917182341+917578378+917638018+916759688+915200019+913788710+912924674
2351+912454539+912304865+912634362+913496016+914577417+915312152+915428391
2342+915211109+915039255+914998920+915011735+915101523+915353636+915695374
2332+915978703+916225723+916470197+916444813+915837901+914815975+913997449
2322+913878745+914400633+915123539+915676890+915939436+915946090+915821718
2312+915760189+915830672+915823279+915565990+915311823+915467740+916043929
2302+916720667+917296774+917720577+917868526+917638839+917174126+916750816
2292+916475536+916225148+915885465+915528941+915257851+915023564+914805296
2282+914717397+914698832+914486150+914173986+914255806+914840456+915488935
2272+916046065+916863030+917892678+918309416+917585279+916449578+916047133
2262+916411050+916594405+916252750+916172902+917072344+918665940+920155865
2252+921003882+921061222+920461621+919579676+918828265+918379407+918189973
2242+918298737+918900720+919963227+921006922+921608987+921931502+922295419
2232+922419874+921622542+919818728+917996595+917467642+918586338+920367068
2223+921555426+921799818+921506959+921082334+920785368+920766309+920821020
2213+920679478+920736161+921712823+923367619+924423636+924174069+923411815
2203+923304529+923960402+924652009+924934106+924859926+924502334+923942247
2193+923473919+923372137+923746405+924681911+926044505+927289710+928027320
2183+928471743+928841739+928849461+928164015+926883404+925514320+924685525
2173+924494859+924359150+924085842+924410328+925658983+926802488+926825243
2163+926281010+926724694+929133776+932733681+935071459+934331056+931200300
2153+927752945+925626206+925475957+926978203+928817094+929470831+928519882
2143+926881597+925717555+925467331+926019696+927499681+930177882+933266331
2133+934787637+933598704+930830961+928579439+927810777+927993557+928177734
2123+927896704+927275334+926733566+926642217+927027575+927501817+927633254
2113+927436263+927283960+927339738+927421312+927389192+927191625+926588656
2104+925433239+924176205+923446071+923275777+923450671+924304521+926203462
2094+928501727+930080043+930729590+931094247+931481987+931491270+930715214
2084+929340462+928033563+927341217+927196965+927244939+927595220+928599483
2074+929788992+930033465+929155546+928434529+928951982+930206223+930957798
2064+930884029+930703467+930878197+931039125+930798841+930373477+929937187
2054+928923723+926729294+923949640+922348979+923400150+926681648+930018021
2044+931616546+931760306+932048482+933260745+934603049+935000237+934305754
2034+933099734+932043142+931760470+932786749+935038271+937578052+939450377
2024+940567184+941296086+941550828+941023600+940137959+940108139+941674626
2014+943929927+944953331+943867576+941933229+941122671+941705678+941955656
2004+940505162+938232610+937124757+937834519+939301935+940548619+941432371
1994+941516244+940027880+937525066+935877252+935897872+936668013+937179550
1985+937249623+937030205+936738003+936979519+938583055+941481002+944132669
1975+945052813+944455430+943468171+942560760+941723176+941414462+942069267
1965+942964273+942615882+940241384+936561138+933363102+932056368+932516153
1955+933529699+934263859+934759542+935001387+934535606+933377067+932257467
1945+931477880+930450039+928785303+926975821+925692746+925285701+925831905
1935+926957749+927935396+928277380+928019105+927574601+927502721+928038985
1925+928807319+929362970+929894963+930973324+932736228+934584155+935620457
1915+935633600+935320780+935301639+935405885+935155579+934568465+933933376
1905+933195848+932153960+930845830+929406920+927941722+926688548+925908550
1895+925517441+925202649+925018472+925542086+927241735+929751285+932144349
1885+933868068+934913406+935436116+935573221+935381323+934738923+933448783
1875+931598227+929670123+928131320+927153508+926926368+927814556+929722287
1866+931890182+933717079+935128717+936318225+937466412+938582562+939515357
1856+940169668+940635942+941050791+941487410+942038133+942785272+943606427
1846+944202824+944418545+944405484+944245459+943767766+942987932+942342985
1836+942250404+942639376+943239306+943914319+944392586+944205042+943335912
1826+942304786+941551732+941123575+940849939+940639557+940465567+940215425
1816+939811009+939450459+939464178+939940228+940680549+941528813+942466125
1806+943372715+944032530+944356195+944368271+944009529+943161758+941898727
1796+940526439+939340956+938366019+937309345+936033334+934956452+934648149
1786+935395452+937037187+939113569+941297319+943368525+944963353+945872982
1776+946303850+946544955+946682554+946717221+946762731+946935900+947225062
1766+947597029+948088852+948725173+949361576+949770593+949965366+950080374
1756+950044968+949710789+949075700+948167632+946941896+945456161+943955393
1747+942603231+941370841+940233580+939305550+938724350+938490309+938555124
1737+938988046+939861201+940851910+941285489+941121603+940861932+940903664
1727+941381521+942180003+943090782+943955804+944738185+945528452+946404318
1717+947143324+947424764+947394205+947315343+947256032+947262111+947386730
1707+947474793+947187684+946442599+945445153+944292037+943026377+941782487
1697+940535393+939344570+938621090+938534998+938838783+939256754+939651230
1687+940009561+940262578+940151431+939654762+939181588+938955269+939082599
1677+939694686+940748403+941955163+943156993+944489357+945870928+946673846
1667+946509303+945623990+943925245+940659847+935240849+927859080+919000530
1657+909164826+897270484+876061997+836392393+795064213+769038547+749713968
1647+730248998+715560380+712520480+718419224+728680786+740824202+753305494
1638+766203854+780755777+795523094+807415875+816986323+826325523+836419173
1628+846661430+855888497+864019788+871624096+878420723+883770388+887651733
1618+889609000+888180029+883394970+877324946+871353418+866226457+862867903
1608+862005263+863559839+866722715+870571283+874615364+878826535+883371557
1598+888490878+894377301+900955987+907919868+914960228+921775091+927864009
1588+932123894+932346270+925907564+912555664+896853663+885903780+883763323
1578+890054244+901890014+913614063+920452174+922656872+921748064+918749485
1568+915187943+911593049+906243466+897500992+884911100+865393062+831294512
1558+791496510+774308035+776968574+786913946+799089236+811669681+823743929
1548+834296131+842798896+849976691+856752451+863405646+870610879+878850112
1538+885888994+890588701+894221630+897862116+901534723+904648227+907142580
1528+909483233+912057927+914954560+918171161+921857075+925933523+929831709
1519+933361131+936905093+940571292+944057750+947230648+950177556+952960003
1509+955854418+959485046+963288269+965782621+966945185+966662101+963254423
1499+952724155+930484542+899246069+870058267+850245316+841160940+843082637
1489+854389783+869613844+884338608+897860145+910926004+923846790+935758877
1479+945051252+949828261+947581503+936355602+920163751+911937744+919170002
1469+935874706+955185976+974719458+993443368+1009495732+1022065169+1032555185
1459+1043479191+1056579225+1068479810+1073741823+1071904000+1062650645
1451+1042777233+1009495567+968609428+936687235+925810465+932123648+942819446
1441+946641316+937230647+910150853+866713679+821325070+785158108+755489655
1431+727631505+702099961+681889125+667739071+658754670+654445701+654470510
1421+658395723+666129579+676681001+687629488+697749056+707182151+715962660
1411+723902791+730935019+737140259+742772268+748127109+753227946+758026478
1401+762788864+767808211+772985529+778081356+783070307+787822179+792036636
1391+795766828+799410518+803204047+806932022+810255662+813188358+815906811
1381+818372083+820169736+820506873+818357625+812897224+804653144+796294056
1371+790719633+788981292+790630502+794510615+799462354+804956764+810693020
1361+815595551+817568097+813867314+802162735+783717225+765837718+757637588
1351+762169877+774798872+788641033+799849437+808122515+814419926+819508113
1341+823683303+826671614+827802304+826688783+823579796+819058104+813869368
1332+809036662+805778577+805025523+806924710+810812956+815619046+820360238
1322+824475953+827797868+830232745+831540711+831300673+828973411+824377128
1312+818523401+813635656+811787975+813477685+817472395+821891155+825344671
1302+827279265+827823251+827571713+827334551+827871226+829649984+832634763
1292+836234011+839507705+841594355+842216218+841865527+841260175+840530370
1282+839078069+836178314+831574967+825581012+818721542+811141796+802148030
1272+790349637+774732003+756363549+739291642+729076084+729433101+739781164
1262+756012365+773420258+788916888+801395551+810945954+817923389+822449435
1252+824383289+823543487+820064504+814757884+809035102+804163622+800495205
1242+797573188+795032258+793253910+793075402+794900656+798092284+801172272
1232+802563947+801257542+797179040+791395550+786024116+783484910+785233355
1222+790916050+798800074+807094347+814850301+821799970+827815858+832793063
1213+836766414+839811489+841908080+843041152+843355780+843175300+842928362
1203+843023326+843717643+845071859+846976304+849220022+851596574+853940267
1193+856085160+857892917+859267012+859988111+859653356+857993138+855223999
1183+851964599+848533837+843942401+836042605+824043113+811132678+803128471
1173+803606492+811071970+821131693+830287373+837271873+841976181+844322173
1163+844306072+842523781+840149530+838418335+838177805+839468273+841104422
1153+840851487+836481277+827369300+815851525+806453836+802012321+800482308
1143+797472803+791994411+787493010+787004310+789754719+793224747+796378669
1133+799552224+802317420+802898045+799986132+794773244+790624834+790435154
1123+794596871+801664669+810170556+819165144+827743568+835103239+841050944
1113+845961033+850243673+854004014+857074555+859236700+860446827+860870384
1103+860771313+860531604+860710441+861780670+863706638+865986337+868189309
1094+870262570+872295248+874300490+876331526+878483402+880644889+882493638
1084+883798482+884473660+884179979+881848855+875876752+865652486+853424622
1074+843858199+840716846+844137011+851408701+859637912+867152679+873282672
1064+877959952+881582777+884689135+887526539+889999369+891987934+893588266
1054+895018797+896373506+897515614+898209111+898352788+898119487+897858337
1044+897789004+897888732+898317793+899815193+903151566+908128607+913661955
1034+918967343+924177520+929787513+936072519+943127584+950990578+959377185
1024+966819169+969083178+958603102+928491458+880307342+826365858+780027039
1014+744180455+714102986+690722743+683451217+697780108+726528581+756640060
1004+780221567+796455888+807146675+814269595+819958122+825784904+831906353
994+837637926+842483447+846368489+849475668+852204226+854965232+857735110
984+859855112+860446909+859264794+857272040+856159505+857036931+859649331
975+862920396+865929326+868184134+869440347+869818886+869917629+870327960
965+870962966+870911459+868949839+864657916+859540238+856573039+857824405
955+862623019+868474528+873393983+876926690+879441991+881278171+882616532
945+883550969+883943063+883412221+881392275+877039151+869993287+862178186
935+857728456+859467619+865947563+873060460+877829008+879855690+880141320
925+879557820+877959624+873770140+864041310+845487776+816813811+781053401
915+745748585+720506614+713044915+725056894+750671818+780111077+805874362
905+825526301+839848210+850253202+857903678+863686758+868195471+871862902
895+875091003+878087118+880742728+882887293+884576016+885997183+887270811
885+888507472+889841233+891187891+892232900+892894523+893514415+894372208
875+895329647+896124432+896633423+896714668+896265234+895574367+895113679
866+894898121+894524182+893626136+891565445+887112018+879906622+872468746
856+869238344+872602894+880477717+888447258+893721182+896391661+897571065
846+897531633+895724780+891499726+883963601+871774839+854682724+835964646
836+822286206+819727942+829337656+846455812+864267876+878174360+887435026
826+893624247+898334387+902245881+905394299+907631445+908919202+909420554
816+909345470+908696170+907114896+903991040+898816269+891500055+882575129
806+873550229+867028389+865789017+871154372+882031471+895372939+907745385
796+917078998+923262223+927238449+929860871+931526922+932314150+932153385
786+931054980+929293555+927259069+925109164+922732119+919993540+916695858
776+912309218+906168629+897924549+887310817+873570766+855755335+833624897
766+807860298+779817068+751827974+726661826+703817601+675392505+629093528
756+560067306+480118968+411420148+369504526+354607744+358570744+374286341
747+396890035+421505378+444199806+463885550+481740371+499811366+520627348
737+546727687+579312448+617002605+655732473+689641835+712310509+718431300
727+706547062+681305872+651476203+624493672+603911443+591556413+588987922
717+595890930+609414192+626111748+643722096+661358814+678974091+696688438
707+714141842+730337800+744080974+754335388+759827416+758262490+746358372
697+721005665+680308796+624066871+555529267+484441039+425926315+391937434
687+383073257+390701307+406312205+426345395+449453645+473458544+495903281
677+515303929+531303677+544356557+555132203+564354465+573675222+585649454
667+599724588+611875316+621684609+631097086+640920714+650803572+660202822
657+668685502+676167081+683173802+690380513+698060644+705876650+713016820
647+719140980+724999143+731424705+738441489+745748174+753117867+760317431
637+767416938+774963168+783675658+794149081+806678758+821785183+839951470
628+856969569+860230695+838430247+798573427+765016810+757138126+771084041
618+782942813+770067291+733329726+696720065+683109685+694455810+716940390
608+738588206+756098785+770233888+782111800+792647902+801881048+807726478
598+804142428+781984635+737736656+684079241+646347845+641878893+665029901
588+697191351+725192274+746080136+761770389+774557766+785606473+794841016
578+802164378+808441744+814668014+821095301+827588718+833792397+838929052
568+842093735+842262550+837879278+827488661+811331559+792685936+777946221
558+773710324+781634354+796748830+812126508+824248730+833403918+840962223
548+847723444+854034080+860054076+865552758+870050052+873463069+876104385
538+877922986+878496463+877819397+876293080+874050512+870974467+866801084
528+860410682+849729835+833285378+811175888+783480145+749244326+708632070
518+665828465+628789826+604686924+595757603+599660718+611474555+625054253
509+635179325+639869749+640213540+637807579+633099041+626308658+618769370
499+612246955+607614691+605025663+605151514+609951935+621895320+642459517
489+671825911+709004202+750079857+786269164+806712685+805945338+787818811
479+762083621+738399676+720568554+703624306+678629232+643928042+608809703
469+582097277+564966264+555369242+552631237+557367665+569308134+586477139
459+606362709+626381811+643857066+657670230+668385373+676313675+680680805
449+679940648+672451142+657499690+635657305+608682579+580972378+559018025
439+546855880+544876145+551947845+565240106+579964870+592277635+601776613
429+610231157+618531673+626235916+633566876+641727699+651141612+661114258
419+670716620+679027117+686026404+692712869+699847453+707637171+716075943
409+725070612+733807829+740159868+741789117+738382424+731929753+724820060
399+719325321+719130876+726369213+735943440+741410741+742090519+741564934
390+743296703+748302577+755799765+764365784+771983894+776786451+778210082
380+775942623+769518622+760952767+756809286+759036656
##END=
