##TITLE=LSH-R418A
##JCAMP-DX=4.24
##DATA TYPE=INFRARED SPECTRUM
##DATE=27/7/2021
##SAMPLING PROCEDURE=Diamant-ATR
##ORIGIN=Angelika Moesle
##XUNITS=1/CM
##YUNITS=TRANSMITTANCE
##RESOLUTION=4
##FIRSTX=3997.453
##LASTX=373.96442
##DELTAX=-1.4165319
##MAXY=0.94050974
##MINY=0.37067708
##XFACTOR=1
##YFACTOR=8.7591795e-010
##NPOINTS=2559
##FIRSTY=0.74028087
##XYDATA=(X++(Y..Y))
3997+845148643+845220774+845206211+845289775+845482079+845535497+845286576
3988+844819902+844307907+843870221+843561078+843373333+843316785+843496909
3978+843973858+844560978+844956134+845083589+845126323+845211996+845286712
3968+845333666+845464318+845617018+845414983+844669243+843848582+843540800
3958+843650561+843681183+843491941+843318146+843331756+843531205+843851372
3948+844216450+844550567+844634130+844020063+842540355+840842961+839690156
3938+839079900+838609959+838182208+838052168+838428746+839259070+840419905
3928+841818976+843133531+843766992+843411848+842588465+842106616+842185143
3918+842372344+842272109+842263535+842866850+843750660+844207876+844286336
3908+844778801+846070151+847492971+847856553+846676121+844533283+842271428
3898+840849901+841023220+842496124+844023602+844259797+843162792+842579891
3888+843621233+845203830+845773325+845438732+845389806+845184232+843782643
3878+842321240+842370371+843485408+844554718+845306242+845655738+844875701
3869+843252207+842359279+842562198+842905025+842802000+842730686+843239278
3859+844437267+846240408+848037901+847856281+843986379+840183165+839824347
3849+841334541+843101549+844610722+845545500+845590139+844999141+844288718
3839+843279290+841799786+840814789+840930471+841441513+841696625+841955208
3829+842476390+842811119+842784104+843076915+843726231+843238598+841128967
3819+839908114+840493057+841121142+841202119+841970111+843781622+845804287
3809+847030720+846713071+845472348+845165178+845831030+845385450+843229275
3799+841791348+842006789+842664951+843275276+844238022+845368643+845973319
3789+845914865+845742840+845898466+846455917+847431388+848491715+848586642
3779+846958453+844813029+844210666+845442611+847344490+848638223+848542003
3769+847402808+846486538+846123161+845637637+845159462+845455268+846338534
3759+846767033+846568196+846917964+848424960+850410266+851492369+850410334
3750+848521588+848717091+850494714+850711447+847206216+842983893+841742490
3740+843127815+845445877+847120952+847026433+845704324+844917143+845181238
3730+845934055+846697012+847165455+847124014+846723891+846432780+846423186
3720+846386031+846119282+846068110+847002956+849075160+850968397+850308670
3710+847077605+844502933+844239791+845562240+847184237+847958829+847400494
3700+846329551+845898398+846302740+847214926+848550441+850343375+851851187
3690+851144370+847464051+843899346+843076507+844414607+846508246+848515055
3680+850285193+851782526+851938016+849000103+844824597+843962086+846003941
3670+847553875+847050862+846285184+846595484+847430707+848071245+848326222
3660+848401279+848441427+848179646+847514679+847321286+848301792+849745639
3650+849935017+847559046+844269596+842677540+842928230+844180181+845649477
3640+846730832+847278007+847641521+848183389+848944916+849887928+850957238
3631+851332728+849288015+845417705+843462544+844260069+846248982+848120308
3621+848790515+847554895+845621578+845037316+845611711+845842394+845277798
3611+844644337+844349417+844282797+844527975+845172800+845967671+846631209
3601+847095638+847435062+847618656+847406006+846690411+846014760+846265450
3591+847610423+849115989+849148516+846983018+844381127+843118765+843109578
3581+843646070+844325123+844981584+845343329+845090325+844333425+843775974
3571+844049256+844873728+845006490+843598505+842071026+842193377+843491124
3561+844646855+845067053+844977161+844762333+844585476+844479593+844440261
3551+844453054+844488303+844380583+843860354+842876989+841790260+841096304
3541+841124068+841852252+842779408+843267926+843208520+843067661+843257039
3531+843804555+844427468+844666317+844258776+843472751+842809554+842520417
3521+842491700+842377584+841891788+841159589+840711968+840974974+841810946
3512+842647939+843083244+843381363+844014143+844659308+844368606+842937552
3502+841542768+841337603+842097157+842839767+842958715+842578054+842137442
3492+841849870+841666276+841583325+841681587+841891788+841957930+841657702
3482+841036626+840500202+840452772+840784235+841043771+841059898+841026078
3472+841017640+840851330+840450050+840045912+839982083+840336001+840743406
3462+840783895+840541371+840451615+840682639+841088819+841578902+842095932
3452+842445156+842504494+842406572+842312121+842199638+841969703+841617893
3442+841257034+841000288+840803356+840545454+840322324+840382342+840643851
3432+840659026+840253595+839827409+839823530+840256725+840863579+841318073
3422+841288880+840742998+840176973+840071498+840244136+840197183+839845782
3412+839515476+839415717+839472470+839511121+839330385+838769804+837946557
3403+837297377+837222796+837771060+838708765+839708801+840449778+840737486
3393+840624934+840334368+840060678+839895117+839855105+839858779+839758817
3383+839548479+839431981+839512210+839578012+839447360+839343246+839577400
3373+839990385+840119472+839832649+839447292+839293911+839444570+839848980
3363+840475908+841204501+841697510+841616669+840993823+840192079+839532760
3353+839181564+839271932+839791071+840460802+841019273+841513644+842092802
3343+842650049+842893661+842737082+842464345+842453117+842784104+843185860
3333+843319575+843043027+842444339+841730309+841139719+840909103+841142917
3323+841649944+842089263+842346622+842579959+842889034+843154490+843178919
3313+842853445+842263807+841693903+841417560+841487717+841763585+842091509
3303+842451348+842936940+843495820+843790605+843582037+843124345+842839019
3293+842761239+842672573+842567983+842607723+842776550+842947828+843140812
3284+843446621+843854026+844326893+844785061+844899926+844324579+843243633
3274+842287488+841864977+841974398+842519668+843366392+844213456+844746001
3264+844887746+844828136+844876586+845200359+845631717+845860223+845817897
3254+845732973+845850900+846202233+846591945+846781255+846727429+846610658
3244+846591537+846598886+846409576+845929088+845355713+845008804+845016833
3234+845290115+845754952+846403996+847105029+847582115+847676906+847524682
3224+847396887+847396071+847394642+847316795+847331289+847594840+847962708
3214+848167737+848151338+848031097+847862541+847571227+847083457+846546829
3204+846390046+846921639+847863494+848615563+848985473+849285429+849704878
3194+850017832+850001637+849805930+849770409+850047433+850525948+851028280
3184+851439291+851704135+851832065+851869356+851824172+851684060+851472499
3174+851191664+850813792+850434968+850267025+850381005+850597467+850675178
3165+850530916+850326703+850389375+850928521+851762316+852425514+852645650
3155+852640274+852802637+853150159+853319803+853125389+852847004+852897360
3145+853381659+854010969+854358491+854271661+854012534+853904337+853996202
3135+854221578+854630003+855204466+855680327+855814655+855664744+855450529
3125+855299802+855245635+855278299+855263872+855013591+854536777+854002871
3115+853426026+852639253+851557899+850257498+848954443+848114524+848278384
3105+849471609+850987247+852018449+852443614+852829924+853661201+854770115
3095+855660729+856215799+856822993+857841674+859190118+860473915+861405223
3085+861998807+862336531+862350004+861979958+861224283+859728583+856613064
3075+850917770+842045032+830055959+816204815+803113497+793722164+789690988
3065+790635157+794572630+798965346+801557234+800750931+796008175+788402495
3055+780453036+774756653+772532293+773340774+775816572+778539452+780624722
3046+781865989+782458485+782713461+783023353+783859189+785546376+787997336
3036+790785067+793545511+796210755+798802371+801181200+803090973+804294678
3026+804618043+804049092+802834023+801382419+800155714+799645080+800188581
3016+801690473+803695241+805779694+807724035+809427145+810922028+812385881
3006+813936564+815488539+816873048+817983527+818819703+819484398+820055527
2996+820438162+820562009+820717091+821360351+822513768+823625948+824134812
2986+824002391+823587160+823122731+822546703+821808040+821030317+820234221
2976+819192880+817781015+816198282+814605410+812790904+810479171+807792559
2966+805156440+802863488+800933573+799306404+797975925+796954658+796217151
2956+795712574+795451065+795560758+796169041+797204735+798396940+799446175
2946+800153740+800513579+800720037+800858992+800578497+799385884+797285848
2936+794750236+792046749+788998938+785460023+781680966+778098704+774982096
2927+772385037+770300108+768727718+767665145+767164446+767385943+768488120
2917+770463083+773087294+775962739+778639960+780877385+782799474+784691146
2907+786677133+788690203+790630394+792426526+794038792+795489104+796830198
2897+798091879+799344103+800742629+802387014+804185324+805944779+807532547
2887+808887319+809970578+810793621+811442325+812015699+812516194+812765726
2877+812493057+811647354+810643847+810109533+810274618+810733875+810940129
2867+810800698+810545926+810137501+809216536+807656259+805734441+803662169
2857+801372075+798912065+796697436+795190712+794566506+794839175+796121680
2847+798499488+801656993+804876830+807558678+809617953+811329773+812968986
2837+814637665+816266466+817738553+819039431+820211629+821214047+821990886
2827+822616521+823209017+823783003+824279007+824665112+824995010+825414051
2817+826026553+826732825+827333282+827806694+828316375+828940377+829569074
2808+830093181+830522225+830864848+831052389+831072599+831062528+831159905
2798+831329073+831416855+831363777+831303215+831416923+831719601+832072295
2788+832380213+832643764+832838110+832912487+832907451+832911874+832909901
2778+832804698+832602527+832484191+832639001+833037491+833404747+833459118
2768+833173588+832797621+832637572+832807624+833176173+833544790+833851756
2758+834160082+834493450+834786398+835001226+835189516+835358275+835377124
2748+835193394+835054440+835254570+835711377+836088092+836270665+836382060
2738+836431055+836356202+836336332+836649422+837246613+837768338+837973436
2728+837960915+837983031+838147503+838329940+838391728+838426297+838641465
2718+839024236+839331746+839420957+839396256+839417419+839551406+839824415
2708+840230391+840640789+840866845+840871201+840778315+840678216+840588869
2698+840558519+840547495+840303474+839674845+838950744+838575730+838643574
2689+838920939+839198780+839363184+839293095+838923933+838356207+837799641
2679+837446675+837403600+837664361+838118855+838612544+839038798+839398705
2669+839765009+840163091+840528986+840818123+841070922+841304804+841439267
2659+841435592+841427154+841600677+842005224+842542192+843080522+843533314
2649+843885736+844182698+844499735+844912107+845422401+845885401+846105264
2639+846056950+845896629+845747127+845635323+845609941+845729230+845936165
2629+846116356+846270009+846521447+846994382+847736856+848666463+849526728
2619+850014430+850052264+849904055+849969654+850445651+851177646+851827166
2609+852155294+852145291+851972040+851910185+852117868+852464029+852752621
2599+853059655+853562395+854150400+854570597+854824961+855087015+855392824
2589+855699245+856012607+856250571+856246080+856037240+855861404+855753003
2580+855476523+854994061+854680019+854898930+855564101+856233423+856564342
2570+856619665+856719423+856997741+857262380+857367447+857494424+857876107
2560+858390892+858620826+858325769+857792544+857564310+857834325+858343462
2550+858857566+859352481+859749474+859925379+859969202+860035685+860034596
2540+859805069+859469932+859299131+859281506+859106010+858595172+857932179
2530+857384322+857017543+856788492+856707243+856785975+856966302+857176912
2520+857437740+857884613+858563053+859165552+859291033+859049122+859005843
2510+859472722+860271948+861156303+861997719+862648055+863005445+863145352
2500+863205642+863288865+863446533+863567182+863416932+863034841+862866490
2490+863244634+863942536+864476579+864680315+864785041+865076288+865615229
2480+866236305+866734894+867063091+867296700+867440963+867447019+867430687
2470+867600740+867943158+868279793+868628472+869132301+869662192+869866133
2461+869621363+869181976+868908490+868959118+869168639+869246077+869154348
2451+869138629+869326510+869548824+869621499+869560052+869494113+869572028
2441+869934181+870604320+871372312+871874507+871857019+871365983+870653518
2431+869949832+869396668+869103040+869108416+869348830+869770389+870393574
2421+871167350+871869132+872259184+872254897+871865049+871091273+870055783
2411+869124203+868671887+868715846+868947482+869182384+869594144+870392009
2401+871460434+872498850+873334686+873870838+873947800+873584627+873192057
2391+873246768+873857568+874796906+875803543+876745194+877597361+878337522
2381+878865712+879076525+878993166+878743634+878445242+878219390+878257837
2371+878688991+879371991+880030017+880682939+881694204+883194939+884717517
2361+885594319+885531374+884803530+884016689+883477611+882894574+882113925
2351+881693523+882174896+883413918+884843066+885851405+886037993+885585200
2342+885197257+885343289+885847458+886359521+886876891+887494497+887926126
2332+887705378+886820615+885814999+885191745+885002639+885090013+885475983
2322+886356731+887688570+888969714+889644139+889651421+889460682+889616172
2312+890242351+890989384+891532205+892001806+892732167+893681848+894402138
2302+894612951+894628330+895074046+896134441+897210896+897553110+897120256
2292+896526671+896339198+896741091+897613809+898598671+899303378+899664714
2282+899923706+900270139+900771178+901562715+902758390+904119490+905079174
2272+905318431+905226702+905516043+906394886+907376481+907904603+907940192
2262+907882692+908075949+908582499+909423984+910625375+911840511+912449951
2252+912273842+911756200+911402825+911487273+912169048+913422360+914879817
2242+916023299+916618993+916959166+917487084+918213770+918879826+919457828
2232+919871493+919661496+918787485+918246910+918966043+920459429+921360592
2223+921106636+920532989+920735229+921733904+922646907+923005997+923292616
2213+924087283+925092559+925287245+924234471+923083096+923663819+926460873
2203+930099546+932909461+934330511+934823453+935125927+935776128+936929545
2193+938332563+939465361+939862014+939579954+939435556+940390612+942368502
2183+944008463+944134965+943220057+942674582+943043336+943831334+944879548
2173+946734747+949300504+951263695+951697706+951411564+951679538+952490060
2163+953531946+956055514+961478139+968126585+972056369+971910269+970002810
2153+968832313+968825236+968973172+968459000+967237263+965725980+964859590
2143+965792395+968415994+970807072+971303551+970572577+970565637+971951642
2133+973726135+975072469+976296997+977755474+978978096+979479135+979696345
2123+980378800+981584410+982930268+984235024+985403616+986369560+987460305
2113+989059506+990871085+992401421+993933458+995998653+998198720+999588060
2104+1000063241+1000555706+1001900678+1004071824+1006538776+1008901342
2095+1010958439+1012570773+1013920101+1015648049+1018262733+1021470730
2087+1024399729+1026504732+1028110534+1029979750+1032385458+1034856492
2078+1036971975+1039026146+1041537737+1044359969+1046816713+1048806851
2070+1051274891+1055059869+1059479055+1062744484+1063920970+1063844484
2061+1063935872+1064814239+1066117702+1067212257+1068093005+1069482141
2053+1071657983+1073565782+1073741823+1071951271+1069202191+1065886951
2044+1060695009+1051765043+1038134579+1018872854+990806575+949192648+891679597
2034+820119900+738778886+654630815+579933960+529233997+509872071+516281736
2024+535662886+558672978+583309355+609838152+635462588+656178980+672604728
2014+690139730+712554536+738330652+763576945+786311374+806886430+825577843
2004+841871645+855884064+868545249+880396388+891355075+901463500+911157920
1994+921022664+931492357+942283101+952243113+960425705+967150842+973676188
1985+980841188+988296413+995467809+1002557208+1009624354+1015611031+1019432210
1975+1020937844+1020351405+1018166377+1014773970+1008752929+996536506+975122961
1965+944704052+907795726+867053564+824718122+782649224+741841327+702694964
1955+666363687+635384605+613084459+602763928+606541148+623365250+648225710
1945+675318286+701997130+727767529+750509920+766334735+771856098+765642616
1935+749176924+726052306+699644975+671458932+640879634+606680511+568743058
1925+528198678+488307799+455433269+434653490+425245043+423186993+425138446
1915+429329943+434608749+439943422+444705435+448917415+453180363+458307081
1905+464625050+471599923+478339111+484327558+489690335+495081454+501264314
1895+508459016+516165033+523795993+531174698+538205405+544130634+547480818
1885+547477619+545598774+545136965+548362008+554686204+561933678+568470967
1875+573980830+578828380+583237360+587134208+590352208+592638287+593616480
1866+593012008+591071341+589070044+589089846+592383379+598151553+604557883
1856+610345451+615149042+619090734+622578613+626115487+629971710+633939193
1846+637361950+639716282+641590942+644129412+647472552+650892247+653608459
1836+655475021+657127232+659144793+661291782+662811094+663521585+664029837
1826+664636623+665269540+666113541+667446402+669243963+671317664+673543045
1816+675878391+678288386+680709337+683072447+685351994+687578259+689770024
1806+691902723+693944645+695802089+697231033+698081023+698728842+699814075
1796+701545153+703560401+705167700+705853694+706091726+706768193+707951007
1786+709128718+709896506+710261448+710396728+710424492+710637414+711440996
1776+712920159+714749499+716429065+717710277+718904387+720232007+721497704
1766+722714406+724106468+725547933+726661406+727568012+728732861+730007608
1756+730996145+731908875+733101896+734188218+734162768+732593372+730522665
1747+728990424+727926082+726857453+725492950+723773780+722132798+721406043
1737+721703346+721999355+721293559+720608790+721328740+722921000+724563888
1727+725923423+726782464+727050301+727184424+727848507+729112434+730339275
1717+730851542+731093045+731860153+733116527+734576229+736083224+737534488
1707+738830535+740039955+741376014+742610000+742848713+741734424+740970038
1697+741801247+743345601+744846744+746415732+748070936+749636930+751238308
1687+753119161+754817848+755176938+754573827+754787839+755837618+757007299
1677+757751814+757661310+756906724+756075991+754784436+751874423+747984447
1667+745731235+745800304+747208562+749139089+751248379+753549157+756078033
1657+758710341+761128979+762413593+761448737+760572549+761864580+763888470
1647+765154779+765456164+766128957+767689983+769628608+771506943+773059735
1638+773858076+773222574+771635350+770757596+770770253+771030197+771216581
1628+771444406+771934558+772679958+773631271+774955558+776720252+778561772
1618+779797528+780028415+779913890+779963565+779738054+778786127+777262460
1608+775888499+775347515+775824941+777187947+779251713+781717780+784176838
1598+786391467+788376569+790196859+791828723+793171518+794194827+795162744
1588+796433953+797822068+798584004+798344270+797725576+797655350+797989263
1578+797081772+793495223+789790134+789802519+792917222+797260671+801624806
1568+805203734+808135863+810848536+813163332+814405892+812103481+798382241
1558+770212121+747474086+734085193+724081834+718687993+720473102+728401398
1548+738670689+748367967+757032545+764941992+771776958+777615698+783349644
1538+788591806+792809910+796382985+799544028+802306581+804914801+807768811
1528+811173262+815269969+819783878+824370327+829320630+834978158+840887396
1519+846986012+853990010+861610797+868184389+872101993+872116147+865933355
1509+845097743+793873980+730786896+695952612+683807436+682251922+687770768
1499+698032777+708353581+714821699+718240849+721105610+724601519+729559715
1489+737593214+749249667+762288384+772914179+775470274+763416623+735915758
1479+701900773+673456828+658615650+660006419+675022345+694924199+710846186
1469+721928925+731104818+740612785+750944476+760728311+768677907+773402221
1459+768753236+743568391+708466404+694812056+703149050+720781769+740584341
1449+760078451+777700894+789107475+787616403+767897462+731166129+688495345
1439+653842817+635867611+636493859+648533832+662575647+676082263+689360238
1429+701368772+710400471+715792270+717747023+717487215+717437063+719786972
1419+725331131+732609772+738978675+743845755+747885913+751335821+754044480
1409+756034142+757793868+759975085+762687691+765261546+767065981+768021990
1400+768304186+768304118+768366110+768339707+768302212+769168466+771752120
1390+776249903+782406020+789296445+795784773+801531172+806444456+809866669
1380+811026755+809497371+803808133+789697113+763510190+730496331+702815001
1370+688834225+690172733+702644064+718517056+728733950+723126982+698961295
1360+669269141+649772309+646045853+654650753+668695086+682907975+695316429
1350+705507464+712742554+715915233+715120226+712729080+712073912+715089536
1340+721188901+727754260+732445231+735183831+737327350+740109773+743935919
1330+748353132+752599000+756211067+759115160+761416414+763301146+764892045
1320+766007627+766244503+765504546+764333641+763651322+764221906+766198774
1310+769042577+772028464+774846612+777709332+780916376+784406160+787812313
1300+790634545+791788846+789053717+780031137+764859177+747973559+736057706
1290+733347142+738825635+747967843+756492650+762030822+763693784+762163652
1281+760141327+760786220+764509954+767577839+764289954+750916848+728781312
1271+704691498+687421680+682050567+687317635+698082316+709579605+719537984
1261+727598294+733996662+738937642+742653551+745517632+747880061+749889048
1251+751309487+751113848+747752403+740985825+733363133+728649026+728520483
1241+731584830+735502025+739051759+742186536+745180997+748217172+751369641
1231+754634186+757973447+761328768+764605766+767653577+770063300+771130976
1221+770676823+769958914+771011960+774643897+778858394+778826208+769314429
1211+749352148+724662286+703705140+691449386+687908089+690947870+698323751
1201+707817361+717410456+725784673+732415766+737336468+740783654+742918871
1191+743898425+744024314+743548521+742440084+740614827+738463210+737019227
1181+737380767+739893584+744034929+748982782+754047678+758749809+762878975
1171+766487775+769692097+772409126+773994989+773091513+768654838+761847432
1162+756228419+754959116+758034351+763023849+768022398+772910505+778253174
1152+784193578+790500149+797017398+803811059+810888140+817410629+820098397
1142+811891171+785013355+739936590+691104449+658557333+651550545+662879346
1132+679198803+692843829+703373745+712650825+721520296+729773863+737063867
1122+743305793+748647645+753403534+757911183+762242452+766118750+769157374
1112+771041697+771528990+770686349+769280269+768550520+769166493+770678796
1102+772560533+775423797+780412003+787732833+796615438+806363207+816520899
1092+825452362+828192867+816263404+782835472+731137821+676674963+637863737
1082+623473991+629487956+646101517+665110375+681694675+693369366+699952553
1072+703830484+708327110+715046053+723052605+730616027+737150220+743316136
1062+749908646+757113862+764587325+771899104+778856149+785539776+792271104
1052+799446311+806887518+813292488+816726813+815160207+805446938+782649700
1043+743597584+693263347+645965216+617061673+612501491+626769498+648779962
1033+667213473+673464857+666201732+653966460+648590312+654576853+667171487
1023+679612128+688521135+693130789+693886396+693030894+693847813+697913761
1013+704001013+709901881+714447501+717739538+720368308+722885411+725580800
1003+728208958+730058440+730740487+730690948+730491023+730295929+730511914
993+732160926+735710592+740209804+744235195+747149360+749137660+750567965
983+751610124+752187377+752039031+750931139+748966043+746176951+741245974
973+731958823+718897106+707486782+703580407+707483788+714376595+719349898
963+720104009+716842458+712343587+710876740+714769233+722441124+730482176
953+736691711+740855241+743901215+746936913+750501482+754356141+757972155
943+761066919+763705624+766095681+768323716+770308001+771999271+773459178
933+774694253+775185220+773113697+765973194+753988817+742547804+738399517
924+742943708+751391757+758247546+760647674+756005357+740393193+713163160
914+682532008+662340405+660808844+674116555+692069713+707495561+718925890
904+727542494+734474293+740027026+743813024+745565129+745919865+746133332
894+747140649+749000203+751079007+752737818+753956426+755333245+757488468
884+760478914+763796264+766946012+769905020+772887437+775850392+778462286
874+780236847+780246101+777192915+770988687+764352967+761399130+763912150
864+769955580+776440642+781847140+786083004+788864339+789003633+785379046
854+778888404+773143094+772047177+776332785+783171494+789078690+792388964
844+793111023+791188525+784876442+771060342+748972983+724354231+707586065
834+705509302+715896180+730950416+744606943+755235460+763436562+769859564
824+774974135+779290160+783143322+786559478+789472213+791980266+794418910
815+797200856+800461998+803837326+806716921+808786608+810289793+811786581
805+813685058+816014688+818602221+821298631+824008651+826727789+829594796
795+832712969+836025080+839443685+842626436+844471903+843893698+841822855
785+841270167+844315733+850187340+856139857+856046699+837908178+792289273
775+729696764+681102792+671339031+695099083+723300233+727353388+695269816
765+634363269+565937022+513498735+490168952+494988500+518563528+550299919
755+582631935+611907974+636990066+657788660+674840928+689021630+701003898
745+711036925+719188488+725762421+731347137+736369231+740986710+745466936
735+750062299+754606354+758842151+762915040+767151313+771681895+776444316
725+781348550+786423450+791763328+797340015+803053546+808850709+814786146
715+821222553+828610207+836822468+844432299+845776592+827654538+777569221
705+704487694+644086678+628294662+651329116+675954469+670216576+632634028
696+586825405+559278233+561404535+587031319+622172842+655340626+681128718
686+699017231+711252434+720803816+729811153+739015966+748031877+756170170
676+762913271+767404248+768737653+767600771+766799776+770107735+778116261
666+786615005+793756528+800593944+807731316+814281704+817978695+816209442
656+808678411+799927684+797393705+804846957+817490994+823481005+809691377
646+769150842+708730772+650089482+616426103+613963778+628067177+639021577
636+640229773+639979560+647477179+660908943+670447532+669365429+659539677
626+647905883+639963841+636723385+636773673+639530510+645582513+654841492
616+665332892+673995497+678995679+681628668+685430181+692530195+701441788
606+709359401+715455704+720629069+725305273+729164491+732314374+735333265
596+738459944+741589481+744760323+748095026+751450346+754558244+757468394
586+760497968+763705760+766690423+769109672+771238016+773764986+777012587
577+780255356+781633536+779234020+772997266+765684806+761535159+762986287
567+768759564+775922727+782742518+788733142+793589198+797346275+800580062
557+803544786+805854002+807456537+809095342+811379857+813988281+816152350
547+817679828+819265827+821659491+824048119+823161927+815626201+802745968
537+790358677+780322996+765341163+738903754+708892522+693383111+702726198
527+731189674+764189923+790752404+809084523+821689908+828560191+823338512
517+797764704+756198206+717845897+696747074+687396434+676089272+662723720
507+660727254+674733820+691742333+697177615+690312980+681502031+677160079
497+672788662+659815680+636673914+612565796+598607476+596191424+597761160
487+596682732+590505793+578407366+562869953+552071316+553907732+568772353
477+590806157+614391597+637371681+658516436+674905097+683873851+685392687
467+681519995+676199442+674325327+678828825+688916563+701347405+712946698
458+721652037+727134817+731036429+734916470+738890485+742530928+745908637
448+749173522+752082650+754452429+756571790+759443561+764346230+770944660
438+776671733+779042533+778423634+777512673+778338302+780602810+781498052
428+777300022+766763506+753522482+743760491+737604986+723622577+689520627
418+652785756+645149523+664406416+694892489+725535684+749275730+763660576
408+770810741+774486910+776869277+778140078+778813823+780501146+783618843
398+785933911+786753347+788971719+792685994+795405745+796568893+797603293
388+799037613+800048538+800416814+800774340+801061503+801237204+802224719
378+804300121+804549382+796627210+780088774
##END=
