##TITLE=ZZ-58
##JCAMP-DX=4.24
##DATA TYPE=INFRARED SPECTRUM
##DATE=24/10/2019
##SAMPLING PROCEDURE=ATR platinum Diamond 1 Refl
##ORIGIN=Marie
##XUNITS=1/CM
##YUNITS=TRANSMITTANCE
##RESOLUTION=4
##FIRSTX=3997.453
##LASTX=373.96442
##DELTAX=-1.4165319
##MAXY=1.0099788
##MINY=0.73000699
##XFACTOR=1
##YFACTOR=9.4061603e-010
##NPOINTS=2559
##FIRSTY=0.99777049
##XYDATA=(X++(Y..Y))
3997+1060762794+1060046929+1060196794+1060850305+1061481383+1061970455
3989+1062301868+1062361243+1062209921+1062099345+1062200036+1062546847
3980+1063007023+1063133061+1062418464+1060937182+1059470220+1058780526
3972+1058905614+1059299634+1059461729+1059298113+1059102307+1059284806
3963+1059907837+1060510844+1060662736+1060459833+1060115747+1059513627
3955+1058608230+1057821013+1057605563+1057903645+1058244056+1058158129
3946+1057466027+1056458862+1055828797+1055966368+1056270723+1055943049
3938+1055189797+1054767072+1054876127+1055256777+1055886208+1056801871
3929+1057664558+1058188419+1058465399+1058686742+1059043502+1059771977
3921+1060839912+1061792392+1062283364+1062576820+1062985858+1063133061
3912+1062526253+1061287415+1060095215+1059375105+1059059724+1058824947
3904+1058244309+1057230807+1056432754+1056432311+1056799336+1056569312
3895+1055347773+1053733672+1053100629+1054235417+1055632611+1055286180
3887+1053452319+1052168110+1052664532+1054076428+1055503594+1056905160
3878+1057995718+1058423259+1058467173+1058432194+1058063141+1057289675
3870+1056762203+1056620132+1056087464+1055156339+1054921119+1055877273
3861+1056939505+1057026890+1056172820+1054940572+1053941898+1053759779
3853+1054201262+1054134599+1053688237+1053748373+1054418993+1055065850
3844+1055223192+1055287954+1055995834+1057456015+1059058520+1059976211
3836+1059979569+1059771470+1060065179+1060611028+1060454130+1059363192
3827+1058336319+1058284801+1058784328+1058766649+1057932033+1056900471
3819+1056059075+1055178708+1054183772+1053293900+1052723591+1052543880
3810+1052629237+1052631011+1052244912+1051558133+1051038391+1051303522
3802+1052675305+1054241944+1054761495+1054704084+1055113629+1055901733
3793+1056290874+1056204187+1056289670+1057047991+1058273775+1059153065
3785+1058924941+1057758596+1056728618+1056563102+1056746551+1056327627
3776+1055463292+1054971052+1055021430+1055286750+1055701491+1056386686
3768+1057081259+1057288851+1056768540+1055772907+1055036638+1055235232
3759+1056216037+1056841349+1056262485+1054909015+1053916234+1054434201
3751+1056358614+1057200263+1055555809+1053262977+1052702743+1054233960
3742+1055341119+1054651299+1053177684+1051963369+1051384822+1051532406
3734+1052491856+1053978271+1055191382+1055391180+1054349415+1052585957
3725+1051286159+1051266198+1052026167+1052636207+1052942653+1053317346
3717+1053826886+1054171986+1054131874+1053846783+1053899251+1054768276
3708+1055875816+1056111670+1055168696+1053961035+1053820105+1054995766
3700+1056275032+1056816509+1057009717+1057356465+1057755618+1057868792
3691+1057698016+1057640605+1057924176+1058186011+1058056931+1057477814
3683+1056493651+1055326862+1054326223+1053618343+1053203475+1053317536
3674+1053840383+1054181238+1054565879+1055519943+1056291508+1055921567
3666+1055250314+1055372296+1055983161+1055977014+1055121677+1054435342
3657+1054893554+1056078782+1056391565+1055051656+1052782206+1051128120
3649+1051553190+1053308982+1054196636+1053751351+1052852925+1052257585
3640+1052010705+1051732774+1051398637+1051500532+1052207271+1052691400
3632+1052026167+1050815401+1051245604+1053905588+1055982907+1055955279
3623+1054777717+1053843488+1054061599+1055264128+1056070608+1055610305
3615+1054681272+1054442693+1054925744+1055161852+1054735831+1054370580
3606+1054729051+1055409937+1055654092+1055306394+1054873276+1054855786
3598+1055122564+1055193599+1054884555+1054422922+1054105387+1054048546
3589+1054145245+1054190679+1054275529+1054714223+1055276548+1055283391
3581+1054458154+1053389585+1053041760+1053735763+1054755539+1055071807
3572+1054394723+1053274003+1052368415+1052072615+1052435332+1052919777
3564+1052898106+1052421137+1051901269+1051499201+1051155938+1051031991
3555+1051439129+1052258219+1052794500+1052569354+1052054555+1052107784
3547+1052932704+1053882206+1054242958+1054013757+1053679619+1053605226
3538+1053788802+1053965724+1053984354+1054093664+1054592621+1055223129
3530+1055294671+1054577792+1053704142+1053339271+1053412968+1053432675
3521+1053092898+1052472022+1051946260+1051876112+1052149036+1052260437
3513+1052039727+1051918188+1052252389+1052724035+1052771244+1052412266
3504+1052222416+1052545338+1052919777+1052581711+1051491153+1050378417
3496+1049758238+1049291028+1048447097+1047538151+1047510460+1048691443
3488+1050113857+1050472201+1049698545+1048989081+1049203137+1049833519
3479+1049884466+1049222718+1048574213+1048650571+1049535754+1050679730
3471+1051471193+1051922814+1052566883+1053509160+1054009448+1053506499
3462+1052765984+1053215451+1055097471+1056993368+1057380798+1056255261
3454+1054942347+1054485783+1054592494+1054330532+1053576330+1053172424
3445+1053542682+1053989360+1053719731+1052870287+1052179200+1052022871
3437+1052031299+1051553317+1050470110+1049487658+1049391212+1050036612
3428+1050479995+1050187173+1049667559+1049660145+1050092502+1050304150
3420+1050202508+1050555276+1051773646+1052980230+1052918890+1051579108
3411+1050300665+1050254914+1051319997+1052434128+1052741968+1052342181
3403+1051911218+1051667822+1051130148+1050056573+1049127793+1049288810
3394+1050664839+1052414294+1053510111+1053622081+1053286106+1053218556
3386+1053549652+1053821626+1053661623+1053240925+1053000571+1053097524
3377+1053236426+1053089413+1052819973+1052966986+1053700530+1054434011
3369+1054425013+1053630509+1052653760+1051914893+1051231853+1050330891
3360+1049465162+1049218725+1049748923+1050470110+1050639935+1050205107
3352+1049819768+1049983827+1050502301+1050889351+1050959118+1050843409
3343+1050710527+1050614081+1050460098+1050224307+1050278486+1051030724
3335+1052076227+1052409541+1051790375+1051138322+1051231283+1051754129
3326+1051970720+1051695577+1051300607+1051224059+1051620423+1052164245
3318+1052310117+1052076100+1052226282+1053260062+1054585713+1055113249
3309+1054475454+1053349917+1052628920+1052487483+1052400796+1052011845
3301+1051614720+1051570553+1051663894+1051433172+1050891378+1050564528
3292+1050863687+1051537855+1051795825+1051113165+1049928317+1049231843
3284+1049394824+1049762864+1049625926+1049206876+1049262006+1049911397
3275+1050385641+1050039273+1049256683+1048953468+1049346791+1049678648
3267+1049242552+1048337471+1047890983+1048295902+1048980463+1049137805
3258+1048591069+1047829009+1047443924+1047613939+1047919878+1047810759
3250+1047505580+1047947570+1049388297+1050706408+1050850189+1050236410
3241+1049887698+1049930218+1049803799+1049462881+1049599185+1050688348
3233+1052290980+1053479377+1053744444+1053351438+1052926494+1052787592
3224+1052606361+1051842907+1050639429+1049943461+1050438933+1051660599
3216+1052468410+1052176601+1051087691+1050004865+1049362190+1048970578
3207+1048557611+1048259909+1048432396+1049090089+1049693223+1049642338
3199+1049020004+1048567813+1048847644+1049727631+1050639175+1051006771
3190+1050638668+1049981609+1049707734+1049966210+1050409341+1050766988
3182+1050895624+1050579293+1049796385+1048970514+1048620345+1048880659
3173+1049399640+1049642528+1049448560+1049272968+1049657230+1050598620
3165+1051632527+1052366641+1052821114+1053339081+1054103485+1054750913
3156+1054763270+1054231742+1053828977+1053963063+1054369249+1054652630
3148+1054841846+1055097281+1055127444+1054380149+1052809454+1051058922
3139+1049806587+1049211121+1049002325+1048851003+1048560082+1048033497
3131+1047232846+1046246908+1045328711+1044792177+1044902056+1045762843
3122+1047140393+1048447858+1049137742+1049161758+1048986546+1049115499
3114+1049609831+1050206184+1050836122+1051687023+1052712945+1053504724
3105+1053767764+1053628925+1053403843+1053217732+1052867182+1052056393
3097+1050826870+1049647661+1048978055+1048802717+1048633778+1047946049
3088+1046651384+1045183282+1044090633+1043625642+1043699908+1044012184
3080+1044084740+1043220595+1040609340+1035958977+1030416524+1026403957
3071+1025672567+1027776500+1030974413+1033916321+1036133302+1037644114
3063+1038471062+1038417326+1037383292+1035872544+1034766208+1034495501
3054+1034776157+1035133804+1035340319+1035428907+1035625410+1036181905
3046+1037059357+1037931296+1038615097+1039242246+1039860271+1040182433
3037+1039960646+1039357956+1038773706+1038514849+1038681823+1039138704
3029+1039642603+1040170709+1040928587+1041921938+1042835320+1043499096
3020+1044173582+1045114845+1046048378+1046437645+1046294561+1046248619
3012+1046590171+1046792377+1046373834+1045734771+1045684013+1046424084
3003+1047279168+1047341078+1046349501+1044873351+1043543770+1042366716
2995+1040978774+1039352443+1037962536+1037297619+1037314222+1037394318
2986+1036822805+1035235255+1032744209+1029898113+1027377601+1025450907
2978+1023872545+1022416926+1021159965+1020169592+1019316473+1018468360
2969+1017625507+1016863067+1016292315+1016132438+1016799890+1018669996
2961+1021519070+1024431955+1026598052+1028045496+1029312850+1030607768
2952+1031666832+1032365334+1033036967+1034049900+1035255723+1036007390
2944+1035731931+1034525411+1033133223+1032211223+1031674626+1030926697
2935+1029623351+1028016601+1026579295+1025445014+1024312127+1022983433
2927+1021875640+1021637441+1022230816+1022766969+1022477506+1021649481
2918+1021330995+1022122077+1023525480+1024605963+1025084008+1025530940
2910+1026555722+1028022367+1029193021+1029647558+1029803505+1030297330
2901+1031147914+1031890963+1032292271+1032533068+1032831086+1033161865
2893+1033331247+1033261226+1033195006+1033483710+1034111049+1034612731
2884+1034639346+1034499303+1034835722+1035685863+1036238556+1035858920
2876+1035015116+1034685224+1035123094+1035751448+1036110046+1036335508
2867+1036641384+1036792136+1036376444+1035399441+1034338983+1033660886
2859+1033430481+1033344934+1033043684+1032443909+1031816316+1031520262
2850+1031678365+1032138097+1032738823+1033505698+1034452411+1035326948
2842+1035802079+1035881859+1035910058+1036242801+1036975268+1037836752
2833+1038410863+1038636515+1038915079+1039571758+1040419681+1040999242
2825+1041121288+1041039480+1041033904+1041007733+1040804259+1040733161
2816+1041242574+1042175219+1042838425+1042766756+1042162482+1041649331
2808+1041617900+1041768272+1041458594+1040531842+1039547742+1039184772
2799+1039590832+1040324376+1040903873+1041351313+1041991326+1042819351
2791+1043444537+1043608089+1043419253+1043142907+1042990697+1043040821
2782+1043225918+1043448339+1043681849+1043846605+1043697691+1043127445
2774+1042520826+1042415826+1042771826+1042970420+1042593509+1041854642
2765+1041227682+1040973451+1041066095+1041352833+1041682916+1041949377
2757+1042091890+1042088785+1041924727+1041637418+1041417152+1041497312
2748+1041894500+1042426789+1042966111+1043455056+1043737105+1043619622
2740+1043131247+1042609224+1042451565+1042732094+1043096585+1043084862
2731+1042526466+1041660927+1040964326+1040796845+1041132757+1041697427
2723+1042317226+1042962562+1043517980+1043764860+1043654727+1043466779
2714+1043550107+1043926068+1044271865+1044289545+1043981007+1043600358
2706+1043435032+1043568294+1043817012+1043953949+1043934369+1043869417
2697+1043882788+1043997610+1044084233+1043973086+1043650608+1043253547
2689+1042894695+1042594079+1042372102+1042318747+1042481728+1042658524
2680+1042518101+1042126743+1042075161+1042743183+1043700732+1044233718
2672+1044226494+1044106792+1044134104+1044180045+1044102166+1043957435
2663+1043852181+1043831840+1043893433+1043939692+1043744773+1043127001
2655+1042213366+1041441802+1041149233+1041179459+1041067552+1040608770
2646+1040038778+1039688988+1039688482+1039956654+1040301057+1040582980
2638+1040850201+1041193147+1041543887+1041859458+1042349797+1043194108
2629+1044164710+1044845026+1045083795+1044974042+1044579262+1043943811
2621+1043233649+1042650793+1042223632+1041757119+1041070594+1040326784
2612+1039936439+1039997145+1040082185+1039770923+1039127171+1038485130
2604+1038019821+1037657674+1037277278+1036993708+1037220628+1038202890
2595+1039475123+1040209364+1040243265+1040313287+1041033017+1042035620
2587+1042427486+1041848369+1040820228+1040129014+1040061590+1040321778
2578+1040544642+1040680439+1040877956+1041145114+1041190169+1040736710
2570+1040040426+1039739999+1040069828+1040645270+1041064130+1041274321
2561+1041395480+1041518793+1041573416+1041386672+1041072812+1041059378
2553+1041481850+1041969781+1042163623+1042079914+1041992023+1042184787
2544+1042714034+1043346063+1043762896+1043762516+1043389217+1042918141
2536+1042445862+1041723724+1040818581+1040356250+1040522527+1040555922
2527+1039840691+1038817176+1038283367+1038337610+1038496219+1038566430
2519+1038841889+1039382669+1039701409+1039499076+1039237937+1039572138
2510+1040538242+1041616063+1042387374+1042842480+1043127635+1043311338
2502+1043462280+1043693572+1044041017+1044427243+1044675264+1044561645
2493+1044096843+1043676082+1043653777+1043923470+1044104891+1043950274
2485+1043489908+1042911171+1042280156+1041488694+1040571827+1039789426
2476+1039267974+1038906271+1038664523+1038645133+1038973124+1039797474
2468+1041162604+1042674746+1043578433+1043504989+1043026817+1043094620
2459+1043934686+1044837738+1045039818+1044491941+1043732670+1043215589
2451+1042933476+1042788555+1043021494+1043781082+1044557400+1044688000
2442+1044198042+1043588635+1043064901+1042423493+1041559792+1040742729
2434+1040306697+1040313160+1040702681+1041440724+1042233961+1042614864
2425+1042575639+1042533817+1042574689+1042381037+1041937717+1041742164
2417+1042229588+1043234156+1044150136+1044610248+1044809413+1045057624
2408+1045308180+1045319079+1045095328+1044967262+1045151345+1045331689
2400+1044975436+1044040066+1042967378+1042083082+1041394783+1040815349
2391+1040272288+1039709963+1039079265+1038333744+1037579796+1037184952
2383+1037509774+1038590637+1040119825+1041569868+1042458409+1042755287
2374+1042886584+1043191636+1043625768+1043924990+1043771451+1042993866
2366+1041824416+1040746595+1040090359+1039897722+1040047903+1040423040
2357+1040919145+1041346560+1041616379+1041883664+1042147401+1042130545
2349+1041800716+1041616886+1042123131+1043170408+1043761882+1043281428
2340+1042403152+1042235862+1042945009+1043724685+1044007178+1044005024
2332+1044025428+1043959146+1043614742+1043020417+1042313297+1041690520
2323+1041373871+1041332873+1041283002+1041147966+1041146191+1041338956
2315+1041541035+1041683929+1041866809+1042051145+1042020602+1041662004
2306+1041160639+1040906408+1041144037+1041650725+1041921558+1041773151
2298+1041527918+1041499213+1041581401+1041481090+1041162097+1040982830
2289+1041358980+1042194483+1042868271+1043008694+1042882529+1042776325
2281+1042581659+1042287443+1042255252+1042712704+1043389470+1043836846
2272+1043979487+1044169780+1044489089+1044369451+1043457400+1042316022
2264+1041643247+1041495284+1041650154+1041908504+1042010653+1041915031
2255+1041781959+1041364176+1040173561+1038400597+1036914372+1036242168
2247+1036008848+1035502160+1034728567+1034618878+1035914303+1038127926
2238+1039921991+1040344527+1039624417+1038906588+1039178499+1040404536
2230+1041672903+1042112548+1041865224+1042067304+1043338903+1044811124
2221+1045565579+1045996543+1046547398+1046422944+1044805674+1042329773
2213+1040471389+1039973699+1040083325+1039321709+1037307315+1035439489
2204+1035158770+1035876980+1035479981+1033117761+1030664102+1030528748
2196+1032770253+1035517178+1037544120+1039052270+1040500095+1042073070
2187+1044008319+1046452346+1048951694+1050559965+1050680174+1049712043
2179+1048808166+1049068924+1050701149+1052518153+1052553702+1049690371
2170+1044773737+1040120966+1037575487+1036666541+1035410720+1033247538
2162+1031685208+1031594593+1031868531+1031428062+1030817895+1031479517
2153+1034143367+1037489497+1038982566+1037769265+1035715202+1035120180
2145+1036690811+1039821617+1043593577+1047315858+1050578912+1052769723
2136+1052836956+1050305227+1046394809+1043238275+1041877581+1041621132
2128+1041387179+1040982576+1040783602+1040785503+1040548191+1039928708
2119+1039412389+1039438813+1039623910+1039184075+1038080337+1037204786
2111+1037450145+1038875601+1040610228+1041648253+1042068951+1042936011
2102+1044589274+1045925191+1045875384+1044761634+1043768409+1043617150
2094+1043925244+1043685270+1042383952+1040545846+1039123305+1038527396
2085+1038315621+1037725351+1036510593+1035234938+1034689026+1035215865
2077+1036667365+1038619722+1040443064+1041500417+1041666947+1041652246
2068+1042422670+1044033729+1045300766+1045023406+1043465828+1042210895
2060+1042444151+1043565632+1043926258+1043020037+1041941075+1041321720
2051+1040293136+1038132869+1035771979+1034883501+1035960245+1037880412
2043+1039245225+1039914577+1040778279+1042156462+1043530400+1044475275
2034+1044689965+1044076122+1043632739+1044694971+1046922218+1048560082
2026+1048521174+1047209844+1045846361+1045191837+1044485097+1042569556
2017+1040175272+1039120517+1039340023+1039009370+1037242299+1034875580
2009+1033058893+1032154319+1031915550+1032265466+1033624322+1036349576
2000+1039827447+1042421339+1042963766+1042170847+1041760794+1042473744
1992+1043782413+1044989947+1045620139+1045532565+1045319586+1045403105
1983+1044853707+1042532803+1038849557+1035226827+1032658409+1031670317
1975+1032920878+1036641764+1041384074+1044616205+1045557722+1046130185
1966+1047884266+1049742776+1050070577+1048786241+1046889773+1045521729
1958+1045269716+1045609810+1045461023+1044438205+1043203169+1042601050
1949+1042681907+1042841657+1042942982+1043444410+1044213313+1044311026
1941+1043272177+1041673854+1040556935+1040693556+1041727970+1042370011
1932+1042007105+1041227809+1040686269+1040630442+1041209179+1042326034
1924+1043619241+1044821009+1045687562+1045842306+1045193611+1044237837
1915+1043560626+1043239416+1042918965+1042334462+1041700468+1041401120
1907+1041449089+1041476717+1041019139+1039954879+1038897653+1038585821
1898+1038947207+1039495780+1040120522+1040772512+1041200561+1041450990
1890+1041835315+1042366082+1042796032+1043029859+1043223827+1043636984
1881+1044232324+1044573749+1044448914+1044134040+1043806303+1043306712
1873+1042550419+1041790007+1041599143+1042349924+1043371347+1043710554
1864+1043436742+1043114455+1042945833+1042961802+1043289666+1043837987
1856+1044294867+1044556956+1044774244+1045046535+1045222570+1045012189
1847+1044396509+1043753391+1043405566+1043333136+1043516206+1044050142
1839+1044866697+1045682239+1046169346+1046207494+1046010547+1045931718
1830+1046118082+1046359640+1046349121+1046061114+1045790218+1045731159
1822+1045613232+1045146846+1044509874+1044008192+1043571335+1042969406
1813+1042260005+1041788613+1041878912+1042483566+1043218948+1043785708
1805+1044177827+1044549922+1045033608+1045622167+1046182083+1046579209
1796+1046736677+1046669191+1046546384+1046476743+1046245514+1045784958
1788+1045439224+1045413434+1045447969+1045200011+1044679763+1044084170
1779+1043525964+1043004258+1042510814+1042218753+1042483122+1043328954
1771+1044128591+1044465897+1044554612+1044620704+1044625266+1044483006
1762+1044270788+1044198105+1044331684+1044494539+1044469002+1044225733
1754+1044020485+1044244047+1044996157+1045674065+1045636741+1045080563
1745+1044465897+1043924420+1043498209+1043362159+1043487627+1043488387
1737+1043216667+1043122629+1043787166+1044901169+1045742819+1046290822
1728+1046710570+1046992366+1047158706+1047285631+1047316998+1047135260
1720+1046775648+1046459697+1046433019+1046616469+1046715576+1046683068
1711+1046719378+1047006814+1047551332+1048236336+1048889594+1049373976
1703+1049782634+1050335644+1050857984+1050807226+1050286471+1049825534
1694+1049519342+1049175255+1048820460+1048600637+1048516928+1048495700
1686+1048586886+1048790550+1048877871+1048869823+1048965445+1049155421
1677+1049367449+1049665784+1050105619+1050537597+1050888463+1051388371
1669+1052239335+1053228885+1054132825+1054972446+1055703202+1056123900
1660+1056227887+1056250826+1056352467+1056570579+1056939886+1057341066
1652+1057360584+1056983102+1056434212+1055833740+1055322553+1055053430
1643+1055070920+1055282441+1055432686+1055292136+1055013889+1055209822
1635+1056183086+1057301272+1058143111+1058862968+1059664505+1060523517
1626+1061286844+1061944854+1062556923+1063002587+1063133061+1063020204
1618+1062744744+1062313147+1061503752+1060061694+1057990268+1055636413
1609+1053582540+1052210313+1051306500+1050187997+1048133047+1044690915
1601+1039756792+1033508169+1026167785+1017611313+1007358044+995334599+982768917
1591+972373007+967153603+967896145+972254890+977044282+980381667+981749711
1581+981318748+979317027+975152630+967268425+956064577+945509045+938603426
1571+936925387+940649251+944735389+942636081+932632291+918064191+905525884
1561+902452805+916810335+943518033+962956192+974108774+982783491+990560986
1551+997357422+1003201378+1008023151+1011855881+1015137629+1018311715
1543+1021747003+1026182043+1031283141+1034630411+1035948965+1036812603
1534+1038145162+1039615545+1040370888+1040410429+1040215891+1039980543
1526+1039581390+1038886120+1038040225+1037493172+1037432719+1037537719
1517+1037752282+1038328611+1039276718+1040438501+1041671890+1042685899
1509+1042899448+1040851595+1034789590+1025991940+1016810472+1008984375
1500+1004929034+1006663344+1012810198+1018808264+1021770640+1022003516
1492+1020093044+1015140924+1005175408+989551919+970590792+952388556+938410408
1482+929453515+924189119+921828103+923095900+928794301+938844160+952250034
1472+965779158+975480368+980429129+980878849+975625290+963722117+949324412
1462+939572571+937266178+941119186+946957630+948730847+947806186+950954925
1452+959560128+968947034+973110354+969216537+959489473+949062957+941365053
1442+936739213+934182454+932564171+930442431+925748344+917276404+905640389
1432+892017417+879258464+872612019+874736928+883281170+894582541+905152521
1422+913143501+920045508+928044789+935243482+937859236+936223083+933593071
1412+933119335+935925952+940591524+945396567+950450709+956792672+964093831
1402+970848508+976382913+980932775+984634778+987154783+987771794+985819500
1392+981528622+975988323+970685209+967960146+970128334+976365297+983551634
1383+990025972+995758402+1000807411+1004878720+1007941090+1010592266+1013510791
1373+1016664980+1019547955+1021897882+1023566416+1024197685+1023627883
1364+1022559694+1022584534+1024757411+1028217223+1031403856+1033578508
1356+1034843009+1035600570+1036098766+1036356990+1036375366+1036157698
1347+1035560331+1034359894+1032411529+1029476021+1024901002+1017739759
1339+1007420144+994057804+977725674+957994123+934933044+910817337+890596017
1329+879270821+878074693+884180168+893658260+903546785+912023351+918345543
1319+923190888+928247185+934686924+942377731+950484167+958103939+964529040
1309+969436486+972977788+975671358+978056707+980278061+982132389+983608729
1299+985153252+987318589+990398574+994388900+998814878+1002327348+1002806914
1289+998334424+988330570+974028741+958095955+943841651+934336628+931207279
1279+933625009+938746384+943149803+943985116+939764385+931114889+921212106
1269+914716223+914670725+920340421+928661926+936937554+944013948+949952766
1259+955164566+959871834+964151939+968049685+971496506+974405145+976900310
1249+979234268+981538000+983840591+986144449+988308012+990042004+991133766
1239+991496166+990938213+989105937+985964675+982463865+980340161+980652944
1230+982692622+984760689+985663362+985350706+984519639+983809604+983457787
1220+983646559+984658541+986384993+988135778+989288436+989848543+990262270
1210+990945247+992038149+993459296+995101089+996891923+998634407+999829965
1200+999662230+997377446+993214317+989054800+987342415+988833266+992129716
1190+995460954+998014227+999839026+1001305671+1002706160+1004085801+1005330405
1180+1006385160+1007362606+1008427246+1009529970+1010189184+1009590550
1171+1007213312+1003689563+1000894795+1000560214+1002712370+1005988478
1163+1009078729+1011315481+1012335384+1011801448+1009803402+1007517857
1154+1006708652+1007992988+1010369022+1012685744+1014556801+1015946517
1146+1016881507+1017551810+1018146199+1018641798+1018852939+1018515696
1137+1017373367+1015303969+1012482714+1009620206+1007818853+1007742495
1129+1009093367+1011149965+1013439122+1015772129+1017992279+1019860421
1120+1021239682+1022289811+1023122209+1023397161+1022697202+1020954527
1112+1017887279+1012184252+1001937890+986992562+972165288+965323798+967422979
1102+971079927+971316478+970290936+972336444+977606797+982540920+984275230
1092+982602767+979358976+976959686+977182740+980453272+985707593+991228881
1082+995804787+999057513+1001245598+1003070904+1005114321+1007319833+1009282266
1072+1010674897+1011269223+1011071959+1010572052+1010584092+1011722365
1064+1013859503+1016181294+1018007867+1019267807+1020042857+1020381620
1055+1020700486+1021312681+1021029238+1016942720+1006503721+990968757+977471823
1045+973878940+979665168+988162519+995070546+999961516+1003659273+1006636729
1035+1008872848+1010373077+1011525165+1012718251+1013922871+1014916096
1027+1015625243+1016166973+1016680315+1017057226+1017034794+1016725179
1018+1016655918+1017158170+1018038918+1018833802+1019337194+1019965041
1010+1021238288+1022926276+1024373150+1025441148+1026288691+1026578535
1001+1025766351+1024100289+1022868928+1023281135+1025091105+1026974329
993+1028161776+1028864777+1029361389+1029567271+1029302838+1028299537
984+1025877498+1020636865+1010841238+996407160+981481349+973244630+975059670
975+983471981+993402962+1001848542+1007573304+1010468509+1011594362+1012868686
965+1015528924+1018931831+1021763733+1023753034+1025321384+1026530882
956+1027223808+1027482855+1027500661+1027439448+1027411249+1027426394
948+1027573090+1028098028+1029033335+1030012809+1030565312+1030336111
939+1029155381+1027024516+1023718879+1018398339+1010168970+999615592+989952403
929+985524777+987888391+994634196+1002380767+1009085320+1014057780+1017488886
919+1019992543+1022012451+1023678957+1025037306+1026059997+1026734673
911+1027299025+1027974524+1028618403+1029070025+1029496996+1030126554
902+1031021179+1032151721+1033384603+1034485172+1035271248+1035725911
894+1036025640+1036388483+1036840802+1037355918+1038071022+1038923761
885+1039414923+1039176534+1038387860+1037345145+1035605132+1031383198
877+1022415216+1009096789+997570400+995732928+1003569481+1014312392+1022912272
867+1027710471+1027550975+1020465139+1005694452+987327207+974783513+974638592
857+983082270+992296119+998331953+1001507117+1004051899+1007422425+1010983498
847+1013530561+1015162849+1016893230+1018891023+1020008195+1019291380
839+1017331101+1015629299+1015152140+1016047969+1018098293+1020917331
830+1024109477+1027300673+1029963382+1031594593+1032073209+1031742683
822+1031221927+1030661250+1029107855+1025580367+1020609427+1015463909
813+1010286961+1003998417+995461651+984442204+971750673+958133342+944175155
803+933072443+930405995+937520536+949766148+962673889+974725215+985702396
793+995377055+1003213291+1009078476+1014036869+1019235489+1024293116+1027674225
783+1027827828+1023913671+1017111025+1011291085+1010364396+1014732519
775+1021739399+1028491161+1033540234+1037008156+1039541025+1041515245
766+1043212611+1044803520+1046132973+1047033175+1047340634+1046616152
758+1044395305+1039890498+1030863266+1013816920+985678443+945414817+895625446
748+843318477+799022703+776094569+783552183+814261676+850970440+881079778
738+900707406+912582000+922528379+934219904+946398537+956241437+963238114
728+968710293+973669320+978204290+982256019+986269664+990837585+995960988
718+1001051630+1005461386+1008903644+1011764061+1014788600+1018161534
710+1021361221+1023806389+1025090408+1025173927+1024429420+1022041980
701+1014279631+995754410+963504385+924039635+897695921+898468246+915511107
691+933843500+946976767+952343438+949760128+943702813+942030223+948798524
681+960639786+972141652+980872386+987231015+992188711+996043937+998680602
671+1000057708+1000567184+1001524923+1003956657+1006497637+1007999768
663+1009027845+1010577882+1012822871+1013956456+1010169984+997701255+976397171
653+954026990+944377425+951804306+966824344+980572720+990920914+998634280
643+1003875547+1006418174+1007029672+1007138221+1007356459+1007042219
635+1005588945+1003811292+1003353017+1004969716+1008218640+1012133938
626+1015443188+1017110898+1017182377+1016266524+1014467326+1011788774
618+1008876586+1006164007+1003033390+999139384+996052428+996230554+1000054920
608+1005342255+1009915119+1013185525+1015368097+1016148660+1014962798
599+1012501280+1010750558+1011055610+1013074568+1015906469+1019082837
591+1021902634+1023240009+1023027030+1022662603+1023124236+1023675345
582+1022711523+1019018138+1013337670+1009524964+1011086344+1015747923
574+1018311272+1018009198+1017587993+1018130230+1018434712+1017555486
565+1016302453+1016521769+1018441999+1019797561+1019303673+1018350370
557+1017687100+1016263862+1013788595+1011224422+1009835973+1010884454
548+1013982373+1016752300+1018343209+1020492831+1023928689+1026802603
540+1026714965+1023127468+1018119268+1014297374+1012492282+1012351733
531+1013062274+1013098521+1011855627+1009934066+1006024281+997931976+987694422
521+980185924+977869519+979901340+983498532+986284112+989167531+994299044
511+1001225828+1008200453+1014580627+1019934878+1024111378+1027623277
503+1029833732+1030267357+1030874166+1032526478+1033286953+1032080813
494+1029624999+1026903738+1025451984+1025847082+1026501099+1026955953
486+1028265509+1029498327+1029162668+1027803432+1025570609+1021890785
477+1016994111+1009687059+997503357+982469948+973401084+976630871+988157070
467+999600700+1006730767+1012274107+1019295498+1025380379+1027225709+1024650700
458+1018890135+1013072540+1009739464+1007006923+1003787149+1002864199
449+1004618786+1006383576+1007421538+1007039811+1004194539+1001985479
441+1003467396+1007027201+1011428402+1016513911+1020149568+1021526104
432+1021010798+1017003997+1011620660+1011376631+1016245296+1021297156
424+1027142127+1034859929+1041851790+1045719499+1043326356+1035420162
415+1028528421+1025122853+1022917087+1020650743+1015843798+1004138903+990675871
405+987673004+996839454+1011280376+1026374808+1039640132+1051770288+1063133061
395+1070473445+1061648927+1049977236+1046187026+1049204151+1052995502
387+1050251872+1040655979+1039739619+1055479705+1071027025+1073741823
378+1066483057+1056235617+1053907489+1063133061
##END=
