##TITLE=X8527
##JCAMP-DX=4.24
##DATA TYPE=INFRARED SPECTRUM
##DATE=31/10/2018
##SAMPLING PROCEDURE=Diamant-ATR
##ORIGIN=ComPlat
##XUNITS=1/CM
##YUNITS=TRANSMITTANCE
##RESOLUTION=4
##FIRSTX=3997.453
##LASTX=373.96442
##DELTAX=-1.4165319
##MAXY=0.92746711
##MINY=0.41086566
##XFACTOR=1
##YFACTOR=8.6377106e-010
##NPOINTS=2559
##FIRSTY=0.84072095
##XYDATA=(X++(Y..Y))
3997+973314568+972999559+972685655+972477052+972307852+971992636+971480963
3988+971016697+970866058+970952867+970981435+970841493+970658353+970534144
3978+970511648+970694167+971078456+971382976+971401814+971408025+971824471
3968+972590635+973194016+973259088+972859203+972354016+972091935+972169427
3958+972387484+972484436+972416397+972314062+972221319+972121400+972153832
3948+972420537+972657570+972642182+972700077+973232797+973911600+973999996
3938+973275028+972131130+971171958+970913948+971519813+972566069+973373429
3928+973631853+973449197+973110106+972950221+973156270+973633579+974144424
3918+974519881+974787759+975050047+975225389+975073371+974441974+973422492
3908+972319928+971523746+971343229+971757467+972380859+972988035+973713556
3898+974417201+974540168+973878271+973014257+972902676+973715833+974207149
3888+973476385+972207104+971583367+971805632+972277352+973009565+974103159
3878+974745251+974404297+973590450+972827392+972153763+971834408+972475534
3869+973730738+974528782+974740559+974868081+974885056+974313831+973038754
3859+971273948+969300815+967755099+968078458+971218951+974640295+975978235
3849+975789782+974980766+974062722+973393372+973048691+972735339+972354844
3839+972392659+973200226+974213429+974782445+975022859+975315717+975604986
3829+975537430+975053635+974331497+973453061+972760871+973090577+974338190
3819+974829852+974304447+974326390+975509552+976612186+976645998+975682479
3809+974366068+973678018+973858535+973785252+973052900+972878662+973863228
3799+974723032+974981456+975531703+976506953+977054923+976895590+976571404
3789+976483215+976473416+976252876+975773359+975134716+974531612+974367724
3779+974922112+975745205+976098166+975872726+975425366+975173221+975512244
3769+976443261+977375865+977955440+978318614+978344698+977760914+976922433
3759+976668287+977170851+977506078+976927332+975640662+974569426+974715234
3750+975630380+975829253+975513693+976127700+977707366+977958821+976075602
3740+973457615+971560733+971371935+972963746+974915211+975829322+975913647
3730+975818695+975635349+975285976+974964757+974880294+974928598+975015752
3720+975262721+975678753+975992243+975941870+975646321+975644043+976369563
3710+977390288+977829367+977295267+975988793+974736695+974639467+975865136
3700+977186653+977698465+977642018+977374485+976940512+976466447+976375981
3690+977198936+978851816+980199694+980444662+979832242+978844088+977725031
3680+976476797+975154659+974452256+975589529+977876153+978609953+977572392
3670+976933957+978043421+979532759+979893725+979290689+978506446+978037142
3660+977817636+977600477+977504974+977697636+977649885+976824445+975677442
3650+975370231+976629575+978518798+979787181+980328112+980403742+980273805
3640+980213426+980264145+980087216+979383570+978304951+977217913+976359006
3631+976118937+977114336+978806135+979608734+979346238+978734370+978242984
3621+978208136+978830356+979535174+979436428+978583662+977661892+977078315
3611+976860811+977226400+978438476+979967630+980835162+980821361+980505456
3601+980429481+980469849+980133380+979363904+978642386+978304261+978119396
3591+977826745+977670448+978132093+979167101+980036359+980189343+979630401
3581+978777084+978346354+978851126+980096669+981439026+982358796+982623914
3571+982225340+981441096+980908722+981221729+982013218+982295035+981783707
3561+980990907+980623662+980947710+981495541+981644593+981447790+981530251
3551+982095748+982635092+982801188+982793942+982842177+982936783+983124201
3541+983525397+984102142+984697863+985127489+985097196+984366638+983168157
3531+982224374+982172689+982919463+983668789+983779198+983382142+983034563
3521+983088801+983577358+984406730+985398541+986284429+986822531+986896298
3512+986581151+986147247+985824027+985554769+985236379+985042337+985153987
3502+985348237+985306903+985149916+985201049+985435597+985490111+985212987
3492+984930341+985048754+985553320+986038978+986222256+986221083+986309409
3482+986598403+986941289+987037275+986757667+986414021+986458805+986876355
3472+987236010+987350283+987386925+987402106+987316125+987296528+987653974
3462+988300415+988724451+988653652+988411306+988371145+988381496+988120242
3452+987731881+987623957+987918678+988525992+989370615+990220138+990725462
3442+990827107+990746785+990589798+990303013+989976757+989854065+990007119
3432+990213444+990258988+990215790+990257538+990357044+990399206+990428464
3422+990560816+990777699+990986371+991205255+991511776+991835272+992013098
3412+992108463+992357089+992650223+992527670+991870327+991116929+990701656
3403+990740091+991203047+991949545+992691557+993185703+993358492+993265887
3393+993076537+992950602+992885944+992864691+992992419+993266370+993481114
3383+993563851+993652453+993710556+993456203+992816318+992157457+991935329
3373+992286704+992996284+993707244+994143011+994311177+994517502+995008681
3363+995618617+995955845+995913476+995783953+995837432+995976892+995921343
3353+995595362+995148140+994711061+994434213+994619630+995405115+996394511
3343+997002791+997131762+997174614+997412889+997695534+997701330+997342572
3333+996869473+996610566+996669979+996926678+997238099+997482377+997494315
3323+997191382+996725735+996346828+996216823+996423700+996915638+997339260
3313+997272049+996722630+996109313+995723850+995529117+995490819+995731854
3303+996258019+996822412+997214085+997470853+997671727+997761572+997719755
3293+997659513+997638052+997600928+997580157+997716511+998041250+998422572
3284+998744343+998977304+999066597+998909955+998533808+998175120+998038834
3274+998052152+998019582+997901376+997789726+997736868+997729622+997723343
3264+997668139+997618110+997752739+998135373+998534843+998632486+998334659
3254+997798075+997258731+996915155+996824275+996802883+996580204+996187702
3244+996035408+996421078+997125620+997693947+997933118+997925390+997755568
3234+997503975+997343055+997352716+997374591+997268392+997138800+997123550
3224+997158743+997075385+996751888+996207093+995697352+995512349+995562585
3214+995516972+995428439+995725023+996465034+997088496+997079939+996565023
3204+996118697+996104620+996304045+996250083+995834948+995377444+995185334
3194+995335765+995761182+996279617+996665149+996853740+996946966+997003136
3184+997007483+996974154+996898593+996702205+996375465+996074948+995932521
3174+995826046+995511797+995037939+994842102+995245989+996013119+996635408
3165+996866506+996760169+996423148+995992142+995682861+995618134+995677202
3155+995614960+995309336+994902482+994754811+995178778+996090198+996995891
3145+997476856+997581882+997532475+997197662+996255396+994836444+993635616
3135+993283966+993789705+994591613+995088105+995119572+994928773+994722723
3125+994479342+994173787+993886312+993586485+993108693+992490821+992073892
3115+992094179+992335352+992366129+992018619+991470373+990958562+990628165
3105+990587590+990851535+991203599+991316974+991044680+990468211+989708810
3095+988813606+987718425+986162359+983783200+980567284+977175958+974557902
3085+973170554+972752935+972814971+973072774+973434637+973870128+974378489
3075+974939846+975459938+975789989+975773152+975345251+974681077+974098466
3065+973710519+973306908+972651704+971744977+970753304+969861965+969240366
3055+969040389+969347393+970102792+971089290+972026932+972685724+972893981
3046+972522389+971491383+969759837+967334030+964322853+960898956+957232091
3036+953614773+950610427+948882814+948832578+950381744+953027263+956164582
3026+959469514+962882094+966164738+968740493+970179043+970654144+970726944
3016+970821067+971049129+971403125+971876087+972360641+972636385+972579249
3006+972265897+971808048+971207634+970445817+969688762+969359193+969841884
2996+971009658+972278180+973322848+974432244+975936901+977674658+979224582
2986+980344950+981012298+981322753+981505409+981811378+982232309+982429940
2976+982054207+981049906+979520407+977417890+974589783+970997789+966626313
2966+961285177+954758257+947039825+938211514+928228057+917086832+905191242
2956+893445877+883008780+874879629+869464658+866395930+864882371+864312527
2946+864463303+865227052+866435677+867968005+869746337+871516318+872852120
2936+873503667+873574742+873269325+872664426+871872730+871235191+871124162
2927+871594915+872346450+872958457+873090602+872554294+871396180+869948453
2917+868661507+867787074+867238000+866706867+865851203+864492837+862802487
2907+861257531+860390343+860653874+862373482+865555792+869838389+874850854
2897+880476774+886672263+893251006+899923596+906414220+912575482+918425324
2887+923906748+928714957+932625341+935806892+938497747+940604060+941895836
2877+942376802+942267567+941821242+941267269+940801070+940549546+940536849
2867+940642979+940649396+940417539+939989293+939457195+938799990+937901681
2857+936686017+935192746+933592931+932186330+931261040+930801259+930418349
2847+929764387+928935774+928256487+927722456+926880317+925153257+921953005
2837+916387533+907286376+894197067+878828241+865359266+858598004+861042787
2827+871343461+885547824+899784206+911938013+921518687+928801697+934304650
2817+938604705+942166889+945206841+947756995+949856477+951615418+953131944
2808+954473197+955778429+957240165+958883246+960462015+961715700+962671422
2798+963557241+964467556+965285612+965899758+966318205+966615480+966922828
2788+967390476+968024220+968655617+969157215+969548267+969867209+970114316
2778+970334236+970615501+970982884+971366277+971691912+971985736+972344908
2768+972788404+973207955+973522618+973800709+974153877+974563009+974905136
2758+975132508+975316131+975488575+975580076+975572278+975592359+975800133
2748+976253842+976833416+977248137+977256487+976954658+976689264+976660696
2738+976786079+976934233+977116544+977391599+977696187+977872081+977847999
2728+977719304+977654508+977790517+978146446+978563375+978821937+978881834
2718+978881765+978915991+978943662+978920615+978907435+979025640+979328642
2708+979752334+980204869+980655266+981119394+981606433+982037991+982238796
2698+982156473+982014529+982027019+982123626+982192976+982314840+982504604
2689+982568433+982451194+982411171+982666835+983097565+983429687+983555828
2679+983556311+983524017+983525811+983644224+983876219+984084545+984205925
2669+984358634+984628306+984949594+985248455+985471273+985507776+985316494
2659+985056621+984923924+984947731+985042613+985140048+985215264+985279300
2649+985375839+985537311+985731077+985858185+985822509+985635091+985439047
2639+985370456+985424004+985527305+985679254+985886477+986069064+986200657
2629+986390559+986643187+986724199+986494757+986193481+986147937+986351295
2619+986519323+986463705+986236195+985981359+985807190+985763303+985796218
2609+985762267+985637437+985651790+986046224+986724061+987315435+987602152
2599+987736436+987965947+988288132+988569466+988890202+989434169+990076055
2589+990488223+990647418+990802955+990929373+990702691+990102277+989566176
2580+989365440+989214043+988751846+988139978+987905291+988314285+989139241
2570+990050385+991034053+992218596+993419699+994197387+994362792+994117203
2560+993754788+993517962+993588486+993948210+994381562+994697191+994792970
2550+994612729+994259354+993954144+993744023+993506646+993251603+993089648
2540+992988693+992878009+992824599+992835778+992709981+992288291+991660482
2530+991077803+990848498+991189246+991939539+992610890+992931971+993105174
2520+993407416+993891970+994559319+995391590+996116006+996319640+995918237
2510+995291602+994957686+995212453+995909129+996450612+996268783+995450796
2500+994617835+994145426+993870234+993567370+993293765+993191913+993260021
2490+993398308+993546531+993713868+993848428+993803506+993594696+993508854
2480+993709521+993992856+994165024+994315041+994552281+994849210+995198445
2470+995586185+995859997+995892291+995765805+995652222+995675615+995933211
2461+996407208+996809991+996772452+996288795+995757110+995461354+995260066
2451+994962792+994738663+994869911+995324379+995882148+996511820+997280468
2441+998036488+998558098+998928587+999381950+999862295+1000120167+1000158258
2431+1000221674+1000416752+1000633497+1000794624+1000973830+1001256337
2422+1001573968+1001774842+1001827769+1001812312+1001753381+1001691484
2414+1001812312+1002223099+1002719315+1003012173+1003039016+1002962075
2405+1003082627+1003703190+1004750965+1005636922+1005821234+1005402511
2397+1004880625+1004518417+1004202512+1003749769+1003131138+1002496636
2388+1002060868+1001852473+1001585492+1000878120+999533555+997574292+995147450
2378+992422230+989463979+986288156+983130825+980462051+978580005+977278154
2368+975875832+973610945+970417663+967331339+965678045+965872639+967164139
2359+968360413+968889337+969330487+970770486+973605286+977033324+979646135
2349+980341983+978788884+975678477+972677926+971343022+971971107+973869093
2339+976047309+977705572+978493197+978342075+977449218+976535590+976463825
2329+977347090+978524525+979389021+979798222+979936301+980212805+981131677
2319+982891792+985171169+987498782+989657815+991529717+992860412+993577928
2309+994098227+994922976+996151199+997626529+999232140+1000792416+1001993105
2299+1002663007+1003004099+1003399085+1004050217+1004847917+1005554391
2291+1006060268+1006418819+1006672068+1006756461+1006612654+1006300130
2282+1006014035+1006033149+1006529917+1007321475+1007972608+1008269606
2274+1008341992+1008211089+1007668433+1006877841+1006675242+1007843361
2265+1010188708+1012551099+1013736607+1013419253+1012202278+1010964326
2257+1010249915+1010143302+1010478943+1011105027+1011925567+1012664267
2248+1012801381+1012053365+1010800921+1009713124+1009087248+1008901969
2240+1009281359+1010286350+1011394573+1011934676+1011998299+1012251341
2231+1013001012+1014048924+1015090626+1015733892+1015664266+1015142794
2223+1014837860+1015140793+1016039309+1017295064+1018305369+1018271142
2214+1017028291+1015472432+1014739183+1014944059+1015137895+1014697849
2206+1014212398+1014607866+1016004185+1017710889+1018795374+1018659020
2197+1017595237+1016577204+1016264956+1016589763+1017184104+1017741390
2189+1018188336+1018744655+1019610049+1020667553+1021594085+1021865413
2180+1020839514+1018592223+1016427256+1015743829+1016532558+1017588405
2172+1018057571+1018134029+1018294259+1018475673+1018238365+1017457641
2163+1016643104+1016562506+1017518227+1018934696+1019867369+1020005310
2155+1019868956+1020142424+1020746909+1020712751+1019637996+1018812349
2146+1019774488+1022199881+1024215866+1024371542+1022737500+1020626633
2138+1019556018+1020036570+1021288806+1022198294+1022253843+1021570485
2129+1020525126+1019520066+1018852648+1018620998+1018676478+1018755006
2121+1018776536+1018955604+1019593488+1020821365+1022385436+1023628287
2112+1024036729+1023822399+1023542169+1023319213+1022972600+1022607563
2104+1022467759+1022445125+1022231623+1021813383+1021495200+1021475396
2095+1021580215+1021527978+1021378168+1021415706+1021539985+1021194131
2087+1020203493+1019295938+1019323057+1020197076+1021073027+1021410324
2078+1021342768+1021082826+1020527334+1019574304+1018504932+1017806462
2070+1017592132+1017379458+1016679055+1015791856+1015656330+1016703207
2061+1018246162+1019317674+1019784011+1020170509+1020591164+1020589577
2053+1020098743+1019797260+1020225437+1021049220+1021583458+1021692486
2044+1021500514+1020743803+1019493568+1019015570+1020585713+1023832888
2036+1027204893+1029354610+1029439003+1027446687+1024913646+1023954475
2027+1025251978+1027706905+1029624972+1030020855+1029515254+1029619935
2019+1030552884+1030808617+1029512908+1027766940+1026912104+1026885813
2010+1026972139+1027239602+1028228998+1029385317+1029303132+1027900465
2002+1026766572+1027103731+1028587066+1030277002+1031508744+1031830584
1993+1030903845+1028944444+1027123122+1026786515+1027986928+1029478267
1985+1030473390+1031414759+1032456253+1032544580+1030981544+1028999648
1976+1028615979+1030222005+1032355920+1033569306+1033709180+1033595735
1968+1034003073+1034921531+1035745452+1036233250+1036603807+1036588281
1959+1035590743+1034010732+1032921969+1032484407+1032053608+1031473482
1951+1031087122+1030947663+1030811930+1030515346+1030041832+1029464328
1942+1028762270+1027811172+1026773128+1026036153+1025622881+1025242801
1934+1024949460+1025114865+1025742536+1026333496+1026430586+1026024284
1925+1025478660+1025125078+1024916199+1024590288+1024063296+1023354130
1917+1022360594+1021155212+1020300238+1020483999+1021803653+1023517948
1908+1024774670+1025468447+1026017728+1026572185+1026912035+1026997946
1900+1027112702+1027401006+1027741960+1028145985+1028794219+1029597163
1891+1030142649+1030155001+1029866007+1029843236+1030435921+1031523028
1883+1032764568+1033978852+1035092043+1035908097+1036329305+1036586556
1874+1036902048+1037151915+1037025498+1036305981+1035087764+1033792469
1866+1032599370+1031078842+1028685605+1025437119+1022002388+1019121493
1857+1017179412+1016346865+1016740401+1018273833+1020608622+1023368276
1849+1026165192+1028550769+1030283833+1031561602+1032773401+1034072216
1840+1035379932+1036564750+1037536481+1038292777+1038814939+1039084749
1832+1039350074+1040040953+1041150832+1042241251+1043188209+1044100457
1823+1044835362+1045250842+1045560054+1046003343+1046431589+1046504113
1815+1046165781+1045611808+1044969853+1044310854+1043826369+1043665518
1806+1043669727+1043510877+1043075869+1042629681+1042507197+1042636444
1798+1042653419+1042408520+1042030855+1041760700+1041915064+1042625955
1789+1043584023+1044432096+1045037271+1045345172+1045288933+1044918927
1781+1044440100+1044020411+1043658893+1043330912+1043193315+1043582159
1772+1044639318+1045924608+1046991082+1047866689+1048599661+1049074279
1764+1049262042+1049275360+1049215325+1049127827+1049045849+1048902801
1755+1048438051+1047347494+1045470209+1042851671+1039739815+1036288868
1747+1032325627+1027616233+1022196086+1016317331+1010250605+1004564651
1738+1000139420+997444286+996774591+998703078+1002708895+1007360739+1012233813
1728+1017035881+1021186126+1024642249+1027707802+1030259337+1031996955
1720+1033083579+1034144947+1035740070+1037633433+1039329786+1040811879
1711+1042159963+1043318215+1044254891+1045054867+1045773073+1046350094
1703+1046843894+1047551542+1048566677+1049393082+1049967964+1050892357
1694+1052088906+1052860522+1053006537+1052763501+1052339257+1051765962
1686+1050921339+1049708781+1048617948+1048225239+1048286792+1048276165
1677+1047889046+1047194303+1046506252+1045992371+1045639893+1045654591
1669+1046336638+1047405803+1048412519+1049449253+1050859580+1052591954
1660+1054191217+1055397979+1056187536+1056693758+1057494010+1059295320
1652+1060989052+1061407292+1061171501+1061220840+1062237700+1063819781
1643+1065158825+1065998756+1066261804+1065898422+1065043518+1064044116
1635+1063303070+1062932581+1062825969+1062966877+1063416515+1064040252
1626+1064399907+1064253064+1063901345+1063694812+1063436526+1062536768
1618+1060109788+1055428272+1049119546+1041880079+1032804867+1020044505
1609+1001796716+977735727+950104067+922596202+898136294+877652877+860134679
1599+843804543+827533614+811254404+795737148+782456349+773298677+770095803
1589+774004531+784422237+798657929+813932010+830071209+848928451+870648786
1579+893026946+915168972+938020163+959073148+974028633+984407835+994407853
1570+1005754782+1016164484+1023631048+1029048503+1033306880+1036243255
1561+1037933743+1039493398+1042245944+1045595729+1049026113+1052737072
1553+1056497507+1060092261+1063463231+1066291890+1068253844+1069307277
1544+1069507736+1069160503+1069135109+1070314683+1072035464+1073109874
1536+1073459937+1073579385+1073741823+1073496303+1072377660+1070181503
1527+1066601723+1061669649+1055039428+1043844448+1024549989+997100295+959860773
1517+908374311+848460596+796189822+760934750+742717875+739491539+750537883
1507+774477147+795941955+798615422+784937360+758017557+717551147+665081155
1497+607911154+558958492+526477012+508826290+503283728+510438699+528814285
1487+551204211+572157278+591174094+609085828+625625533+639165791+648872951
1477+656266852+664079753+675016102+690204271+705196881+712830230+711750506
1468+704194926+692616070+681392315+675484508+675187165+678269901+685532899
1458+701939562+727416261+752218158+773255894+792503498+808439546+815781624
1448+810340568+793274010+768206994+737966181+708700755+690984513+693422533
1438+719028341+760714692+799517595+825284874+842781611+857337832+869528832
1428+877828081+881600316+881139983+877535223+873011177+870189350+871182610
1418+876107507+882714749+889834355+898024161+907551218+917575043+926416396
1408+932339245+933821269+928993600+916601863+897781194+875293108+853533233
1398+839354540+838346167+850562700+870529821+890733975+907391954+921250533
1388+933912148+945335467+954398188+960909651+965574054+968980700+971545552
1378+973705482+975795441+978048183+980715162+983934942+987772387+992413673
1368+997780824+1003201247+1008152228+1012926901+1018001056+1023087287
1360+1027465732+1030984305+1034036195+1036946280+1039632581+1041739446
1351+1042909980+1042863126+1041266899+1037449396+1030433506+1019839353
1343+1006820015+993943655+984046524+977741041+971309968+959079980+938266304
1333+911865764+888130273+875428358+875268266+880216901+878572715+860794644
1323+823483840+770674066+713288493+666294473+642038406+643728618+666258935
1313+701526290+741920521+782081996+819376240+852433567+879623457+899174132
1303+909794713+910341855+899394189+876594614+845505865+814586110+793353849
1293+786278751+790282292+797464002+799498825+790702740+769747189+740254184
1283+709416062+684739133+670816587+668355863+675543715+689463846+706497766
1273+723066452+737144537+748614295+757323227+761215462+757621123+746775722
1264+733375545+724105946+723689362+732872221+749147705+768830180+788777013
1254+807180478+823557261+838019911+850365966+859802903+865313239+865920277
1244+860642902+848767048+830781134+809244698+788579590+773646670+768028133
1234+773028453+787610205+808891805+832869436+855152508+871511971+878172209
1224+872031235+851047323+814818243+765202580+706531716+644861889+586563309
1214+537245540+501239623+480886901+475665006+482435204+497197336+516808115
1204+539328254+563489852+588360962+613281479+637680041+660983837+682897386
1194+703566151+723045268+740165030+751397342+751055283+734345343+702181701
1184+663241547+629958090+610753821+604856020+604789844+604848153+606754558
1174+616205503+635133958+659413004+683450531+704616686+723158160+739921166
1164+755150117+768697759+780383366+789845834+796386625+799449970+799496410
1154+798391017+798699056+802137582+808456659+815971250+823228521+829961629
1145+836578187+843203163+849251878+853366379+853322078+846319160+830455912
1135+806963526+781056787+759866343+748953732+750308303+762583627+782178949
1125+804445942+825333523+842816666+856828022+868009063+876815982+883475462
1115+888072653+890363624+889668052+885288296+877469875+868307441+861635679
1105+861318600+868739275+881681328+895977951+908412264+918091132+925674107
1095+932080959+937865729+943230741+948337259+953462547+958727985+963851893
1085+968255525+971150843+971780998+970424356+969215248+971038985+977208873
1075+986603785+997006586+1006721130+1014974421+1021553993+1026484410+1029789550
1065+1031276058+1030504650+1026809010+1019058146+1005343995+982864466+948057858
1055+897599296+830811358+751898043+669582361+594678728+537773844+506782737
1045+503836632+524213160+559352856+601215516+644009814+682900767+712256866
1035+726084530+721326005+701328590+675147349+651953686+635473188+623830571
1026+614480857+608609693+610369738+622435425+643152425+667576105+690164662
1016+707095143+718092907+726580815+736769287+750092386+764878807+778940192
1006+791451860+802504689+811907468+819103324+824254351+828830979+834495612
996+841553043+849060182+856201938+862846788+868984451+874450210+879258971
986+883665295+887817541+891670167+895195778+898407760+901236143+903625860
976+905666066+907399683+908614242+909027031+908620108+907767894+907227308
966+907932885+910393264+914161704+918083887+920984104+922045955+921138192
956+919331362+918577274+920068820+923138652+926292394+928900443+931373518
946+934194034+937384418+940629937+943489579+945617767+946998422+947962078
936+948912003+949973578+950920536+951586850+952194233+952813623+952600949
926+950377327+946326657+942513570+941211995+943025589+946866001+951219397
916+955044421+957965892+960181440+962161543+964293319+966742242+969455386
907+972298674+975355878+978910333+982958174+987022853+990519482+992932109
897+993480631+990756791+983158703+970849083+957735139+949653118+948395086
887+947847392+937972963+914021002+882430034+857406975+850508807+862338082
877+883215243+900740824+907317566+903353497+895602977+892016366+896674420
867+908730930+925146080+943312995+961444441+978162248+992726404+1005195496
857+1015842092+1024708218+1031804500+1037086084+1039829798+1038044221
849+1027727193+1001710391+950759961+870305485+769511675+672562072+606979722
839+587025643+605859976+642208987+674976493+694336713+702252569+704576525
829+704303609+702621540+702795019+707648978+712498660+705957317+682479008
819+652114606+632775777+632263966+641746583+648044476+648571399+651751087
809+665584479+689430724+716382959+740429733+759977303+776290671+790839646
799+804369553+817211410+829539317+841385982+852735120+863562510+873684805
789+882826123+891068581+899016041+907289757+915985095+924710175+933056761
779+940986142+948760468+956557152+964266199+971651613+978598706+985152193
769+991238654+996308392+999373670+999344481+994897927+983294092+958822522
759+914105257+846757066+765823281+688478522+629396112+595787571+590516751
749+612762767+654461540+701967854+743540140+773960781+794091790+808406561
739+820487154+828475948+827066035+815817714+803403688+801313454+814123775
730+837260924+862767018+884423454+897359572+895600838+871825945+820950247
720+747238402+668485731+608898410+585087220+597552861+633184356+675824773
710+715329596+748281553+773955261+791004016+796324727+787555070+768561336
700+750780712+745058736+750488406+752504322+734198224+692640015+645505086
690+619118486+627092168+661252543+703173581+740179245+769186729+791505615
680+808919822+822969131+834723052+844606452+852498501+857843363+860337416
670+861231585+864279266+872101482+880955118+887642406+892945451+898211717
660+903706941+909101211+914377690+919656859+924575891+928125584+928235371
650+921518549+906189953+887110308+874791165+876268358+888300232+900944459
640+906739993+905895301+904305009+907581787+916468338+927672979+938232698
630+947420802+955138751+959927708+957664685+943011995+916324670+889019956
620+876457363+883463524+899756052+909987789+905040190+884116726+852784389
611+821594410+801424897+796945083+805153659+819479609+834383616+847466646
601+859073794+870386359+881670770+891819149+898760929+900536086+897273178
591+892461035+891100254+896017905+906221972+918248533+928965860+937557345
581+944999412+952157246+958734609+963817804+967253915+970218997+974031393
571+978852507+983842406+988035228+990907360+992619446+994083943+996562262
561+1000689874+1005672114+1009805936+1012161151+1013453824+1014986359
552+1017175271+1019462999+1021278455+1022539593+1022894970+1020473096
544+1011624222+991884680+958162626+912973987+867534239+836760291+827422032
534+831560685+833410161+823182563+804380663+789290826+788673851+803666046
524+825913649+846913156+864405546+879675763+892980506+901849254+901991405
514+888559002+857381374+809271886+755636466+716305812+706587955+725402898
504+759099351+794312813+823499642+844154054+857436716+865515217+869017642
494+867072939+859359406+847890407+836452735+828091520+824073075+824751395
484+829365769+835131701+838791527+839440244+838465822+837077370+834948837
475+831361743+826958249+823536215+822076549+822576836+825656674+832365078
465+842741864+855375395+867912249+878462307+886990239+894358470+900177604
455+903420156+904268574+903930242+903705285+904443778+906403662+909317059
445+912650353+915605291+916378080+912352872+902157224+887270676+872146197
435+862521912+862241061+871744518+888356057+907024088+922909347+933977289
425+940908649+945959411+950973118+954699396+953602835+948548070+944440884
415+941001323+935796403+930077119+927377499+927702238+925985597+917468430
405+903431059+890637367+885544029+890868604+906184916+926155625+941116009
395+949437822+956675841+963561519+967137089+967700930+969272247+973946310
385+978312265+977374278+972237260+968499113+968944748+972499962+977082456
375+982032332+987899219
##END=
