##TITLE=X8408
##JCAMP-DX=4.24
##DATA TYPE=INFRARED SPECTRUM
##DATE=31/10/2018
##SAMPLING PROCEDURE=Diamant-ATR
##ORIGIN=ComPlat
##XUNITS=1/CM
##YUNITS=TRANSMITTANCE
##RESOLUTION=4
##FIRSTX=3997.453
##LASTX=373.96442
##DELTAX=-1.4165319
##MAXY=0.92772609
##MINY=0.43606284
##XFACTOR=1
##YFACTOR=8.6401225e-010
##NPOINTS=2559
##FIRSTY=0.92772609
##XYDATA=(X++(Y..Y))
3997+1073741823+1073089079+1072457513+1072268905+1072420467+1072395840
3989+1072035871+1071737231+1071755237+1071780830+1071443007+1070879806
3980+1070505006+1070376278+1070188567+1069862816+1069758440+1070180979
3972+1070983630+1071785383+1072297397+1072379766+1072039183+1071442455
3963+1070825790+1070410012+1070376761+1070752182+1071285512+1071628717
3955+1071722468+1071835881+1072095475+1072241311+1072047461+1071691632
3946+1071418793+1071251709+1071288409+1071679973+1072136108+1072144179
3938+1071715501+1071331318+1071288961+1071445628+1071532274+1071511579
3929+1071531998+1071561317+1071369951+1070914920+1070501625+1070382004
3921+1070434157+1070418842+1070291080+1070220301+1070363033+1070654981
3912+1070911953+1071011224+1070912505+1070658223+1070428362+1070436158
3904+1070654429+1070815580+1070852763+1070930993+1070963762+1070602828
3895+1069704286+1068588578+1067992471+1068442259+1069336178+1069726224
3887+1069623573+1069621572+1069779826+1069602394+1069178614+1069123770
3878+1069378190+1069245668+1068598995+1067938248+1067580832+1067436169
3870+1067637676+1068410042+1069411441+1070253966+1070958450+1071418724
3861+1071178929+1070142830+1068763664+1067458520+1066377649+1065909856
3853+1066810260+1068400315+1069099901+1068740968+1067872435+1067012113
3844+1066550597+1066637312+1067003972+1067188027+1067122490+1067358629
3836+1068286696+1069412545+1070007755+1069958154+1069696560+1069472770
3827+1069152054+1068659564+1068109471+1067657475+1067631951+1068186666
3819+1068605617+1068375687+1068152035+1068761318+1069862540+1070535566
3810+1070338198+1069413166+1068461506+1068188046+1068262758+1067914724
3802+1067202996+1066712714+1066461674+1066252164+1066374476+1067007835
3793+1067820765+1068594028+1069419996+1070095229+1070006790+1068986833
3785+1067859397+1067538130+1067845255+1068064216+1068147827+1068550567
3776+1069184271+1069512989+1069287957+1068660185+1068067872+1068082015
3768+1068792224+1069583837+1069915521+1069769685+1069339903+1068838652
3759+1068681847+1069161644+1069758785+1069634749+1068555258+1067112211
3751+1066548182+1067436100+1068606238+1069086449+1069097556+1069221040
3742+1069373568+1069004977+1067852498+1066014646+1064173689+1063520944
3734+1064394374+1065746774+1066789219+1067389051+1067471076+1067198857
3725+1067194580+1067823938+1068547186+1068618656+1067929004+1066904426
3717+1065987258+1065356727+1065015454+1065075472+1065749809+1066768385
3708+1067456727+1067608702+1067466729+1067292885+1067227142+1067293230
3700+1067423406+1067530817+1067577107+1067549030+1067340002+1066714369
3691+1065647365+1064879345+1065415917+1066675254+1067138219+1066455948
3683+1065258905+1064293310+1063948726+1064118500+1064520136+1065082508
3674+1065587278+1065496010+1064857546+1064497715+1065083267+1065928068
3666+1066118814+1065737529+1065325684+1065148666+1065032494+1064843541
3657+1064873619+1065341964+1065589348+1064729232+1062742645+1060633195
3649+1060079170+1061495174+1063329991+1064611197+1065417297+1065994019
3640+1066352332+1066295142+1065716075+1064816568+1064015504+1063571166
3632+1063284461+1062868545+1062724157+1063541709+1064647277+1065018283
3623+1064663350+1064117948+1063946035+1064418588+1064983859+1064695636
3615+1063493695+1062183722+1061395903+1061030830+1060987231+1061599204
3606+1062802525+1063838969+1064172516+1063910162+1063512942+1063379040
3598+1063550332+1063818273+1064008329+1064102978+1064191970+1064352569
3589+1064578774+1064815602+1064965784+1064871067+1064469776+1063911335
3581+1063444163+1063244725+1063375936+1063785436+1064286825+1064718470
3572+1065098789+1065420608+1065447306+1065039875+1064692600+1065083405
3564+1065929586+1066385445+1066045896+1065208684+1064509512+1064236673
3555+1064154855+1064016194+1063924925+1064035579+1064164306+1064054964
3547+1063821654+1063812203+1064140368+1064656314+1065225447+1065726009
3538+1066016025+1066038446+1065790924+1065289052+1064751238+1064568357
3530+1064882587+1065384529+1065640880+1065451928+1064912665+1064417899
3521+1064472052+1065189575+1066107156+1066622618+1066566326+1066295556
3513+1066252371+1066606200+1067282123+1068009786+1068322637+1067927417
3504+1067106761+1066416557+1065984361+1065575482+1065299124+1065537263
3496+1066210566+1066715473+1066728650+1066578950+1066653524+1066854756
3488+1066851237+1066601302+1066329014+1066125851+1065862946+1065416055
3479+1064793320+1064137747+1063726867+1063747218+1063950036+1063857388
3471+1063444025+1063229203+1063570338+1064237293+1064806082+1065114932
3462+1065191713+1065127901+1065217928+1065797616+1066679256+1067119041
3454+1066664355+1065701243+1064893625+1064493507+1064454185+1064751721
3445+1065259733+1065619840+1065511532+1064925980+1064103047+1063251002
3437+1062435451+1061736831+1061304428+1061098022+1060807523+1060231904
3428+1059527697+1058904202+1058283743+1057411072+1056159392+1054647428
3420+1053125738+1051817214+1050795947+1049897130+1048821433+1047511253
3411+1046264678+1045274248+1044341283+1043246063+1042082133+1041130611
3403+1040666474+1040771747+1041159654+1041446774+1041585918+1041686292
3394+1041666011+1041517967+1041520795+1041796256+1042104554+1042295093
3386+1042507845+1042837460+1043136583+1043181975+1042863468+1042266119
3377+1041663665+1041368406+1041520106+1041977068+1042412921+1042576900
3369+1042493634+1042359457+1042254943+1042061921+1041682498+1041183937
3360+1040661507+1040137628+1039665006+1039295449+1038869737+1038121516
3352+1037043612+1035884235+1034815989+1033859982+1033013043+1032210599
3343+1031293018+1030169859+1028923974+1027717342+1026691798+1025880179
3335+1025132027+1024251767+1023250713+1022280979+1021319246+1020139450
3326+1018645975+1017025634+1015491940+1014050135+1012597569+1011119339
3318+1009688641+1008365423+1007167759+1006023076+1004657915+1002700234
3309+1000119748+997479796+995537430+994579906+994222076+993766010+992747986
3299+991230986+989616648+988211819+987037887+986000063+985100349+984413664
3289+983858189+983112038+981930862+980485815+979159216+978069032+977045627
3279+976008079+975097949+974393396+973650556+972513807+971035646+969709048
3269+968842309+968223437+967560275+966868002+966279001+965852599+965685377
3259+965863775+966275896+966739344+967314962+968279384+969807008+971806701
3250+974033358+976294785+978623403+981264320+984370341+987743543+991059970
3240+994212418+997159150+999631190+1001415717+1002838412+1004561818+1006873948
3230+1009372479+1011362997+1012499816+1013031421+1013481692+1014195627
3221+1015157566+1016079907+1016669943+1016945266+1017248528+1017882991
3213+1018783395+1019551552+1019804248+1019554864+1019252636+1019351148
3204+1019875648+1020470444+1020821651+1020981906+1021232945+1021647343
3196+1022010209+1022256213+1022626253+1023249609+1023979963+1024751294
3187+1025696125+1026819629+1027891807+1028723156+1029327403+1029814651
3179+1030376403+1031381320+1033094446+1035121113+1036559676+1036991114
3170+1036909779+1036939926+1037147987+1037345149+1037520925+1037756857
3162+1038093508+1038574891+1039187831+1039746065+1039983376+1039784835
3153+1039307659+1038841315+1038582411+1038618421+1039005984+1039661488
3145+1040306644+1040743738+1041007540+1041104259+1040887988+1040357211
3136+1039800150+1039454875+1039214115+1038830346+1038313435+1037909385
3128+1037709739+1037493469+1036998978+1036171216+1035129668+1034087774
3119+1033287814+1032838302+1032664940+1032677771+1032794358+1032811742
3111+1032568153+1032237711+1032170587+1032471918+1032939504+1033287400
3102+1033258978+1032704469+1031715487+1030592259+1029601967+1028731503
3094+1027620141+1025836235+1023377026+1020803784+1018729999+1017258600
3085+1016037757+1014689152+1013018107+1011036832+1009037552+1007430457
3077+1006276117+1005219943+1003985510+1002553156+1000868728+998918911+997054084
3067+995655051+994583769+993426807+992020116+990376734+988511770+986722414
3057+985654306+985731156+986669226+987746303+988483969+988967974+989602989
3047+990772023+992709630+995398906+998498373+1001576178+1004383696+1006745083
3037+1008426544+1009379446+1009888700+1010287094+1010700940+1011106094
3029+1011440331+1011678677+1011913091+1012285270+1012778519+1013220787
3020+1013572132+1014091803+1015068436+1016444842+1017885474+1019205450
3012+1020495486+1021812151+1022998501+1023833782+1024194716+1024146219
3003+1023953058+1023816811+1023606749+1023093908+1022326854+1021486468
2995+1020563575+1019475737+1018288973+1017060610+1015650539+1013858493
2986+1011614313+1008920828+1005696497+1001737605+996800837+990673304+983187302
2976+974252527+963899333+952206433+939192937+924827249+909149173+892387467
2966+874956184+857290211+839698329+822439442+805859858+790397294+776606120
2956+765341209+757843824+755398964+758615500+766843859+778252192+790524780
2946+801671656+810551795+816992592+821390235+824008111+824669410+823187248
2936+819956847+816000782+812449665+810038954+809085500+809787983+812328595
2927+816672360+822470485+829224065+836448266+843661981+850357889+856154910
2917+861048079+865413091+869641995+873825091+877855936+881685135+885320070
2907+888703069+891763903+894574319+897374456+900430392+903860025+907610305
2897+911600310+915821970+920221751+924511431+928240049+931151322+933344590
2887+934883113+935424307+934531009+932101051+928071379+922012142+913560475
2877+903120290+891874074+881385944+873289554+868810301+868190739+870678231
2867+875184320+880963060+887788661+895631666+904196056+912794042+920649464
2857+927280110+932684533+937271956+941515899+945568060+949285019+952619935
2847+955780385+958918483+961853626+964283170+966241748+968239372+970922440
2837+974586625+978915972+983154395+986640321+989222600+991140960+992630296
2827+993783947+994694215+995513492+996358224+997251177+998145855+998965131
2817+999672029+1000344159+1001110385+1001978158+1002805368+1003480326
2809+1004048149+1004646670+1005381646+1006245694+1007121125+1007881487
2800+1008498980+1009022238+1009515211+1010048747+1010677830+1011368999
2792+1012002083+1012498988+1012920699+1013392286+1013931549+1014407206
2783+1014696188+1014836988+1014983790+1015241384+1015569204+1015850460
2775+1016031962+1016153170+1016247957+1016320461+1016435943+1016690294
2766+1017026117+1017227556+1017185475+1017030739+1016936850+1016943541
2758+1017074062+1017435548+1018034553+1018650528+1019045265+1019199862
2749+1019268917+1019403371+1019605637+1019679659+1019407234+1018843826
2741+1018294699+1017941698+1017694176+1017460935+1017347798+1017454175
2732+1017645128+1017705490+1017622569+1017541994+1017491565+1017326137
2724+1016988796+1016710783+1016828335+1017385672+1018016547+1018308082
2715+1018208466+1017998887+1017936593+1018029310+1018137687+1018229645
2707+1018437085+1018839687+1019326451+1019728777+1019969193+1020068326
2698+1020124825+1020220922+1020257416+1020042870+1019619917+1019279196
2690+1019198138+1019273815+1019346181+1019406682+1019527338+1019674554
2681+1019711117+1019608811+1019540722+1019676624+1019994925+1020356066
2673+1020643806+1020815925+1020929062+1021084212+1021263575+1021336355
2664+1021289307+1021268335+1021329042+1021355257+1021312486+1021352636
2656+1021559800+1021796698+1021893140+1021826224+1021660796+1021477155
2647+1021381541+1021420725+1021482053+1021420518+1021290617+1021310899
2639+1021584290+1021983236+1022324371+1022517945+1022529811+1022370660
2630+1022179017+1022148733+1022305262+1022476967+1022538296+1022569064
2622+1022714762+1022995810+1023317836+1023579638+1023691533+1023606266
2614+1023420418+1023316388+1023315629+1023228017+1022911303+1022477657
2605+1022203369+1022259455+1022524982+1022698757+1022602453+1022307538
2597+1022010347+1021918251+1022175913+1022736492+1023346328+1023725267
2588+1023712781+1023303625+1022670059+1022114102+1021895899+1022091198
2580+1022555197+1022981323+1023127573+1023061623+1023034580+1023051206
2571+1022858183+1022492903+1022486694+1023214702+1024345933+1025219915
2563+1025503792+1025283451+1024839044+1024520674+1024586418+1025008197
2554+1025525316+1025877833+1025969516+1025866382+1025646869+1025310838
2546+1024963632+1024913342+1025298490+1025798017+1026033466+1026078444
2537+1026236629+1026525128+1026736225+1026818249+1026822181+1026667860
2529+1026350525+1026181440+1026409921+1026763750+1026728015+1026192685
2520+1025605201+1025535387+1026168678+1027152899+1027883184+1027946789
2512+1027347991+1026442276+1025730893+1025608444+1026097484+1026735328
2503+1026903584+1026421442+1025649835+1024930933+1024278327+1023669112
2495+1023180968+1022831486+1022674129+1022893642+1023471813+1024086408
2486+1024555857+1024969979+1025283106+1025245923+1024820004+1024329307
2478+1024104137+1024117797+1024082959+1023879450+1023688911+1023631653
2469+1023552112+1023350743+1023244780+1023456222+1023829298+1024001969
2461+1023865239+1023671389+1023726992+1024100619+1024545854+1024634294
2452+1024157670+1023468640+1023128953+1023193386+1023217324+1023014092
2444+1022957040+1023386201+1024060814+1024440168+1024322961+1023966304
2435+1023672010+1023511756+1023425247+1023348880+1023218911+1022993327
2427+1022699861+1022453098+1022409223+1022613146+1022897919+1023028096
2418+1022897091+1022550989+1022177500+1022066019+1022351689+1022755050
2410+1022767398+1022169290+1021311382+1020824825+1021021021+1021622232
2401+1022111480+1022230757+1022072020+1021832294+1021624923+1021433832
2393+1021115945+1020521908+1019728570+1019068030+1018799744+1018834444
2384+1018857830+1018583129+1017822697+1016575570+1015159566+1013995499
2376+1013105305+1012067688+1010643682+1009225539+1008403641+1008169917
2367+1007870311+1007066419+1006124210+1005732163+1006059777+1006544610
2359+1006416020+1005489609+1004454958+1004303121+1005458358+1007336361
2350+1008783615+1008996161+1008022011+1006714039+1005996241+1005759205
2342+1005299966+1004869357+1005454150+1007184592+1008900477+1009435808
2333+1008818936+1007927915+1007281448+1006719765+1006215754+1006192023
2325+1006839455+1007785735+1008705109+1009748659+1011084363+1012568802
2316+1014023162+1015240901+1015805826+1015571895+1015207994+1015610596
2308+1016860413+1018230818+1019096659+1019400473+1019282714+1018755386
2299+1017945147+1017313236+1017304199+1017881128+1018604928+1019122667
2291+1019455731+1019805972+1020185326+1020410702+1020451611+1020487484
2282+1020568956+1020563506+1020481482+1020525288+1020799576+1021208731
2274+1021525100+1021387267+1020504454+1019135154+1018115335+1018106505
2265+1018959033+1020022450+1020767015+1020791918+1019750301+1017866227
2257+1016173590+1015664957+1016344675+1017338002+1017727497+1017268189
2248+1016482784+1015977877+1015716765+1015336239+1015008694+1015385219
2240+1016666977+1018174870+1018983109+1018847758+1018397832+1018376447
2231+1018798916+1019062856+1018839204+1018489929+1018481857+1018766493
2223+1019130876+1019803489+1020972730+1021935773+1021637547+1019974919
2214+1017869125+1016346468+1016012232+1016765696+1017568898+1017264256
2206+1015979326+1015082647+1015664888+1017523781+1019540170+1020725209
2197+1020874288+1020273490+1019249670+1018475235+1019004494+1021060549
2189+1023332116+1024361524+1024100688+1023404207+1022678751+1021730195
2180+1020440504+1019018567+1017855603+1017292127+1017187613+1016926433
2172+1016375580+1016345503+1017391397+1018766217+1019385503+1019210900
2163+1018758560+1017990402+1016863724+1016294867+1017084755+1018414251
2155+1018845758+1018072012+1016803914+1015790856+1015642674+1016884903
2146+1019326934+1021792421+1023002157+1022466896+1020642633+1018704682
2138+1017741225+1017626777+1017290195+1016395586+1015830385+1016258097
2129+1017082410+1017199824+1016320599+1015206684+1014696464+1014834022
2121+1015092374+1015156600+1015177848+1015345966+1015465795+1015078646
2112+1014053033+1012936979+1012476981+1012792316+1013275010+1013384974
2104+1013276804+1013450165+1014010537+1014609542+1014994138+1015258630
2095+1015589072+1016059970+1016651041+1017191545+1017311512+1016719889
2087+1015651505+1014842369+1014807600+1015274635+1015647641+1015829419
2078+1016096946+1016391309+1016391861+1016153791+1016029961+1016046449
2070+1015923033+1015594660+1015224965+1014938605+1014963784+1015677926
2061+1017063921+1018451297+1019043333+1018376171+1016411936+1013829932
2053+1012021813+1012083555+1013736733+1015459724+1015880538+1015090235
2044+1014242054+1014051998+1014270545+1014528346+1014992276+1016014922
2036+1017518607+1018721997+1018603203+1017216863+1016072525+1016417731
2027+1017654993+1018045039+1016442083+1013222236+1010162850+1009254651
2019+1011036832+1014131332+1016528660+1017240042+1016801016+1016507412
2010+1017006732+1017565587+1017080754+1015597903+1014229361+1013871876
2002+1014514755+1015610182+1016782321+1017995369+1018987524+1019053750
1993+1017798414+1015880400+1014493784+1014163824+1014629410+1015659990
1985+1017320411+1019359013+1020787572+1020591859+1018851346+1016760177
1976+1015379355+1014827744+1014861754+1015400051+1016128473+1016442152
1968+1016136958+1015497183+1014665489+1013802407+1013417880+1013642015
1959+1013927892+1014173896+1014974684+1016314597+1017234248+1017070337
1951+1016164898+1015249662+1014674596+1014446114+1014803530+1016095981
1942+1017780685+1018540840+1017903066+1016533834+1015110931+1013900850
1934+1013044114+1012597914+1012510853+1012792454+1013455201+1014300485
1925+1015007728+1015352520+1015240970+1014700396+1013991842+1013634564
1917+1013843040+1014012538+1013511701+1012675730+1012390956+1012870408
1908+1013377592+1013288669+1012757409+1012153576+1011520837+1010979505
1900+1011050284+1011843553+1012521546+1012409927+1011995391+1011975799
1891+1012165234+1011938064+1011094504+1010045160+1009364132+1009259342
1883+1009427599+1009496309+1009448570+1009528525+1009920710+1010461421
1874+1010722464+1010624504+1010660445+1011302635+1012435590+1013453063
1866+1013869599+1013714036+1013418363+1013379455+1013646154+1014051722
1857+1014388028+1014507995+1014484677+1014424798+1014232810+1013940586
1849+1013876360+1014207768+1014773452+1015340171+1015665854+1015632947
1840+1015361281+1015012902+1014787939+1014882795+1015107689+1015018007
1832+1014605541+1014364642+1014595538+1015095961+1015532642+1015642536
1823+1015406950+1015099687+1014992345+1015251731+1015843561+1016398829
1815+1016598543+1016437737+1015868948+1014843680+1013763982+1013102890
1806+1012850609+1012765549+1012647859+1012409858+1012269058+1012490986
1798+1012907246+1013210646+1013281495+1013143799+1013177533+1013802890
1789+1014668939+1015308645+1015784992+1016175866+1016277620+1016043068
1781+1015629843+1015133283+1014567736+1013745632+1012416136+1010764614
1772+1009164969+1007371543+1004944896+1001701525+997310436+991175660+982017370
1762+968299942+950667565+930713538+906614907+875968621+840377012+801161092
1752+755036926+699793379+642787381+596816778+568419258+557796157+562144440
1742+577211715+599501156+625101954+648581298+668455164+689730685+716879319
1732+744189449+765548926+783635367+800872110+816796535+831432993+845348065
1723+857803880+867964258+876880200+886786572+898104947+908056160+915146529
1713+920245551+924076406+926988645+929445577+931900992+934382828+936391765
1703+937564042+938152837+938434575+937741888+935210727+930875172+925478958
1693+919401854+911986355+902646633+892244735+881773023+869734436+854114791
1683+838554543+827263969+818617624+810668312+802967280+795505216+788595728
1673+782541044+776507539+769002773+760174719+751997408+744859508+737402411
1663+728614921+718996495+709635319+700705028+691980314+683007942+671803118
1653+656519986+642784138+634348269+627447060+618818306+608479530+598853172
1643+590382465+582418597+575677055+572551822+578240501+600643562+637473467
1633+672759469+701159300+727035627+752981975+777386075+797739047+814448876
1623+829082989+840641711+847213512+848934572+846620165+841890769+838957558
1613+841038379+848196561+859133583+871639964+883140393+892225005+899112555
1604+904620250+909270036+913204991+916421319+918970071+921023229+922696758
1594+923987414+924960391+925687227+926093967+926134393+925865624+925274691
1584+924289711+922836592+920755219+917745434+913188296+906429473+898568808
1574+891696090+885418306+877789434+867793104+856518259+844747888+831692311
1564+817637334+803829949+788517981+765101759+734454989+711951933+697456896
1554+684787226+673501964+664534489+657622449+652365035+648698712+646675287
1544+646622168+649198239+656118488+668146383+679666266+687016229+692677210
1534+699507295+707585058+714431976+719120325+722846873+726548656+729909648
1524+732435979+734728518+737585154+740577555+743207642+746040271+749443482
1514+752992737+756339794+759492379+762714503+767533580+777188016+790136597
1504+799811452+806275222+812299000+819368052+828087108+838406154+848602129
1494+856391601+861645427+865698417+869176547+870145660+865149082+853395544
1485+837975406+824858638+820532327+826594599+836928822+842533855+835994408
1475+810257432+761082366+702024658+658418201+637065278+631387257+637214012
1465+651654964+667336972+677697202+682377618+683984299+685972886+690799552
1455+696771246+702130966+707122301+712334184+718472410+725989387+733752092
1445+739358230+740967463+738150218+732067526+724549238+716979762+711425502
1435+711049529+717185961+729650813+747777197+768286699+786074363+798570948
1425+805736580+807980070+806662233+804826036+806462312+813584345+823408486
1415+832628449+840554512+847410743+853291789+858158743+861999325+864921222
1405+866833993+867268742+865964357+863183674+859588475+856341103+854694686
1395+855117846+856756122+857723235+856513499+852677539+846552145+839387754
1385+832859276+827435261+821931843+814385892+803139124+787683252+768426671
1375+746070969+722320028+700167421+681600561+667205485+658372395+656601527
1366+661136935+669736370+680148891+690008146+697744843+703542210+708417511
1356+713317095+718805198+724887545+731250871+737668007+743903709+749414853
1346+753415689+755153581+754015521+749439205+741198359+730420764+719866407
1336+712399031+709748110+712404274+719732989+730390686+743005513+756466659
1326+769754374+781861120+792078204+800357958+807244750+813349655+818972349
1316+824219208+829146801+833598114+837241190+840047949+842539305+845360897
1306+848702228+852175391+855159513+857130440+857775802+857037792+855098116
1296+852270936+848930847+845489072+842255290+839229363+836105337+832508896
1286+828141607+822672683+815648472+806701624+795929893+784073704+772319890
1276+761886879+753643618+747970841+744855300+743967383+744636201+745979218
1266+747302298+748468022+749888096+752094196+755178209+758517747+760968125
1256+761356654+759161937+755206011+751556037+750178596+751514645+754451512
1247+757422941+759304945+759656359+758659651+756860913+754691169+752108062
1237+748670633+743949171+737885381+730856479+723535559+716768183+711505595
1227+708718289+709086260+712282238+716355302+718181979+714908737+705152892
1217+689249301+668929304+646853891+625970210+608738296+596534763+589491098
1207+586771537+587097702+589298145+592706323+597268842+603345256+611346170
1197+621390583+633157435+646022405+659293770+672290365+684311568+694688010
1187+702871598+708459109+711156526+710703841+706841115+699475975+688937347
1177+676002633+661759808+647552925+634857592+624897825+618295600+614911015
1167+613606837+612107084+607670878+598618551+585485847+570688410+557155519
1157+547265117+542563592+543767809+550738970+562600092+577996878+595277082
1147+612603713+628225772+641000302+650924472+659230096+667796142+678161753
1137+690726289+704597073+718155696+729912752+739026407+745298811+749006250
1128+750874525+752075776+753933842+757388172+762667109+769373917+776720913
1118+783786860+789903079+794912489+798979896+802263693+804912475+807226468
1108+809601997+812289825+815242352+818222680+821100633+823961201+826841775
1098+829460686+831320477+832000953+831277291+829104443+825750488+822049119
1088+819340734+818876804+821143197+825764975+831969082+838999709+846157615
1078+852763082+858361079+862918838+866658010+869746439+872262837+874315926
1068+876012771+877372690+878367260+879003585+879341754+879422537+879161287
1058+878400235+877131929+875587129+874127387+873186213+873156135+874104967
1048+875689504+877440779+878980613+879997396+880273960+879759257+878441212
1038+876176061+872746221+868069461+862312521+855905181+849583108+844350392
1028+841096604+840076785+840810933+842409405+843763322+843373413+839197974
1018+829414397+814698812+800213778+793640113+799332828+814561737+832211291
1009+846492403+855564115+860155470+861460131+860245704+856757571+850986971
999+843332229+835152435+828447629+824761713+824346625+826335902+829568373
989+833212345+836862043+840359489+843608379+846446872+848577984+849592904
979+849154430+847286775+844535205+841825025+840166329+840391568+842939423
969+847707727+854092094+861207367+868144518+874177954+878922251+882424388
959+885112768+887504715+889786423+891634693+892424443+891585023+888925893
949+884904154+880604472+877224095+875428875+875094707+875493860+875725928
939+875218123+874044535+872778507+871935292+871458393+870747010+869190620
929+866589231+863070676+858908758+854668609+851354666+850033931+851118113
919+854007932+857427976+860089520+861228408+860874027+859755697+858778788
909+858491186+859106195+860852366+863948107+868277937+873372820+878687423
899+883733602+888105237+891635452+894517613+897142594+899821040+902611519
890+905273201+907426595+908931177+910025845+910926663+911419705+911115684
880+910032192+908729946+907940747+908152534+909397867+911261037+913118896
870+914447840+914955369+914549663+913308745+911421499+909061837+906403535
860+903813184+901822114+900741933+900464333+900745934+901439794+902303911
850+902858557+902647943+901487739+899397950+896565114+893515938+891100811
840+890031047+890357005+891447327+892484461+892922659+892548342+891348332
830+889392997+886674608+883112246+879044770+875729377+874868641+877279421
820+882090703+887375643+891532042+894023260+894967470+894416755+892375946
810+889341050+886280768+883909102+882270067+881079163+880164894+879546090
800+879383835+879835417+880714711+881445616+881633327+881507359+881593384
790+882185421+883295266+884831098+886591066+888131797+888796407+888086266
781+886186533+884005200+882411557+881438580+880395927+878766757+876889513
771+875705232+875845826+876844672+876948427+873705125+865452344+853035507
761+839979308+830201319+824984951+821924876+816561155+805083008+786222407
751+761567337+734235269+706360973+677323092+644908214+608549482+571278481
741+538739049+516220402+505589920+504695208+510493436+522916241+544645931
731+576579770+614672876+652270456+684742040+711083470+732219433+749146291
721+762440905+772496976+779818448+785158576+789304558+792682520+795346134
711+797353761+798855377+799849532+800288628+800441431+800795122+801582458
701+802590203+803406927+803814427+803986754+804269458+804851354+805801772
691+807212257+809063218+811138796+813203198+815122730+816878145+818589891
681+820435885+822527123+824852292+827150901+828991927+830271960+831356694
671+832605132+834396143+837637169+842475493+846997587+850163280+852440710
662+854367417+855988723+857033859+857453983+857558014+857570914+857389757
652+856839112+855893937+854777055+854095958+854609558+856631810+859868006
642+863856080+868317949+873015473+877470857+881080129+883631296+885545309
632+887406479+889465225+891556739+893104230+893500692+892964465+892421477
622+892114904+891102674+888440578+884389727+880365091+877640631+876011323
612+874122213+871243088+868099815+865761332+864535108+864253852+864849339
602+866193390+867812834+869222077+870477965+872122382+874686449+878477430
592+883412956+888672439+893161557+896599607+899233418+900571538+899544959
582+895874565+890397776+884339988+879089818+876286025+876942770+880281066
572+884244374+887057411+887713191+885415271+879382111+869680351+858413853
562+849587386+846525240+848901114+853251433+856724527+859221746+861835690
552+864858859+867892375+870750529+873548734+876052507+877372276+876982575
543+875877835+875723445+876985886+878773448+880191384+880919875+880850613
533+880152338+879572926+880012987+881603525+883333622+883768440+882245508
523+879014761+874550478+869633440+865677721+863942105+864377544+865847978
513+867369807+868855004+870822412+873541490+876712495+880055689+883679586
503+887540036+890948076+893205432+894760995+897172051+901507331+906690378
493+910195068+910888514+910198655+909956997+910552139+911490622+912184413
483+911843209+909696231+905755964+900933437+896239569+891873522+887420483
473+883220968+880547558+879483865+878650860+877932511+879137349+883390949
463+889530210+895569095+900819335+906269012+912983408+920307846+926896342
453+932782148+938692858+944489535+949246525+952248860+953389679+953111390
443+952080120+950664392+948905528+946788006+943667430+937739405+927425809
433+913101857+896398858+879428538+865555133+858788170+861880393+875189701
424+895499489+917080203+935233699+946949157+951818319+953669486+955292655
414+956752534+958552858+961834241+965199924+964579534+958569622+951369979
404+948256578+950582851+956711970+964643415+971070001+971995516+969214971
394+968513936+971915906+976299890+977692783+975316151+970517562+963368004
384+952808128+940291192+930027680+925292144+925571468+925867073+920294669
374+911003513
##END=
