##TITLE=F. Mohr LL-27
##JCAMP-DX=4.24
##DATA TYPE=INFRARED SPECTRUM
##DATE=14/6/2017
##SAMPLING PROCEDURE=Diamant ATR
##ORIGIN=Angelika Moesle
##XUNITS=1/CM
##YUNITS=TRANSMITTANCE
##RESOLUTION=4
##FIRSTX=3997.4121
##LASTX=373.82813
##DELTAX=-1.4160156
##MAXY=0.96539903
##MINY=0.3072007
##XFACTOR=1
##YFACTOR=8.9909791e-010
##NPOINTS=2560
##FIRSTY=0.89929676
##XYDATA=(X++(Y..Y))
3997+1000221169+1000136843+1000050529+1000109795+1000097199+999733047+999159672
3988+998819518+998862079+999040476+999249368+999691415+1000341293+1000758016
3978+1000708826+1000498807+1000445574+1000463340+1000317560+999953010+999492865
3968+999125133+998961387+998942228+999002092+999207735+999499229+999561413
3958+999279266+998999374+999097422+999584814+1000204728+1000639549+1000673624
3948+1000418062+1000240129+1000273607+1000310268+1000239002+1000234494
3939+1000488996+1000974201+1001471802+1001674330+1001393310+1000823117
3931+1000459164+1000501990+1000527314+1000189348+999876043+1000222362
3922+1001135029+1001879111+1002257251+1002790187+1003679387+1004286505
3914+1004008270+1003041441+1001873543+1000726129+999672521+998871029+998554078
3904+998913390+999938823+1001199467+1002003412+1001999302+1001490629+1000981758
3894+1000637627+1000480378+1000750790+1001498386+1002038415+1001935660
3886+1001834694+1002450100+1003180459+1003027519+1002385861+1002251882
3877+1002551331+1002571749+1002186781+1001611218+1001032605+1000886096
3869+1001614135+1002690482+1003194116+1003238533+1003561185+1004360688
3860+1005089191+1005234507+1004620030+1003353287+1002144287+1002530050
3852+1004971520+1006527171+1005798734+1004258463+1002979125+1002095030
3843+1001466565+1001110700+1001066680+1001251309+1001650265+1002296829
3835+1002968120+1003361508+1003431315+1003246090+1002787735+1002175644
3826+1001848948+1002019389+1002215287+1002109283+1002307767+1003320405
3818+1004352335+1004890575+1005330965+1005585401+1005175042+1004274573
3809+1003389285+1002974749+1003427205+1004351672+1004504612+1003690458
3801+1003222489+1003900609+1004585822+1004487707+1004241823+1004328934
3792+1004367119+1004043539+1003632848+1003456109+1003487599+1003651543
3784+1003988183+1004332580+1004418497+1004379317+1004507794+1004621687
3775+1004389327+1003967036+1003716180+1003834978+1004337751+1004889580
3767+1004984845+1004733856+1004668557+1004770716+1004690633+1004709990
3758+1005480391+1006667051+1006976179+1005885049+1004039760+1002645667
3750+1002762543+1003809389+1004292870+1004463046+1005682786+1007969327
3741+1009202790+1008563187+1007062096+1005667936+1005087998+1005895324
3733+1007714162+1009000461+1008785205+1007460256+1005880143+1004639056
3724+1003979698+1003970218+1004625201+1005702277+1006603607+1006854596
3716+1006464192+1005739269+1005155750+1005333550+1006428592+1007505867
3707+1007714162+1007113009+1005952934+1004616582+1003906907+1004405039
3699+1005527659+1006346851+1006736460+1006900007+1006671758+1005730253
3690+1004345706+1003683232+1004600738+1006081411+1006799970+1006694430
3682+1006194177+1005577512+1004944273+1004382897+1004270993+1005018058
3673+1005776327+1005420594+1004949908+1006124568+1008505644+1009581394
3665+1008733429+1007251961+1006235213+1005856145+1005632933+1005301464
3656+1005290791+1005934769+1006534529+1006405190+1005978589+1006195370
3648+1007357832+1008612509+1009227318+1009248930+1009017631+1008833467
3639+1008684703+1008394867+1008089517+1008026472+1007989480+1007458533
3631+1006497537+1005988401+1006723467+1007970454+1008449493+1008330098
3622+1008121935+1007891697+1007717742+1007901840+1008316375+1008395596
3614+1008085739+1007721918+1007310896+1006659095+1006029304+1005962082
3605+1006439994+1006934082+1007211389+1007437716+1007731597+1007944533
3597+1007933528+1007931539+1008335666+1008939802+1008878083+1007828916
3588+1006721610+1006948667+1008468586+1009451590+1008969767+1007812940
3580+1007079266+1007161536+1007633747+1007927363+1007888581+1007577928
3571+1006965307+1006113630+1005435775+1005583014+1006767884+1008035090
3563+1008245175+1007403575+1006322323+1005787597+1006024796+1006707225
3554+1007396018+1007882614+1008176561+1008284289+1008195720+1008083485
3546+1008157999+1008276665+1008127106+1007786621+1007568382+1007605705
3537+1007933263+1008521223+1009032547+1009065893+1008724082+1008442134
3529+1008356748+1008279449+1008141094+1008032173+1007891299+1007571166
3520+1007185468+1007051157+1007246591+1007455682+1007333503+1006933950
3512+1006680044+1006938590+1007610080+1008097539+1007851324+1007000840
3503+1006311318+1006519812+1007552604+1008541310+1008835389+1008631005
3495+1008458111+1008395662+1008166352+1007801802+1007684197+1007967935
3486+1008341368+1008429671+1008224757+1007986762+1007823547+1007613793
3478+1007391775+1007454157+1007936180+1008577440+1009003776+1009057076
3469+1008872646+1008794685+1009099835+1009700988+1010242012+1010462903
3461+1010313145+1009891583+1009465446+1009374557+1009771723+1010476095
3452+1011066376+1011167407+1010821088+1010492868+1010536224+1010754463
3444+1010708455+1010245923+1009513708+1008746158+1008191610+1007997435
3435+1008119880+1008423638+1008759019+1008908246+1008704658+1008271759
3427+1007938765+1007914502+1008211498+1008763063+1009425073+1009951579
3418+1010117379+1009808583+1008961082+1007576735+1005860851+1004201583
3410+1002965336+1002335743+1002202294+1002011964+1000926071+998521262+995406646
3400+992861692+991773810+992007496+992708752+993077942+992968690+992926527
3390+993673526+995441185+997789577+1000089377+1002037819+1003622838+1004817585
3380+1005596472+1006115088+1006623694+1007274766+1008055045+1008686759
3372+1008678008+1007847876+1006748592+1006247610+1006757741+1008023091
3363+1009438464+1010435855+1010774219+1010619423+1010311421+1010084498
3355+1010004879+1010006602+1009963047+1009871827+1009897682+1010081183
3346+1010188380+1010032324+1009727505+1009430376+1009078091+1008600908
3338+1008180605+1008097672+1008424500+1008984617+1009552821+1009985455
3329+1010166835+1010000437+1009575096+1009195100+1009082002+1009195564
3321+1009464849+1009944154+1010591844+1011188489+1011602494+1011894783
3312+1012082859+1012006290+1011502788+1010635532+1009727041+1009165069
3304+1009163212+1009680437+1010476360+1011198499+1011532355+1011391149
3295+1010960107+1010542455+1010393095+1010662116+1011357604+1012218761
3287+1012712783+1012452381+1011692587+1011116494+1011067768+1011300923
3278+1011496954+1011626625+1011761599+1011838367+1011731700+1011460492
3270+1011244507+1011276991+1011487938+1011726861+1012084914+1012721268
3261+1013461505+1013916811+1013925430+1013606689+1013119297+1012629717
3253+1012391457+1012591730+1013119562+1013607153+1013738216+1013521104
3244+1013278667+1013354706+1013815647+1014424158+1014847975+1014875089
3236+1014484950+1013803714+1013066195+1012612547+1012745002+1013440358
3227+1014284344+1014840815+1015023057+1015022990+1014981689+1014858184
3219+1014577894+1014216062+1013967725+1013936103+1014039389+1014158519
3210+1014300255+1014557144+1014948343+1015349090+1015637335+1015884810
3202+1016264607+1016780042+1017252717+1017524721+1017479110+1017032356
3193+1016334415+1015772376+1015584963+1015674659+1015838206+1015942685
3185+1015918487+1015850801+1015987831+1016398852+1016739868+1016615898
3176+1016092376+1015614596+1015464109+1015531398+1015586554+1015532061
3168+1015362083+1015075031+1014723011+1014471558+1014497678+1014789901
3159+1015117061+1015252433+1015130784+1014757484+1014183578+1013668607
3151+1013596016+1014051918+1014706437+1015271526+1015816594+1016406609
3142+1016728797+1016470384+1015886600+1015547839+1015660671+1016026347
3134+1016437502+1016720046+1016661840+1016289865+1015969799+1015986306
3125+1016202954+1016201960+1015628253+1014512130+1013370153+1012819980
3117+1013028739+1013668939+1014310530+1014673290+1014621780+1014177479
3108+1013527468+1012871490+1012266559+1011704984+1011274870+1011119808
3100+1011263003+1011575181+1011887027+1012048254+1011928063+1011484093
3091+1010865837+1010388587+1010316858+1010588331+1010779920+1010451964
3083+1009563362+1008546680+1007992927+1008175235+1008778509+1009183299
3074+1009087173+1008672240+1008117825+1007267275+1005985020+1004533251
3066+1003293225+1002323479+1001465305+1000721024+1000252857+1000087786
3057+1000079764+1000146058+1000326908+1000565499+1000610446+1000238008
3049+999483053+998596837+997832801+997300926+996979135+996829775+996891760
3039+997261945+998017496+999168423+1000590823+1001992076+1003052247+1003684359
3029+1004084773+1004476835+1004851793+1004961045+1004508059+1003375363
3020+1001711521+999773354+997701606+995530151+993382430+991506314+990052889
3010+988918866+987850210+986614227+985051682+983101781+980856542+978495421
3001+976096910+973598428+970899275+967812568+963893475+958472165+950898691
2991+940816195+928532744+915382965+903475134+894649967+889449083+886858585
2981+884908420+881785052+876723054+869955979+861934027+852785479+842586173
2971+832086755+823126016+818068990+818442755+823921277+832585881+842058739
2961+850463471+856764302+860567380+861559931+859122970+852784285+843135218
2951+831985391+821397869+812620234+805795483+800341887+795472937+790620030
2941+785728738+781267362+777778252+775317756+773432028+771614649+769523410
2931+766850907+763433725+759548376+755762137+752425568+749531113+747149507
2921+745914056+746881813+750699144+756946542+764502978+772451609+780417873
2911+788230071+795665322+802579901+809041097+815191109+821070046+826667499
2901+832048636+837281738+842321064+847089248+851592256+855884782+860006070
2892+863931129+867469629+870272664+872007043+872416474+871174260+867846907
2882+862170763+854440637+845637678+837124357+830200032+825860040+824618755
2872+826226645+829637728+833543827+837070128+840021530+842617662+845179057
2862+848058397+851618575+855991183+860831362+865505806+869580557+873040233
2852+876100290+878990833+881882305+884726642+887012387+887772512+885980126
2842+881116479+873698928+865482272+858891605+855827703+856809846+861108338
2832+867425742+874437707+881119396+886974666+891989197+896293987+899912636
2822+902814185+905098405+907093451+909277502+912063500+915609292+919818685
2812+924445530+929131841+933445581+937111364+940237715+943168168+946040480
2802+948613477+950564968+951884480+952936365+954167839+955732837+957408149
2792+958901550+960163254+961340633+962568394+963918800+965386346+966831021
2782+968105587+969285484+970548249+971815058+972785600+973360367+973797707
2773+974404296+975244106+976193102+977131757+977987610+978677663+979164657
2763+979556586+980009638+980521891+980908649+980987008+980781763+980587853
2753+980719247+981099111+981297064+981125231+980919720+981046805+981421829
2743+981708153+981742957+981622368+981546594+981656112+981905244+982105253
2733+982155835+982150730+982145161+981927386+981189204+979909932+978435093
2723+977225695+976690704+977123735+978445833+980041128+981224340+981908360
2713+982519390+983331954+984230765+985062488+985855163+986662158+987437597
2703+988129572+988741331+989257694+989618134+989820993+989978772+990225252
2693+990617778+991124064+991641156+992042565+992280560+992451466+992716641
2683+993147750+993658676+994089454+994350651+994463284+994483968+994484432
2673+994601043+994944246+995402204+995662474+995553619+995274920+995165005
2664+995299382+995455902+995462531+995427992+995565685+995868913+996086091
2654+996060502+995979888+996147546+996595228+997105955+997530634+997867406
2644+998115412+998258275+998336700+998397160+998430970+998442771+998497662
2634+998615466+998664523+998443699+997882389+997114905+996362802+995799569
2624+995526041+995591871+995946940+996355377+996478087+996197597+995806530
2614+995716569+996052215+996660262+997375374+998086441+998682158+999127254
2604+999538873+1000093686+1000842541+1001590866+1002016273+1002047365
2596+1002074413+1002555441+1003450209+1004339275+1005070496+1005885380
2587+1006862419+1007699842+1008205001+1008550525+1008813579+1008658517
2579+1007779726+1006453651+1005366498+1004935191+1004967211+1005006258
2570+1004867107+1004744795+1004957266+1005709370+1006961594+1008369609
2562+1009439392+1009881970+1009816207+1009640064+1009734466+1010224112
2553+1010948174+1011678665+1012321848+1012843183+1013156554+1013255729
2545+1013290335+1013332431+1013289141+1013214760+1013376914+1013810211
2536+1014141548+1014042902+1013566979+1012950446+1012369248+1011943377
2528+1011788779+1011987992+1012510056+1013174586+1013740470+1014037599
2519+1014011413+1013777263+1013629759+1013750348+1013894470+1013675502
2511+1013175845+1012976831+1013490741+1014418258+1014999787+1014807270
2502+1014162563+1013691081+1013632212+1013760093+1013820420+1013812133
2494+1013874450+1014018241+1014029577+1013696915+1013119562+1012688254
2485+1012722926+1013139251+1013473372+1013296898+1012653848+1012001848
2477+1011697493+1011673494+1011628415+1011356544+1010831497+1010135676
2468+1009445293+1009040502+1009150749+1009709275+1010337873+1010650514
2460+1010564531+1010333564+1010294052+1010542986+1010909127+1011280770
2451+1011779830+1012483340+1013187182+1013639173+1013844750+1013971239
2443+1014084270+1014139028+1014157060+1014225343+1014319414+1014318817
2434+1014264257+1014392403+1014824241+1015401594+1015898268+1016211042
2426+1016327587+1016309621+1016295766+1016352646+1016329642+1016003476
2417+1015396954+1014864614+1014792089+1015201321+1015744731+1016118562
2409+1016329907+1016449501+1016329841+1015795313+1014997799+1014364958
2400+1014179534+1014281096+1014197168+1013606092+1012710595+1012117000
2392+1012284458+1013097022+1014005115+1014550912+1014683964+1014611637
2383+1014547531+1014659369+1015071451+1015785966+1016688689+1017668512
2375+1018630369+1019395798+1019773540+1019807482+1019841093+1020257286
2366+1021143170+1022184381+1022889681+1023002447+1022701606+1022348591
2358+1022123192+1022024613+1021991930+1021810219+1021211188+1020282279
2349+1019408858+1018813937+1018462049+1018279874+1018268736+1018409544
2341+1018604448+1018753676+1018798689+1018763951+1018790933+1019050539
2332+1019577376+1020171104+1020442577+1020055024+1018998963+1017669241
2324+1016733106+1016769634+1017731226+1018854575+1019418271+1019418735
2315+1019341304+1019531634+1019879146+1019963339+1019511480+1018745124
2307+1018174466+1018107576+1018459928+1018933266+1019233974+1019242261
2298+1019148919+1019302920+1019747420+1020054361+1019878748+1019534484
2290+1019651891+1020316420+1020991755+1021358493+1021796695+1022841221
2281+1024434991+1025888748+1026487647+1026143184+1025490985+1025247024
2273+1025526850+1026025446+1026620963+1027291857+1027685576+1027481921
2264+1027044448+1027046039+1027502141+1027706591+1027130564+1026105927
2256+1025519624+1025779496+1026221212+1025927530+1025051921+1024751610
2247+1025773795+1027601317+1029072576+1029556985+1029426585+1029480548
2239+1029995518+1030568562+1030910042+1031241511+1031671095+1031761785
2230+1031178068+1030364311+1030137387+1030734761+1031564030+1031919564
2222+1031689591+1031107266+1030192544+1029015364+1028091427+1027767648
2213+1027705796+1027681333+1028173035+1029376864+1030409192+1030302525
2205+1029252497+1028320273+1028323986+1029328669+1030920450+1032700970
2196+1034433890+1035855893+1036800912+1037701778+1039315834+1041535816
2188+1043120437+1043124481+1042135576+1041681331+1042677793+1044736416
2179+1046699442+1047580554+1047081096+1045512783+1043469806+1041587724
2171+1040388667+1040144971+1040819909+1042296538+1044653018+1047788716
2162+1050748272+1052243794+1052094501+1051173414+1049793044+1047758089
2154+1045659292+1044212960+1043103731+1041763071+1040457480+1039657181
2145+1039127692+1038394217+1037353935+1035993254+1034277172+1032631030
2137+1031863944+1032314012+1033407662+1034141402+1033937681+1033146000
2128+1032661392+1032957394+1033699487+1034367994+1034829134+1035201971
2120+1035600794+1036075790+1036532090+1036793686+1036819275+1036642801
2111+1036238541+1035708124+1035353585+1035344569+1035584552+1035973034
2103+1036488270+1037028830+1037442304+1037708408+1037897544+1037951905
2094+1037707016+1037172091+1036537195+1035937766+1035529595+1035627975
2086+1036388034+1037610956+1039071807+1040600940+1041811002+1042323983
2077+1042197693+1041740399+1041221384+1040947723+1041130230+1041633467
2069+1042220963+1042839285+1043486180+1044154754+1044957307+1046010185
2060+1047206988+1048161818+1048373560+1047678204+1046585351+1045904447
2052+1046143701+1047372656+1049176047+1050591951+1050891201+1050490256
2043+1050170720+1049721248+1048438462+1046734313+1046104124+1047245306
2035+1048934870+1049438306+1048833374+1048858831+1050432978+1052711829
2026+1054568387+1055658324+1056191128+1056794335+1058130620+1059788695
2018+1060433535+1059614674+1058479856+1058381012+1059525575+1060885527
2009+1061231912+1060575404+1059933746+1059338030+1057717941+1055083623
2001+1052904810+1052176241+1052393221+1052552856+1052496042+1052883596
1992+1053862822+1054373484+1053715783+1053202602+1054665375+1057786356
1984+1060253349+1060540865+1059401937+1058334076+1057843767+1057995779
1975+1059366470+1062037249+1064690859+1065916035+1065644628+1064788377
1967+1064062194+1063520508+1062992411+1062563424+1062536177+1063137926
1958+1064158652+1064766832+1064196373+1062796380+1061700145+1061409115
1950+1061534212+1061772074+1062208619+1062798899+1063164775+1062946536
1941+1062212597+1061463012+1061140493+1061396321+1062202321+1063203026
1933+1063745244+1063559157+1063120292+1063009979+1063279264+1063574868
1924+1063564328+1063217147+1062827870+1062616127+1062332986+1061482701
1916+1059955822+1058258899+1057011116+1056521735+1056773320+1057541533
1907+1058524737+1059365078+1059612155+1058927605+1057413188+1055625708
1899+1054293069+1054101414+1055368554+1057527479+1059397628+1060395350
1890+1060882013+1061320149+1061737402+1061974535+1061987794+1061797995
1882+1061311000+1060334095+1058922036+1057492874+1056398826+1055712818
1873+1055474624+1055694189+1056277973+1057270657+1058821137+1060686711
1865+1062386154+1063709379+1064601495+1065014041+1065032869+1064920567
1856+1064974331+1065351609+1066032513+1066952340+1068024974+1069075135
1848+1070032617+1071046912+1072130817+1072984681+1073466902+1073718156
1839+1073741823+1073536909+1073300638+1073179121+1073106927+1072958230
1831+1072609790+1072022028+1071314209+1070468764+1069202883+1067330149
1822+1065054547+1062922670+1061502855+1060918806+1060709649+1060435392
1814+1060161068+1060180956+1060667751+1061523605+1062451652+1063312279
1805+1064126234+1064794012+1065231485+1065541939+1065722457+1065568059
1797+1065057066+1064382593+1063718328+1063107166+1062352675+1061354423
1788+1060508978+1060152582+1060191430+1060350801+1060290274+1059609172
1780+1058198107+1056373569+1054392576+1052215686+1049574274+1045870571
1771+1040863994+1035604772+1030936161+1026616124+1022661763+1019458644
1763+1017119002+1015786563+1015739560+1016945578+1019264337+1022297744
1754+1025134059+1027457326+1029841518+1032396416+1034232556+1034672084
1746+1033667733+1031302501+1027809943+1022966383+1015564942+1004972315
1737+992097523+975732360+949085091+905815505+854929222+809046997+768554592
1728+733625632+707002096+687652982+671047438+653594128+633821728+610286622
1718+581511122+550141014+521541524+494637167+465191038+432394486+399061218
1708+369829086+349788494+341676582+342748586+349900829+365179800+388515461
1698+410669135+427569157+443081615+457126791+468389384+479248314+491541842
1688+503241742+512560599+523434345+542137824+564655518+582393758+596351991
1678+609824554+624922245+643171280+662233474+676739095+685632147+691670255
1668+696397602+700158849+704943739+713724290+727887835+744524537+758935424
1658+769756433+777881007+784959995+795396169+813670792+830157869+837092867
1648+840472858+845934210+853386233+858554766+860599466+861053712+860502478
1638+858944839+856373699+852765392+848685537+845204381+842832057+841996224
1628+843265685+846755193+852430077+861062396+872652082+883893262+891424374
1619+895824296+899471782+903051782+904720530+903518026+899966202+893886726
1609+883804428+867616801+843258923+808995685+764794141+715052951+669117956
1599+636856196+623496862+628395313+646572882+671211581+696793310+720865130
1589+742936468+762738435+780006056+794854283+807492141+817750714+825206516
1579+829828389+832148806+832259052+829131840+822718972+814375430+805283960
1569+797305961+793285042+794660108+800721552+808994227+816821672+825316365
1559+841124327+864494295+880566704+888511092+894712283+900759341+906184231
1549+910754130+914184372+916359075+917952049+919901486+922889150+927991189
1539+934985520+939840946+941313598+941731845+943004820+945204383+946879363
1529+947512800+947866942+948557856+949401843+950109529+951237917+953412354
1519+955843880+957538615+958743373+959814084+960563801+960921191+961109002
1509+961361780+962228970+964662749+967567479+968593642+968189050+967477718
1500+967002921+966996690+967373968+967525184+966910839+965624275+963991458
1490+962216507+960175850+957440235+953814029+949386264+944174508+938147736
1480+931307273+923376741+913753528+902005135+888004673+872197174+857006274
1470+844892535+834505220+821872002+802429149+774505789+743401188+715303873
1460+690342390+665626790+641948225+627729192+625938132+630210637+635628765
1450+639140615+638744443+635070240+631931359+633927732+643420346+658712675
1440+674706459+687533587+698130125+710316124+724959504+739644648+753462735
1430+766169539+775843002+780597132+780880803+778121389+773548175+768741541
1420+765903767+767553489+774521236+784239381+794406800+804733390+815012314
1410+824540992+833005985+841079911+850027390+860340721+870683686+879635011
1400+887751232+896269392+905027404+912935396+919537267+924436779+926730082
1391+925802366+920767946+909285125+888897386+860021318+825730303+790955012
1381+763645468+751705352+756309127+771363594+789133788+803816281+812908612
1371+818141118+823521128+832128785+844466332+859411282+876049244+893065345
1361+907709652+917970214+924109354+926942023+926729154+924007858+920480761
1351+918371159+918922458+921560688+924294579+924970776+922301588+915777479
1341+904823882+888738281+868116391+845763371+825575706+811500266+806952509
1331+813240280+828303631+847842677+867938127+886562650+903176745+917747268
1321+930318633+940964295+949708982+956497868+961272482+964020627+964823710
1311+963918468+961590361+957863455+952283238+944156211+933232247+920018760
1301+904749964+885205085+855568229+809281809+745823962+675640606+616584271
1291+583423368+579678164+598169768+627424572+656880048+678037592+684031085
1281+670996856+641754713+607804979+584685271+582459190+600210623+629647868
1272+662467624+693963094+722316899+747107278+768532251+786950998+802696578
1262+816151508+827733371+837794123+846640372+854582572+861903598+868807438
1252+875351435+881368064+886500599+890387936+892837692+893857623+893668155
1242+892774580+891839970+891118494+889868856+886698486+881172099+875314178
1232+872922561+876731540+886255974+898553016+910683395+921187719+929835285
1222+936808070+942287255+946479279+949676564+952109283+953774716+954495596
1212+953985465+951601870+945995599+934834702+914357068+879413921+826071186
1202+756932886+684462459+626671607+596486832+593775547+607489354+625525188
1192+642729829+660720317+682229152+706998715+732350338+755883786+776797766
1182+795264509+811484024+825502518+837468156+847685362+856431308+863896457
1172+870329743+876080998+881376483+886174300+890379716+894087463+897444384
1163+900363235+902485964+903358656+902690016+900703654+898302226+896645079
1153+896381495+897242984+898284327+898402794+896631489+891951277+882827854
1143+867430847+845604862+821577923+803789896+799992386+811584857+833092034
1133+856990364+878377085+895766156+909404521+919822596+927361199+932126068
1123+934027574+932924577+928741967+921356171+910421667+895423417+875783140
1113+850784200+819546348+781377145+736711941+688717197+644461623+613300672
1103+601874333+609052032+625289977+637386281+635149461+615487904+582450307
1093+544687020+511920598+491482310+486272112+494804095+512403648+532700234
1083+549833974+561241783+568884600+577230463+589636956+606473932+625984206
1073+645914253+664047671+677922108+685225832+685496311+681646893+679058915
1063+682301280+692411619+707038160+722597587+736234029+746543847+753278107
1054+756566281+756190262+751235196+740160944+721298029+693892889+659588682
1044+623479890+593410666+577076927+578294081+594448430+616417542+631768475
1034+631141866+614558597+591982829+576373019+575129347+587396689+607763479
1024+630954652+653671294+674203157+691756570+706119394+717308997+725155535
1014+729199060+728767554+722605012+708301786+682844027+644846525+597154477
1004+547521314+506077626+480806981+474182636+483231578+502275741+525819597
994+549989035+572663349+593124741+611622178+628754228+644835586+659778216
984+673489040+686132533+697922891+708843805+718731596+727581889+735645937
974+743208737+750381995+757108763+763266267+768800874+773858762+778689129
964+783356944+787739430+791879612+796094707+800613361+805312864+809932284
954+814377352+818683733+822775322+826377331+829043802+829891103+826876723
944+816383138+794532824+760700033+720994801+687666042+672707170+679946854
935+702921048+730543234+754632357+772732429+785952480+795918299+803563436
925+809410022+813930929+817384175+819584931+820110177+818742337+815839330
915+812609826+810936570+812364141+816952138+823194034+829007605+832699707
905+833170128+829551877+820961523+807052083+789418918+772508688+762166187
895+762103009+771407415+785496710+799126191+808180868+809190258+798856508
885+776405174+747463409+723710992+715665109+724893541+743918346+763052204
875+776016825+780201358+775318751+764288584+753981286+751832040+760385933
865+775953183+792728770+807181289+818644023+827591635+834561901+840099624
855+844751992+848895622+852680933+856101032+859089094+861647771+863915218
845+866066056+868200717+870343665+872445113+874403300+876182096+877852767
835+879508456+881243896+883111326+884973255+886577035+887825348+888799072
826+889646970+890631765+892008356+893707335+895435946+897087922+898745202
816+900341955+901613139+902368359+902658394+902650240+902460838+902218534
806+902163643+902547617+903523926+905166886+907439439+910099412+912684076
796+914607990+915328471+914325313+910659728+901890181+882277350+843477626
786+783193994+716833338+674040472+675329157+713814450+764346790+806568270
776+834865328+852218799+862884482+870295801+876595240+882113074+885438174
766+883561926+872914672+853307277+831437407+815951897+806088568+790551217
756+763367763+736269364+727652624+741136524+761091962+768535102+758016922
746+740509451+732592907+742658167+766341240+793361611+816276405+833100719
736+844951603+853234089+858393274+860303067+859545195+858083947+858333278
726+861479318+866877426+873009605+878720819+883654803+888026020+892087113
717+895730158+898689581+900963128+902804240+904508124+906295870+908134530
707+909753160+911102239+912560836+914462939+916617090+918443486+919407994
697+918758116+914420113+903571658+886732958+870909947+865489763+873598692
687+889269825+903878134+913332231+918568516+921897792+924601453+926884082
677+928690788+930290856+932111285+934168714+936173041+938141173+940328670
667+942200543+942531150+940590862+935188909+922958427+898144977+857520714
657+809013386+772232043+764184105+784806525+819373322+852760221+878343938
647+896152251+908276531+916846467+923387149+928496481+932311956+935241945
637+937915906+940666305+943516276+946523166+949695922+952588322+954246795
627+953107071+945516295+924272039+882812010+825714791+773268813+749306576
617+761761927+797196046+835388254+865178315+885518654+898867249+907520715
607+912815670+914571528+910748495+897247293+868289683+820226391+758937810
598+702405215+671013230+673677049+703688067+746046577+787452709+821257525
588+846421138+863370151+869602699+858967975+828515572+787726171+756268025
578+748283795+761778368+784584639+806638078+824701489+839074721+850383852
568+859185551+866237690+872294759+877675962+882245927+886005914+889377287
558+892717966+895938586+898661141+900596523+901949448+903421303+905561998
548+908220314+910654292+912091410+912466235+912534650+912853523+913078989
538+912581188+910821750+906782997+899415764+889422367+879811021+874260172
528+875077774+882109163+892490843+902143424+908776917+912836884+915807112
518+918415377+920304751+921366513+922531561+924520774+926808839+928457368
508+929183152+929141255+928612827+928300782+928864809+929675915+928815951
498+924801329+918011117+910964414+907163259+908513399+913728668+919725012
489+924179626+925971614+924127320+918048772+909194899+901621559+899620744
479+904303409+912549168+920199278+926161944+931807659+937189326+940582178
469+941462228+940888522+939478054+936512864+930609995+920556734+905709568
459+887235466+870537707+862851269+865622815+874812002+886218121+897084873
449+905995758+912885610+918750890+924573212+929949111+933625966+935827385
439+938321624+941839639+945146574+946898389+947384323+947751657+948530477
429+949364851+949830167+950424359+952265736+955272824+957469073+956802356
419+953111182+948842455+945710602+941694389+932942874+916204875+892118868
409+867145717+850872769+849711102+861452403+876881297+887390394+890349420
399+888637514+887586757+890037772+894445384+899952678+907066205+914661290
389+919542107+918841050+912451982+903876145+898525570+898680830+902447580
379+907852980+913515865+916148062+910766991+898629585
##END=
