##TITLE=LSH-R343B
##JCAMP-DX=4.24
##DATA TYPE=INFRARED SPECTRUM
##DATE=7/4/2021
##SAMPLING PROCEDURE=Diamant-ATR
##ORIGIN=Angelika Moesle
##XUNITS=1/CM
##YUNITS=TRANSMITTANCE
##RESOLUTION=4
##FIRSTX=3997.453
##LASTX=373.96442
##DELTAX=-1.4165319
##MAXY=0.95787382
##MINY=0.30421585
##XFACTOR=1
##YFACTOR=8.9208951e-010
##NPOINTS=2559
##FIRSTY=0.93784261
##XYDATA=(X++(Y..Y))
3997+1051287559+1051150121+1051174909+1051425531+1051594438+1051339808
3989+1050760792+1050361174+1050438010+1050759723+1050971659+1051062794
3980+1051267180+1051672946+1052125080+1052467505+1052689597+1052766634
3972+1052583028+1052170715+1051818000+1051762945+1051932788+1052093811
3963+1052104368+1052000070+1051971206+1052200915+1052578752+1052691134
3955+1052312562+1051834570+1051877398+1052470111+1052991332+1053059684
3946+1053023871+1053284782+1053660280+1053673109+1053153090+1052345635
3938+1051598247+1051175176+1051253350+1051872721+1052745989+1053227188
3929+1052905542+1052156082+1051702745+1051779448+1051947888+1051782388
3921+1051420319+1051236245+1051351968+1051634861+1051955638+1052276081
3912+1052589041+1052886767+1053117812+1053189371+1053107723+1053030886
3904+1053034094+1052943827+1052771178+1052957056+1053644512+1054235220
3895+1054187515+1053681728+1053273223+1053171932+1053091821+1052964406
3887+1053184026+1053912238+1054590541+1054764860+1054808423+1055069535
3878+1055137686+1054637578+1053824644+1052940085+1051899714+1051012216
3870+1051146313+1052369555+1053605559+1054282325+1054637578+1054685351
3861+1054146825+1053210417+1052357194+1051740161+1051385977+1051886084
3853+1053884844+1056059795+1056648298+1055713628+1054104731+1052586302
3844+1051656710+1051516399+1052050515+1052921177+1053744801+1054201345
3836+1054206290+1054039721+1054095979+1054454038+1054772009+1054785105
3827+1054637177+1054442813+1054016336+1053428968+1053298011+1053846226
3819+1054295287+1054312057+1054520920+1055171962+1055614408+1055403140
3810+1054785172+1054252258+1054124709+1054247047+1054266089+1054277915
3802+1054554928+1054824058+1054685083+1054459517+1054617801+1055096328
3793+1055547995+1055830487+1055945475+1055836433+1055525411+1055280335
3785+1055361649+1055621357+1055805765+1056139705+1056919699+1057647578
3776+1057559984+1056776582+1055970196+1055528284+1055517260+1055894094
3768+1056408233+1056675625+1056473177+1055792803+1054858601+1054160856
3759+1054127315+1054535018+1054770673+1054795394+1055091985+1055955029
3751+1057112927+1057857576+1057825104+1057379919+1057252035+1057848356
3742+1058433652+1058220046+1057488158+1056861236+1056608744+1056550348
3734+1056542597+1056759144+1057173862+1057414061+1057272013+1056955779
3725+1056843531+1057096290+1057564728+1057969691+1058084479+1057878890
3717+1057498849+1057100166+1056881014+1057147671+1057934480+1058627482
3708+1058660154+1058050069+1057017315+1055931110+1055464810+1056053915
3700+1057107448+1057643903+1057475330+1057032950+1056561105+1055999060
3691+1055549197+1055835164+1056995200+1058060092+1058268687+1057841073
3683+1057205733+1056528366+1055792068+1055018889+1054526332+1054877977
3674+1055952624+1056686316+1056679701+1056517475+1056829299+1057530251
3666+1058157641+1058427104+1058257997+1057771252+1057247158+1056998206
3657+1057295799+1058104457+1058838015+1058942112+1058438663+1057720606
3649+1057285175+1057395152+1057816419+1058106929+1058008644+1057590318
3640+1057109252+1056720124+1056382509+1056038347+1055713494+1055437015
3632+1055292495+1055573718+1056463622+1057209341+1056888697+1055939395
3623+1055300446+1055287818+1055544787+1055618751+1055414298+1055057842
3615+1054672055+1054388159+1054245109+1054061703+1053585448+1052781000
3606+1051979825+1051614015+1051756798+1052066551+1052118666+1051787800
3598+1051319095+1051099743+1051427669+1052209133+1052863382+1052897190
3589+1052460089+1052145191+1052242607+1052410579+1052367617+1052192162
3581+1051955171+1051628915+1051218940+1050742886+1050248591+1049932157
3572+1049910843+1049908037+1049548708+1048895327+1048389807+1048205800
3564+1048128228+1048085667+1048235599+1048666487+1049234545+1049647927
3555+1049665299+1049287128+1048787622+1048430431+1048177404+1047898519
3547+1047734222+1047892640+1048165110+1048146803+1047855157+1047672151
3538+1047874867+1048417001+1048982186+1049245503+1049228933+1049203810
3530+1049159980+1048794370+1048154152+1047705291+1047598923+1047459881
3521+1047016566+1046471626+1046167552+1046177107+1046305257+1046409622
3513+1046544654+1046690243+1046610400+1046206639+1045716554+1045363505
3504+1045193996+1045273439+1045543971+1045569628+1044985534+1044091421
3496+1043556035+1043565456+1043706635+1043699954+1043679976+1043624453
3488+1043148466+1042197159+1041372466+1041187790+1041474893+1041805024
3479+1042081235+1042406289+1042698803+1042732745+1042441300+1042005534
3471+1041664312+1041534157+1041617675+1041863887+1042197627+1042571388
3462+1042968534+1043290981+1043348709+1043059335+1042549272+1042023574
3454+1041636918+1041476830+1041560215+1041820191+1042072817+1042008808
3445+1041468946+1040767259+1040393698+1040324278+1040011719+1039190233
3437+1038295384+1037910131+1038088058+1038374760+1038329794+1037906189
3428+1037350625+1036864615+1036495063+1036275110+1036223128+1036167738
3420+1035793844+1034935743+1033751921+1032629235+1031933561+1031748885
3411+1031837214+1031880710+1031695767+1031266751+1030726955+1030278829
3403+1030055601+1030127828+1030583838+1031387084+1032209505+1032707274
3394+1032880725+1032889478+1032699925+1032237968+1031669710+1031212096
3386+1030870272+1030601477+1030490966+1030565264+1030719939+1030945907
3377+1031301026+1031562606+1031311316+1030517625+1029746584+1029612086
3369+1030172527+1030922789+1031268087+1031021741+1030568404+1030525843
3360+1031116818+1031894407+1032242311+1032084963+1031855922+1031792448
3352+1031645656+1031217441+1030831787+1030987332+1031653340+1032176432
3343+1031978193+1031194190+1030457224+1030150011+1030114332+1030074644
3335+1030034956+1030144532+1030413394+1030717801+1030937622+1030977176
3326+1030767378+1030352392+1029946760+1029814868+1030022127+1030322526
3318+1030419674+1030320522+1030293462+1030503193+1030853435+1031111006
3309+1031035572+1030529050+1029813732+1029304137+1029194762+1029332533
3301+1029537053+1029817407+1030158296+1030326735+1030105111+1029647631
3292+1029372288+1029463290+1029672887+1029720459+1029698611+1029874467
3284+1030229587+1030436579+1030235199+1029660593+1028979886+1028542985
3275+1028509310+1028610467+1028456727+1028127665+1028041474+1028234702
3267+1028304657+1028114770+1028016285+1028253143+1028600111+1028702004
3258+1028481782+1028138422+1027915328+1027890272+1027921742+1027831743
3250+1027669450+1027672724+1027874571+1027897154+1027377203+1026510884
3241+1025879018+1025762092+1025925855+1026066500+1026185497+1026486831
3233+1027094243+1027867422+1028359178+1028127264+1027287805+1026519704
3224+1026284650+1026324738+1026198793+1025963138+1025959196+1026211822
3216+1026416876+1026362221+1026143203+1026054807+1026326943+1026845425
3207+1027156180+1026881438+1026083204+1025118801+1024258629+1023589547
3199+1023158860+1022995766+1023001244+1022999574+1022957481+1023073404
3190+1023551730+1024269320+1024756732+1024642747+1024064867+1023519926
3182+1023371732+1023608589+1023970190+1024210456+1024267783+1024156002
3173+1023814713+1023326298+1023114027+1023468880+1024011883+1024108430
3165+1023662041+1023071533+1022610045+1022241963+1021895863+1021612836
3156+1021428094+1021273819+1021115735+1021127762+1021464173+1021844816
3148+1021768581+1021229454+1020762486+1020641017+1020496831+1019915811
3139+1019004459+1018153107+1017542822+1017081801+1016660935+1016280226
3131+1015951965+1015582413+1015060925+1014478569+1014087369+1013929820
3122+1013762449+1013498999+1013373588+1013493854+1013645524+1013704387
3114+1013868284+1014348080+1015131214+1016041831+1016787148+1017051333
3105+1016788551+1016318978+1015996397+1015892433+1015885752+1015926308
3097+1016025662+1016043100+1015735018+1015128742+1014609124+1014434003
3088+1014311332+1013693162+1012451546+1011019040+1009809628+1008772130
3080+1007709577+1006782190+1006343752+1006430010+1006683237+1006660921
3071+1006104221+1005129730+1004232476+1003899605+1004189848+1004757973
3063+1005163939+1005146901+1004822917+1004624277+1004851380+1005330441
3054+1005650149+1005605517+1005324227+1005127191+1005303381+1005851996
3046+1006443105+1006774773+1006918024+1007164369+1007566393+1007796169
3037+1007573542+1007111118+1006901855+1007106174+1007435770+1007665546
3029+1007937214+1008481620+1009318607+1010277932+1011143582+1011803711
3020+1012319587+1012714328+1012746399+1012187160+1011296120+1010672138
3012+1010606326+1010827215+1010858484+1010410425+1009437871+1008024207
3003+1006270389+1004214102+1001861090+999316054+996728523+993982107+990630417
2993+986337777+981176746+975275142+968432387+960355098+950991760+940335559
2983+928202086+914590072+899997620+884926842+869272170+852637060+834995121
2973+816530894+797105939+776510591+755148813+734042000+714255978+696621455
2963+681893436+670886525+664365482+662844447+666457249+674894402+687366825
2953+702654885+719270752+735604728+749997738+760915919+767342686+769075257
2944+766550332+760367104+751045191+739196817+725662040+711321479+696956998
2934+683443803+671897965+663425801+658742763+658020229+660933147+666778961
2924+674676920+683817431+693666377+704020509+714803391+725732797+736296927
2914+746123691+755211819+763689328+771494281+778446612+784551934+790054388
2904+795179004+800001618+804624524+809295870+814266946+819676059+825579000
2894+831909353+838379750+844539994+849940822+854221236+857098675+858267932
2884+857284687+853673489+847217390+838062448+826623647+813628065+800212886
2874+787701577+777148203+769031560+763183542+758946157+755674511+753350564
2864+752673331+754437371+758820545+765257134+772899661+781152873+789855213
2854+799049176+808686119+818643840+828919799+839573995+850463981+861203567
2844+871370751+880642286+888825075+895960679+902358582+908357468+914037448
2834+919244781+923856395+927901019+931467051+934678229+937739743+940787961
2825+943677628+946148433+948232649+950255864+952396538+954511556+956458668
2815+958308565+960110623+961688317+962868531+963769460+964683818+965751316
2805+966868122+967880498+968796059+969806163+971096821+972624872+974106287
2795+975261980+976051662+976636424+977168669+977712273+978345342+979149857
2785+980057066+980878085+981550173+982184912+982848248+983485860+984089330
2775+984763490+985601613+986596015+987668323+988717982+989667284+990515630
2765+991353018+992243256+993096011+993765628+994265735+994733304+995173947
2755+995431250+995413744+995215839+995033569+995017734+995148691+995262543
2745+995258601+995201007+995153635+995058357+994894929+994816956+994969427
2735+995231274+995341986+995295483+995372787+995725902+996198349+996657098
2725+997225557+998031876+998907148+999498992+999681329+999743668+1000052418
2715+1000599363+1001089715+1001392586+1001626304+1001875456+1002106634
2707+1002310953+1002503580+1002646563+1002725004+1002859635+1003205334
2698+1003724016+1004210561+1004597083+1005034252+1005592087+1006116716
2690+1006476780+1006687580+1006760876+1006700008+1006630988+1006702146
2681+1006898581+1007099626+1007243612+1007349245+1007449133+1007558509
2673+1007681982+1007809999+1007901669+1007931602+1007977370+1008139730
2664+1008354739+1008450084+1008385875+1008271020+1008199662+1008252045
2656+1008523847+1008988008+1009459386+1009804884+1010059982+1010324435
2647+1010668330+1011098549+1011543000+1011923643+1012263864+1012665954
2639+1013215304+1013919931+1014678411+1015319565+1015753325+1016057332
2630+1016384523+1016831246+1017344984+1017699970+1017656140+1017207479
2622+1016604210+1016154547+1016073701+1016411182+1016977770+1017407322
2614+1017426564+1017105720+1016818752+1016911824+1017377122+1017908833
2605+1018305311+1018687023+1019236774+1019865032+1020285764+1020364939
2597+1020259639+1020199038+1020261844+1020424938+1020686518+1020988386
2588+1021123018+1020921973+1020511597+1020229038+1020282623+1020601129
2580+1020983375+1021289453+1021464775+1021455287+1021210812+1020825425
2571+1020572398+1020679703+1021134777+1021791699+1022544900+1023291754
2563+1023872240+1024168363+1024169766+1023890013+1023345874+1022692895
2554+1022272297+1022390759+1023073404+1024102283+1025198912+1026074651
2546+1026516162+1026624269+1026763109+1027108742+1027512302+1027867823
2537+1028251406+1028696992+1029177323+1029672019+1029989054+1029816472
2529+1029235251+1028828417+1029038348+1029700816+1030359074+1030792834
2520+1031115215+1031492718+1031892537+1032117902+1032010531+1031588530
2512+1031056618+1030696621+1030632880+1030738180+1030879159+1031109602
2503+1031467261+1031789375+1031929418+1031963427+1032024896+1032079684
2495+1031979061+1031671514+1031324211+1031209958+1031410068+1031685812
2486+1031760644+1031647728+1031559866+1031600356+1031706725+1031816769
2478+1031924541+1031995231+1031980865+1031921868+1031887392+1031826724
2469+1031662828+1031509822+1031557528+1031760511+1031909641+1031960220
2461+1032027836+1032165474+1032399726+1032801149+1033265511+1033463683
2452+1033285421+1033058653+1033037405+1032975201+1032532287+1031835677
2444+1031286060+1031041452+1031051941+1031380937+1032091778+1032934043
2435+1033520342+1033782255+1033983568+1034334545+1034802849+1035236476
2427+1035462443+1035341843+1034912759+1034473920+1034394678+1034779397
2418+1035324070+1035580839+1035449080+1035274627+1035323068+1035411330
2410+1035348858+1035413468+1035939433+1036671320+1036984347+1036598559
2401+1035771795+1035000019+1034750800+1035252311+1036300165+1037357306
2393+1037983159+1038163024+1038211598+1038379370+1038587364+1038568656
2384+1038251019+1037913872+1037919218+1038334871+1038918898+1039491366
2376+1040171406+1041125051+1042256824+1043328865+1044168859+1044603822
2367+1044509614+1044089216+1043715589+1043314567+1042376823+1040821779
2359+1039419741+1039009165+1039544350+1040289534+1040749352+1040999239
2350+1041278457+1041699523+1042247604+1042762678+1042990382+1042876998
2342+1042667133+1042576800+1042630185+1042784192+1042984369+1043139312
2333+1043171316+1043062275+1042793212+1042259230+1041350150+1040202207
2325+1039316646+1039248963+1040062565+1041224471+1042168295+1042743903
2316+1043093678+1043384856+1043727281+1044170529+1044672508+1045101391
2308+1045327559+1045297425+1044986203+1044418011+1043898995+1044014183
2299+1044976581+1046116105+1046508574+1046029046+1045355420+1045071725
2291+1045193061+1045423839+1045525731+1045525063+1045717623+1046339333
2282+1047190752+1047787607+1047935668+1047922974+1047994198+1047923308
2274+1047463155+1046991511+1047197166+1048258049+1049756234+1051159475
2265+1052023388+1052138243+1051855817+1051827755+1052169980+1052334678
2257+1051987576+1051571120+1051751185+1052556970+1053323735+1053343579
2248+1052439510+1051048629+1049914985+1049581113+1049915720+1050079750
2240+1049185035+1047241264+1045363839+1044671105+1045116358+1045904169
2231+1046707081+1047611885+1048306289+1048375843+1048053529+1047791683
2223+1047441975+1046558552+1045239697+1044211353+1044214894+1045523660
2214+1047892172+1050596361+1052592516+1053265539+1053150217+1053267611
2206+1053848430+1054493860+1055161004+1055950553+1056493823+1056520482
2197+1056405561+1056528165+1056766426+1056962461+1057216557+1057558848
2189+1057825171+1057909358+1057900405+1057996551+1058315123+1058728505
2180+1059121776+1059872706+1061550622+1063818913+1065252955+1064767614
2172+1062633821+1059740213+1056960790+1055534698+1056555559+1059456651
2163+1062472531+1065060797+1068125117+1071357208+1072720762+1071631148
2155+1069814659+1068673732+1067987746+1067069980+1065887361+1064715031
2146+1063581053+1062613710+1062306229+1062778542+1063221055+1062847895
2138+1062182822+1062509479+1063969446+1065165228+1064983158+1063909179
2129+1063119764+1062973841+1062736649+1061577682+1059703264+1058346459
2121+1058408196+1059279325+1059438611+1058178554+1056334069+1055280268
2112+1055639664+1057022527+1058589330+1059569167+1059590748+1058917056
2104+1058244500+1058022208+1058062764+1057910694+1057513615+1057399696
2095+1058029891+1059081955+1059823130+1060043351+1060052638+1059989899
2087+1059706204+1059078146+1058080671+1056914488+1056132021+1056167567
2078+1056912617+1058055014+1059407342+1060760272+1061923181+1062839343
2070+1063347669+1063232614+1062703509+1062331351+1062544624+1063484171
2061+1064908459+1066039698+1066096557+1065138702+1063914458+1062974843
2053+1062410861+1062336830+1063126780+1064875520+1066841407+1067940441
2044+1067650465+1066010366+1063401254+1060930382+1060136824+1061375635
2036+1063108005+1063743947+1063747822+1064734006+1067026817+1069566643
2027+1071621995+1073091182+1073586880+1072713946+1071057545+1069614950
2019+1068554735+1067644719+1067348530+1068213846+1069624571+1070548684
2010+1071196586+1072458247+1073741823+1073159266+1070306548+1067221649
2002+1066189296+1067586524+1069811051+1070954717+1070581357+1069753189
1993+1069451922+1069570718+1069570651+1069462345+1069631386+1070014835
1985+1069948622+1069133350+1068401462+1068811771+1070282628+1071898407
1976+1073004056+1073157663+1072142414+1070861778+1070714051+1071771125
1968+1072769670+1072705929+1071428433+1069244529+1066933477+1065467698
1959+1065048770+1065057456+1065103758+1065282287+1065498366+1065374692
1951+1064737013+1063658691+1062331886+1061236126+1060918355+1061306882
1942+1061785743+1062045852+1062160974+1061973893+1061208932+1059978674
1934+1058764852+1058135993+1058481959+1059592552+1060728000+1061496837
1925+1062187433+1062878831+1062943774+1062001220+1060748512+1060259229
1917+1060705016+1061259444+1061290713+1060865505+1060134152+1058955675
1908+1057389941+1055998058+1055209311+1054815305+1054459918+1054252525
1900+1054474216+1054967375+1055381359+1055850531+1056806515+1058193921
1891+1059504090+1060468359+1061213142+1061807324+1062135451+1062196119
1883+1062164849+1062156832+1062145473+1062148012+1062261998+1062409925
1874+1062274693+1061648973+1060679226+1059729322+1059195941+1059298301
1866+1059817450+1060266244+1060426466+1060556554+1060946017+1061439710
1857+1061674163+1061587437+1061438307+1061469175+1061676501+1061809596
1849+1061610221+1061155948+1060878133+1061100759+1061587370+1061858705
1840+1061797035+1061537994+1061142853+1060559828+1059790858+1058976120
1832+1058306304+1057894191+1057713925+1057670562+1057714393+1057795238
1823+1057791497+1057648313+1057519427+1057575685+1057666086+1057451076
1815+1056992728+1056794889+1057093685+1057467780+1057418671+1056991525
1806+1056490682+1056025118+1055569910+1055135013+1054724103+1054325287
1798+1053982728+1053671839+1053122356+1051919625+1049949328+1047715781
1789+1045843969+1044588255+1044000353+1044020063+1044415539+1044907896
1781+1045316467+1045548314+1045564751+1045346734+1044904622+1044365361
1772+1043926121+1043578485+1043106038+1042391322+1041467075+1040381605
1764+1039103106+1037569977+1035869010+1034190159+1032519191+1030649383
1755+1028514522+1026274761+1024082239+1021924326+1019619421+1016982514
1747+1014046144+1011037948+1008196121+1005584871+1003070235+1000521323
1738+997987445+995578042+993375831+991497404+989889309+988273998+986567686
1728+984884090+983251675+981578102+979836912+978090578+976346983+974589423
1718+972928411+971456886+969928367+968117022+966223962+964591280+963403115
1708+962738309+962674434+963036570+963344385+963496321+964005583+965173636
1698+966480932+967617048+968636372+969120912+968772941+967854373+966586432
1689+964955821+962994276+960937454+959247177+958163911+957199041+955890476
1679+954129777+951774026+948518549+944346242+939673960+934596983+928860478
1669+922860723+917571876+913245026+909624942+906785654+905009453+904234069
1659+904131642+904456428+905390096+908186890+914178761+920548736+924386836
1649+927207016+931000417+935869735+940280437+943737159+946788250+949565134
1639+951902978+954086815+956628110+958979985+960044944+959985947+959536418
1629+959065508+958545156+957837455+956986437+956240117+955744286+955309656
1619+954591666+953075375+949932147+944720003+937839965+929934189+921941420
1609+915255011+911093394+909854050+911073684+913735379+916733820+919328233
1599+921280557+922713530+923920804+925090862+926003483+926109852+925060796
1589+923140275+921130357+919726047+919129392+919200483+919786314+920807375
1579+922337497+924934516+929440028+935272946+940365425+944137646+947530360
1570+951114565+954287526+956415238+957673826+958358810+958620723+958944975
1560+960370398+962962940+964781100+965264170+964947135+963832065+961461815
1550+957388661+951671265+944797241+937048479+928264758+916797762+897198153
1540+865935848+834207577+814317792+808366812+817087192+838391510+862953041
1530+883576651+900095370+913666894+924036126+931193244+936266614+940233266
1520+942822667+943304468+941561407+937878517+932796729+927291870+922501795
1510+918915786+915687503+910439279+901092578+888370201+871947161+848431079
1500+813234794+762513123+698030977+634248246+589746218+571052082+576810635
1490+604976951+648105337+692711997+730216995+759755883+783396509+803074290
1480+819100585+830379632+835293782+830868448+811245788+770919475+716465606
1470+666356425+630209034+606041709+591836514+588530192+594570770+604510250
1460+614666811+625374727+638485698+651885041+660741657+665780349+670993429
1451+679195260+690852211+704219015+716928230+728590392+741005289+755317253
1441+770462596+785214535+799849081+814086079+825584679+833351147+838788255
1431+843080094+846074994+846934030+844742977+838269640+826370419+808276546
1421+781855095+744479116+700321450+660012441+629385677+609923974+603680412
1411+611375322+630014937+654914484+682711715+711140612+737192778+758527363
1401+775745096+790725608+804136042+815781567+825758197+833745219+838825538
1391+840586772+838629838+831331474+816727462+794774174+767331863+737266274
1381+709338955+689713556+682630669+688328422+704072825+725254003+746368767
1371+763903603+777543011+787864337+794675088+797593084+796608904+791855978
1361+783889066+774315129+765801339+761649076+764720412+775577992+791658340
1351+808855895+823793044+834850267+842037852+846346662+849037021+851167339
1341+853366275+855675323+857473305+857792879+855722828+850300485+840345103
1332+824855130+803747582+778481757+752219592+729107939+712596837+703586748
1322+700001942+698772553+698708010+701199929+707970391+718820688+731707429
1312+744304329+755395693+765146623+774385485+783824323+793741487+803971077
1302+813981247+823038306+830351035+834934052+835260576+829497411+817085455
1292+800606759+785420725+776687583+776748652+785053512+799365877+816585682
1282+833544976+848134555+859817497+869051949+876449332+882385881+886997427
1272+890256245+892007123+892023693+890231256+887030634+883424648+880657052
1262+879491336+879808105+880960858+882410869+883910056+885275480+886285985
1252+886826382+887000367+886974978+886645381+885508864+883067590+879580200
1242+876397551+875224754+876804319+880381040+884479651+888019023+890676309
1232+892550526+893813523+894651045+895282644+895862929+896409673+896906373
1222+897363920+897706278+897770487+897483652+896900026+896084353+895122155
1213+894189957+893490141+893155065+893150388+893071614+892143625+889821215
1203+886534469+883600704+882195459+882399511+883211643+883266698+881322659
1193+876104235+866109031+850360017+830140502+810069383+796497524+793702400
1183+801230874+814829258+829564894+841982663+850078861+852438086+848215802
1173+838180643+825568577+815207696+810815702+812487071+816538978+817620240
1163+811471221+797202352+778178686+760571089+750207737+750012371+759504326
1153+775859549+795319916+814279574+829974535+840818953+846200605+845717001
1143+838568970+823963823+802596699+778289130+758012422+748871845+753620094
1133+768938153+788314935+806420969+821119857+832754024+842598694+851716154
1123+860419430+868313380+874714891+879077553+881229119+881471388+880481797
1113+878931563+877106655+874921282+872220433+869011192+865542977+862194161
1103+859030287+855297686+849366684+839350367+824451904+806523396+790012829
1094+779008924+773568342+769186036+759972363+742350668+716753510+687489096
1084+661346930+644909325+641652378+650852621+668857698+691325192+714802789
1074+737070908+756789848+773279569+786580761+797338453+806357094+814216902
1064+821218609+827561323+833511635+839349832+845091950+850357746+854648449
1054+857737757+859758566+861036664+861977547+863019522+864427373+865940859
1044+866681633+865553868+861950688+856484315+851276180+849016041+851040792
1034+856426319+863208741+870008534+876186484+881177471+884355576+885354522
1024+884305733+881988333+879752047+878878446+879662516+881148807+882152363
1014+882761045+884490408+888562694+894249289+899298004+901966113+902496421
1004+902709960+904297276+907553822+911612344+915476769+918596612+920796885
994+922107789+922669900+922610836+921981843+920783589+918910842+915973536
984+911198962+903583094+892349080+877757496+861902047+848438963+840772049
975+840017043+844527967+851093642+856624425+859397233+859258258+856601507
965+851207695+842363641+829886273+814450954+796908167+777823566+757978413
955+739147841+724147887+716026834+717011682+727632872+746183758+769033431
945+792078203+812314088+828304503+839674618+846371918+848208719+845457894
935+840433232+837660959+840899531+849893050+861045283+871088058+879171294
925+885907346+891868015+897296036+902361322+907121197+911382835+914845838
915+917400630+919194670+920399205+920992251+920742164+919364379+916829231
905+913614445+910511773+908091746+906458930+905516510+905304373+905984212
895+907496161+909196794+909808549+907920434+902953567+895832395+888466013
885+882424900+878388293+876828773+878475620+883575315+891055214+898951035
875+905640985+910531884+913832995+915991509+917266867+917652655+917164106
866+916074493+914676463+912825030+909688884+903991532+895224181+885257039
856+877795982+874863353+874238703+871661595+865504292+858505792+855107799
846+857646422+864926211+873771201+881382659+886196654+887180366+883061109
836+872241212+853436030+827436981+799500375+779333978+776062933+791251439
826+817294585+843505570+863398094+876308888+884201702+888708751+890448337
816+889476050+885895988+880438100+874625293+870199290+868239817+868790036
806+871172846+874562019+878412347+882538819+886855246+891232607+895722351
796+900561135+905728980+910823062+915439954+919326161+922207810+923860871
786+924307126+923634637+921540532+917155220+909634096+899234396+887503214
776+875665329+862829768+846594812+825643476+801087423+775183118+749541995
766+724701713+700558442+676891759+653849592+632008219+611741533+592195108
756+570873820+545642338+518327275+494115552+474441478+452533390+420531847
747+381105561+349036134+341014936+364615673+414581535+476617865+535587770
737+582717718+617107617+642755354+664950244+687507002+711382681+735409762
727+758020774+778127172+795268870+809656869+821853148+832261533+841061022
717+848362193+854132974+858251495+860817912+862063605+861901446+860112016
707+856909924+852586615+846870556+839932523+834017088+832572556+837191185
697+846177821+856251800+864988215+871761016+877128837+881733970+885752737
687+889092935+891644854+893185399+893398805+892254404+890158762+887658558
677+885313097+883906849+884178584+885952446+888115771+889580816+889628722
667+888066194+885746791+883658098+882148889+880705024+877710392+871396074
657+861370670+848873391+835714514+823290130+812444978+803783461+797745756
647+794070750+791438052+788334445+784416701+780898376+779555669+780907930
637+782719543+780628445+771962585+760263007+754719529+762903789+783991025
628+810047535+833078276+849739577+860690764+867767838+872326134+875045423
618+876195236+875858090+874087167+870967993+866492881+860656889+854309698
608+849767639+849437908+853409839+859164918+863985127+867013635+868864467
598+870144101+870989908+871532509+871768499+870653429+865791394+854302549
588+834451784+808472179+784996853+775573449+785468631+808884091+834610135
578+854878425+867713518+874241509+876832180+878076202+879304122+880237656
568+880374559+880120597+880210997+880582486+880480861+879621692+878645396
558+878225733+878283127+878416289+878618136+879098199+879650890+879655099
548+878734327+877189037+875623904+874237300+872690675+870703006+868565071
538+866911341+866016493+865461397+864637171+863621388+863333484+864549711
528+866868380+868969500+869958824+870205036+870615078+871518078+872507135
518+872980116+872786220+872442057+872568805+873179357+873726034+873833138
509+873748417+873858327+873922670+873307775+872044109+870938728+870157397
499+868572153+865237300+860668181+856102402+852282408+849640023+848744706
489+849649577+851239966+851625286+849179068+843608130+836356670+829925092
479+826592645+827262929+831147934+836617581+842059099+846154971+848574329
469+850383603+852848462+855859464+857918224+857682902+854441524+845299877
459+822982382+783911583+741956796+720611655+730432873+762769358+799587434
449+828361095+847108549+858591983+865567164+869420966+870329111+868884244
439+866586021+864597684+863622190+864160916+865524202+866042818+865253202
429+864618597+865596964+867770244+868861060+866440365+859821372+849701826
419+837727907+828212365+825481450+829443024+837389023+846043257+852962381
409+857999136+862221555+866032461+869506623+873178221+877296208+881119943
399+883458389+883798676+883128392+882889730+883334782+883706338+883056031
390+881020056+878966641+880312021+887332837+896550452+901333378+899681921
380+894350379+888137619+882389555+877733844+873296617
##END=
