##TITLE=cz-PHOS-06
##JCAMP-DX=5.0
##DATA TYPE=LINK
##BLOCKS=1


$$ === CHEMSPECTRA SPECTRUM ORIG ===
##TITLE=cz-PHOS-06
##JCAMP-DX=5.00
##DATA TYPE=INFRARED SPECTRUM
##DATA CLASS=XYDATA
##$CSCATEGORY=SPECTRUM
##ORIGIN=Angelika Moesle
##OWNER=
##XUNITS=1/CM
##YUNITS=TRANSMITTANCE
##XFACTOR=1.0
##YFACTOR=8.4271012e-10
##FIRSTX=3997.453
##LASTX=373.96442
##MAXX=3997.453
##MAXY=0.9048531005093488
##MINX=373.96442
##MINY=0.23215187967766843
##NPOINTS=2559
##XYDATA= (X++(Y..Y))
2559A072624859A072166460A071866566A071671494A071289552A070672790A070105821
2552A069825307A069693184A069419884A069052585A068949248A069229833A069601589
2545A069840160A070106599A070638769A071364950A071957171A072129256A071845276
2538A071395011A071218187A071504004A072027759A072465293A072736400A072883516
2531A072804725A072417197A071963890A071797463A071894434A071928101A071779710
2524A071599137A071387443A071056640A070850534A071119165A071691298A072049827
2517A071991404A071618729A071073757A070620309A070657937A071205243A071647021
2510A071547645A071240325A071311621A071732109A071850935A071389919A070774712
2503A070488468A070549084A070649944A070619953A070566200A070635020A070682480
2496A070329185A069548966A069052019A069694244A071144769A072095943A072117940
2489A071806234A071489647A070982020A070286818A069898440A070152714A070363489
2482A069802461A068936659A068817620A069548046A070177116A070430894A070663594
2475A070695282A070269347A069806705A069802885A070167002A070733618A071577352
2468A071940125A070895094A069193337A068557123A069390036A070093160A069669772
2461A068739747A068142930A068299384A069554129A071778932A073411586A073741823
2454A073379545A072701743A071839406A070980181A070338592A070049803A070297286
2447A071158279A071955473A071810690A070982302A070233983A069832238A069704712
2440A069938474A070691180A071665199A072154578A071904052A071415311A071049214
2433A070312210A069269088A069079391A070118481A071046526A071046526A070621794
2426A070463147A070793879A071182539A070916808A069851547A068611797A068080617
2419A068416017A069266541A070381313A071244428A071365871A070928761A070452891
2412A070269631A070441858A070867155A071255249A071209982A070613731A069764125
2405A069046146A068606917A068478047A068723621A069177776A069496838A069689788
2398A070094150A070613731A070865033A070826839A070426863A069322489A067670950
2391A066504759A066670761A067547315A067998146A067622500A066755849A066414225
2384A067172518A067853009A067887383A068529043A070810713A073000505A073303864
2377A072090426A070109993A067983859A066760730A067202578A068442894A069361956
2370A069782585A069855296A069741986A069629032A069475053A069064962A068511078
2363A068105160A067805408A067381312A066764478A066105207A065964030A067233204
2356A069564951A071072413A070843673A069373627A067647963A066672176A066783929
2349A067064160A066618987A065780840A065285591A065246972A065194491A064828960
2342A064625187A065316853A066290872A066329208A065250650A063573366A061903296
2335A060585672A059505064A058421626A057673375A057620895A057326447A056132671
2328A054776146A054214481A053946911A053085706A051688652A050193992A048964922
2321A048133282A047504778A046812192A046081696A045367395A044423013A043252649
2314A042541744A043003609A043876485A044072265A043641521A042889310A042186398
2307A041945493A042140778A042222117A041714985A040609762A039243476A038075870
2300A037599789A038050761A038527408A038002099A036988047A036158317A035626500
2293A035334033A035260262A035067099A034363339A033473488A032959777A032675515
2286A032004998A030994129A030312789A030039490A029421807A028019449A026231473
2279A024837602A024132781A023600964A022736859A021718776A020981843A020462616
2272A019749165A018774934A018001010A017721981A017282325A015974179A013930303
2265A011735347A009900902A008583419A007534285A006281450A004538811A002473928
2258A000439176I98664850I97466618I97165168I97026467I95729001I93228352
2251I90564742I88639196I87425899I86241318I84653294I82882010I81417410I80290120
2243I78961250I77137484I75227216I73777611I72664537I71285662I69415000I67382725
2235I65711099I64723925I64258947I63760798I62850363I61764028I61086578I60952758
2227I60691412I59695679I58263190I57013184I55967019I54827706I53697445I52897139
2219I52380953I51813347I51040908I50142711I49191963I48233292I47357163I46651493
2211I46142239I45718992I45105483I44116681I42839303I41413180I39925875I38583425
2203I37624189I36967393I36310526I35592619I35002168I34505574I33787668I32777789
2195I31839984I31260495I30889235I30535586I30267450I30117360I29945630I29748648
2187I29719436I29948883I30350275I30787738I31071647I30983093I30507507I29986370
2179I29862593I30213837I30655403I30800964I30663254I30485156I30419802I30532969
2171I30844957I31233194I31540443I31845289I32413319I33346172I34359518I34995166
2163I35075302I34850099I34671860I34699091I34891829I35052174I34950889I34672426
2155I34661038I35199433I36070399I36900765I37609053I38348249I39189508I40045338
2147I40816716I41515384I42229187I42967819I43634093I44253685I45103361I46357116
2139I47739599I48879974I49845293I50889333I51883158I52517603I52897139I53435816
2131I54293202I55302798I56340898I57452910I58664369I59872998I60981616I62052817
2123I63225940I64453737I65432566I65927037I66155423I66702235I67909520I69467908
2115I70830091I71889693I72897026I73882079I74693843I75487289I76586783I77913318
2107I79053340I79813897I80344865I80847399I81444853I82204207I83084156I83945431
2099I84687457I85323175I85929258I86545738I87101320I87481634I87683992I87878357
2091I88323742I89167194I90191360I90883733I91003054I90943427I91242120I91873808
2083I92337229I92342604I92154675I92259921I92832761I93632856I94409468I95185090
2075I96025783I96775306I97217791I97341214I97311649I97317591I97532680I98074186
2067I98812888I99292435I99106204I98418711I97850751I97778112I98021917I98257093
2059I98412840I98629556I99069636I99782946A000609705A001295783A001753758
2052A002038587A002119572A001926692A001558049A001209280A001003599A001046178
2045A001441132A002105709A002780541A003344540A003931668A004631326A005272137
2038A005614257A005648985A005595301A005632009A005735417A005811946A005885010
2031A006072019A006457213A007030478A007690669A008280130A008678763A008851979
2024A008823052A008659666A008498544A008523158A008891306A009601856A010389856
2017A010889490A011024868A011114128A011454197A011969463A012397095A012690340
2010A013078363A013744708A014568426A015251675A015652642A015932095A016365880
2003A017016735A017623242A017933463A018101870A018486781A019065916A019429962
1996A019421475A019392829A019694986A020237695A020709463A021020603A021384648
1989A021988892A022666129A023068228A023179627A023337071A023628195A023716890
1982A023448966A023174747A023198158A023285792A023045311A022556215A022340278
1975A022767414A023625437A024334997A024566000A024545135A024686807A025071930
1968A025465611A025709205A025852432A025974512A026125166A026418058A026958503
1961A027637226A028121583A028124624A027691051A027219920A027148696A027531484
1954A027967251A028037132A027760861A027515217A027526322A027617987A027550016
1947A027469243A027745018A028364752A028782764A028512011A027686171A026890179
1940A026562488A026669573A026872991A026955604A027041399A027283436A027431544
1933A027064457A026245548A025564138A025412989A025546597A025486760A025093998
1926A024571376A024070185A023499538A022707577A021744451A020961685A020793702
1919A021242977A021653775A021353881A020520897A019969630A020068086A020352914
1912A020282962A019913895A019612445A019423314A019069099A018458772A017812586
1905A017242716A016561872A015598534A014394714A013068390A011774815A010769533
1898A010195349A009827909A009258605A008332046A007295571A006507573A006110638
1891A006006948A005995561A005815271A005241935A004303494A003276569A002425125
1884A001885457A001683029A001659829A001532657A001160690A000549161I99626704
1877I98343667I96883805I95450538I94001640I92435402I90829130I89357740I88172946
1869I87426818I87223329I87431274I87621679I87371508I86681610I85921195I85365684
1861I85059424I85049027I85321266I85563373I85383437I84722397I83823352I82969786
1853I82397582I82234692I82414840I82769974I83196404I83632452I83955404I84044241
1845I83922373I83727372I83533148I83302569I83063856I82969644I83045325I82994612
1837I82458481I81379852I79862064I77761037I74738757I70674769I65631245I59474365
1829I51965204I43200519I33642106I23898027I14755788I07160973I01877392H99268527
1821H99402135I02163635I07269967I14302127I22700644I31709134I40421478I48018345
1813I54084761I58730360I62319963I65073683I66994773I68111595I68629054I68815921
1805I68820590I68643836I68284175I67855200I67548799I67539816I67919139I68670006
1797I69744885I71135219I72730670I74216701I75350852I76278613I77348047I78631932
1789I79825707I80668736I81353682I82358044I83884462I85664588I87352906I88899623
1781I90457092I92104952I93749843I95213311I96385585I97317591I98141026I98868340
1773I99320798I99346260I99066100I98754464I98471263I98014137I97313135I96672253
1765I96424274I96440613I96213712I95408737I94080009I92334753I90111294I87331333
1757I83978038I79982941I75236835I69736398I63744742I57918312I53192223I50440766
1749I50307512I53181331I58925715I66622169I74847468I82320062I88390511I93129260
1741I97004541A000411662A003468600A006100877A008173187A009614941A010513845
1734A011085483A011560221A012076477A012632200A013186155A013783256A014445073
1727A015093099A015752583A016567743A017430999A017955318A017987854A017829207
1720A017845051A018090907A018359256A018479708A018524693A018673649A018930823
1713A019158714A019338438A019568875A019830787A019975359A019974510A020009592
1706A020226379A020508378A020630458A020582574A020586393A020803958A021178896
1699A021540748A021725849A021627676A021282090A020910335A020753244A020855520
1692A021064809A021205702A021219636A021209875A021325023A021518257A021570031
1685A021450003A021396319A021520307A021638356A021563663A021263701A020769583
1678A020237130A019974015A020115192A020369889A020300291A019797403A019186935
1671A018908543A019136929A019690813A020248022A020598557A020697296A020558455
1664A020217608A019847197A019765080A020161944A020857924A021430835A021546973
1657A021185120A020662003A020388491A020482844A020695812A020735703A020548553
1650A020287418A020131459A020116535A020102319A019975641A019860706A019977481
1643A020313093A020597851A020657618A020654011A020850568A021227982A021483175
1636A021360953A020891733A020352843A020054223A020080180A020225601A020233381
1629A020059527A019872801A019855826A020015958A020170997A020165905A020080463
1622A020112433A020287843A020413742A020289894A019900810A019434347A019139829
1615A019127098A019306185A019531742A019742234A019952655A020167744A020314225
1608A020263017A019964396A019556427A019264313A019168404A019135514A019033591
1601A018960529A019139687A019557841A019854977A019717974A019274003A018914413
1594A018802448A018781512A018739569A018807397A019123420A019591862A019956757
1587A020014472A019736717A019313965A019048163A019069806A019204829A019238992
1580A019192452A019220531A019401104A019700574A019985261A020046372A019803698
1573A019417514A019064148A018772459A018572364A018553409A018708590A018938391
1566A019173850A019362698A019469642A019589033A019844580A020150769A020270231
1559A020103875A019832768A019772931A020040147A020354329A020387006A020244132
1552A020252337A020399667A020438851A020355247A020279214A020187336A020037672
1545A019913895A019847763A019805749A019853492A020043613A020295835A020614260
1538A021140843A021831943A022380098A022525236A022248966A021768852A021440313
1531A021470373A021750604A022140464A022640950A023067662A023038380A022584578
1524A022289494A022575030A023241586A023775808A023784861A023256510A022661391
1517A022555012A022930871A023296897A023405609A023474570A023689305A023936577
1510A024078885A024136529A024138651A024059575A023951430A023954188A024102508
1503A024249131A024214120A023942023A023530942A023151265A022853492A022485132
1496A021978283A021644651A021925165A022891969A024125071A024959470A024908403
1489A024139076A023419472A023277022A023437791A023373356A022985333A022452313
1482A021850262A021229043A020717950A020360341A020096378A019963052A020118728
1475A020622111A021251960A021563100A021217090A020357087A019582526A019450191
1468A020027698A020934312A021702013A022084590A022141173A022069949A021942282
1461A021650309A021136104A020557535A020176585A020175878A020571398A021176703
1454A021667850A021814473A021618764A021150179A020350934A019190259A018001434
1447A017418975A017763641A018571940A019004947A018753291A018290224A018151381
1440A018267307A018254222A018104346A018148269A018388679A018408625A018048894
1433A017689304A017675795A017853397A017830056A017489068A017124103A017089516
1426A017366635A017607187A017593677A017391815A017099418A016804475A016701281
1419A016897131A017208978A017381417A017368686A017294773A017310617A017514955
1412A017906303A018463158A019199171A019948057A020324481A020166329A019781630
1405A019569087A019499419A019076455A017964867A016597237A015720472A015423478
1398A015125847A014376111A013280933A012290151A011814423A011914223A012269002
1391A012683691A013272233A013864736A014026141A013678717A013060115A012392002
1384A011980072A012144802A012731080A013068390A012662402A011713563A010902434
1377A010777738A011282748A011907716A012277420A012387192A012353950A012213975
1370A012008859A011897319A011994430A012114247A011927379A011436232A011021260
1363A010940699A011041348A011056484A010980732A010987098A011086897A011126223
1356A011145391A011444153A012081499A012563734A012337328A011489915A010686567
1349A010423665A010551191A010623971A010568449A010770877A011489774A012408270
1342A012870206A012484234A011468555A010486968A010136502A010476429A011045167
1335A011420530A011640075A011891660A012129171A012430125A013252075A014636822
1328A015677822A015622582A014943364A014569982A014779837A015467471A016678789
1321A018130091A018871268A018256698A017007540A016567176A017265632A017786840
1314A016935324A015257899A014084140A013665844A013319905A012809732A012361023
1307A011714694A010329524A008491541A007378468A007762884A009034816A009884987
1300A009917099A009962932A010545249A010806525A009670040A007512996A005871006
1293A005778420A007036348A008936431A010906678A012185401A011823123A009974319
1286A008462259A008913161A010940841A013091660A014601103A015277845A014928511
1279A013948905A013277821A013026235A012298285A010702057A008988133A008100477
1272A008176370A008438140A008076287A007305121A007067116A007621000A008353406
1265A009198556A010862684A013141949A014426896A013761895A012368166A012038495
1258A012941358A013771232A013530963A012832365A012883574A013343670A012693169
1251A010995727A010227531A011284941A012618974A012581770A011575781A011010722
1244A011202540A011275463A010674826A009831657A009366892A009279329A009127614
1237A008694041A008246321A008181675A008475273A008589148A008099345A007220104
1230A006397800A005682652A004924995A004190751A003547110A002964014A002743974
1223A003375025A004776817A006349775A007660043A008433119A008285152A007234815
1216A006069968A005522520A005408575A005037314A004142157A003123156A002599120
1209A002918818A003930747A005001808A005414304A005006264A004324642A003948431
1202A003805203A003433730A002817321A002561138A003081214A003821683A003696986
1195A002507313A001549562A002279351A004646391A007285529A009019114A009680649
1188A009626824A009065372A008233166A007897341A008928014A010976135A012271267
1181A011815484A011011500A011961187A014938130A018333581A020432627A020647008
1174A019681265A018977929A019366164A020202826A020452997A020025294A019452030
1167A018974958A018504393A017962957A017231046A016108070A014553148A012665231
1160A010550341A008728698A008289467A009837740A012618266A015441160A017826307
1153A019374581A019205325A017293359A015049600A013658418A012943482A012295101
1146A011611145A010878740A009818502A008505051A007609896A007519149A008000677
1139A008905876A010271667A011643257A012270630A012218078A012290081A012664877
1132A012610415A011644389A009984151A008288972A007601125A008601668A010387027
1125A010925704A009406077A007135158A005695807A005162223A004434839A003092813
1118A002169012A002794122A004657213A006349846A006986130A006786177A006109718
1111A004815435A002962598A001320751A000533812A000336193A000341144A000707312
1104A001435828A001908232A001606216A000786388A000090477I99845329I99918322
1097A000005744I99900074I99538787I98988934I98440354I98072347I97876568
1090I97665652I97274658I96673667I95959509I95376131I95113087I94989027
1083I94696489I94266594I93855301I93334093I92517448I91528859I90606756
1076I89822292I89175610I88646906I88096204I87429860I86876188I86802487
1069I87183791I87621396I87844336I87922563I87992161I87988837I87835636
1062I87607250I87315207I86907026I86570635I86622763I87084062I87622881
1055I87968184I88105258I88097406I88067276I88196641I88526241I88835401
1048I88861288I88636155I88449499I88437970I88432241I88259873I87929777
1041I87511694I87136049I87038654I87211446I87300424I87155924I86918343
1034I86691442I86405198I86025451I85783626I85994471I86533573I86716268
1027I86216775I85362006I84368607I83219744I82071023I81211303I80769455
1020I80627288I80509663I80208993I79791617I79542648I79659281I80023398
1013I80326758I80306034I79909452I79417174I79303794I79771742I80468571
1006I80912400I81010077I81058598I81498112I82398007I83132959I83318978
999I83349604I83680831I84288824I84818165I85181362I85587280I86010032
992I86158281I85968160I85766438I86027714I86826606I87502004I87618001
985I87433749I87183508I86886656I86697029I86895850I87402983I87792350
978I87931970I87925604I87719498I87246953I86728009I86555711I86711246
971I86594896I85979830I85236814I84702805I84441954I84360261I84191146
964I83607414I82620947I81691488I81476469I81883517I81991028I81405527
957I80287149I79041457I78091911I77546868I77099998I76465764I75844262
950I75827146I76596543I77225755I77149225I76749532I76393125I76183128
943I76138427I76298913I76531189I76466825I76040466I75686889I75739016
936I75746372I75288044I74597651I73854918I73019317I72085261I71051971
929I69879696I68605288I67451333I66714612I66074013I64848904I63118572
922I61300748I59701549I58361928I57017993I55417026I53615540I51752873
915I49758295I47506686I45135684I42914913I41050619I39469739I37878956
908I36180454I34477212I32898666I31709983I31238145I30760295I29640926
901I28417727I27718988I27517267I27050380I26229349I25421616I24686239
894I23900927I23261743I23482420I24664384I25679355I26221781I26860612
887I28080629I29781183I31493055I33300482I35675868I38182176I39847577
880I40730638I41738395I43384417I44827798I45293270I44932336I43946152
873I42311306I39984652I36915265I32935799I28169041I23708401I21287535
866I21861860I24994904I29537590I34276338I38185854I40649157I41456042
859I40515195I37707650I33081361I27258820I21708094I18285908I18005606
852I20592899I25708708I33258680I40890416I45566570I47951788I50015893
845I52542783I54690773I55755468I56198094I56460219I56538020I56649208
838I57926163I60812713I62524584I62641853I62365513I62140239I62081038
831I62191023I62250789I62025020I61519161I60893911I60435794I60765678
824I61995880I62559030I61977844I61115507I60697424I60768153I60672527
817I60214340I59789183I59566597I59185222I58369355I57514516I57220139
810I57355869I57423557I57507018I57807125I58125408I58245507I58172161
803I57919726I57475119I57001089I56621482I56038528I55132976I53927600
796I52419713I50652956I48669199I46444608I44032018I41428528I38315148
789I33984933I27570597I18809661I08290385H96904528H85787444H76640536
782H71190175H69664535H70598379H72024573H72191495H69895538H65329016
775H59965228H54522152H48680585H41992382H34756734H28304345H23444790
768H19845991H17141075H15704696H15824229H16269331H16281567H16028992
761H15835687H16290762H18234698H21989455H27192333H33637083H41082587
754H48744808H56267125H64486130H73540240H81047068H85784402H89217835
747H92689886H96095521H98602890I00024910I00697055I00751800I00089274
740H98583510H96096865H92829789H89455769H86376976H83852349H82448931
733H82700940H84517775H87331898H90796027H94759720H98612862I01718887
726I04390560I07467515I11278008I15577030I20173684I24555601I27782574
719I29597993I30445689I30581136I29784720I27978212I25706657I23821073
712I23183799I24360953I27235762I31193868I35624306I39879689I43218838
705I45428788I46876060I47827728I48282874I48386351I48630369I49537124
698I51065944I52620656I53832327I54789229I55693721I56608680I57493792
691I58367445I59264793I60080660I60643952I60930054I61073140I61238081
684I61567965I62125739I62781404I63360750I63919867I64582819I65273919
677I65810970I66148916I66390458I66618774I66820000I66919233I66849352
670I66609932I66238743I65706714I64899051I63733779I62294218I60875662
663I59902068I59703176I60347311I61642868I63243552I64783550I65983620
656I66710298I67020943I67105253I67096836I66938118I66452559I65549270
649I64317936I62864653I61033460I58371123I54405521I48903244I41953484
642I34073133I26245333I19473318I13965878I08739235I02111225H92541565
635H79062958H61321045H39547045H14390962G86684647G57390382G27555811
628F98155309F70131065F44469335F21845093F02244191E85114941E69776460
621E55709311E42682065E30723898E20047602E11046079E04313883E00641455
614E00939333E06000044E16164576E31077264E49519612E69294968E87380237
607F00574759F06591522F05141069E98264797E89451946E82077843E78322837
600E79102137E84501962E94029926F06673711F21180163F36556732F52345867
593F68475000F84888607G01267628G16994875G31306537G43486335G53099492
586G60143324G64855054G67314044G67336111G64713454G59381919G51433526
579G41202968G29325540G16578418G03744371F91698252F81480143F74150279
572F70511662F70857247F74898389F81938825F91160282G01858858G13563916
565G26002163G38938698G52026807G64764025G76596470G87117585G96178910
558H03855135H10380800H16077512H21202375H25845144H30015792H33787879
551H37336530H40870611H44499681H48132925H51532124H54448876H56720007
544H58343608H59444021H60005473H59649208H57740001H53538373H46091524
537H34140042H16328319G91568182G59519771G21414350F80880638F43702342
530F15969859F01751630F02033700F15306838F38663628F68465380G00735600
523G31792097G59039658G81374828G98949534H12560194H23040074H30900761
516H36361733H39597900H40762677H39709370H35967273H29361330H20883879
509H12975802H08615740H09553616H15096703H22638400H29378022H33639346
502H35011856H33799337H30466906H25292321H18203930H08886139G97129305
495G83049919G66926799G48881315G28791955G06513793F82160350F56150701
488F29035263F01448695E74197421E48132673E23936993E02209993D83616672
481D68762653D58046360D51584741D48942209D48906561D49843234D50384882
474D49679318D47112926D42159760D34619902D24735601D12905526C99462177
467C84814514C69532899C54108730C38791645C23796803C09586604B96882310
460B86468827B79084910B75482487B76454932B82692515B94523757C11670053
453C33232395C58017678C84837501D12455190D39522708D64869726D87747888
446E07394445E22202701E30031914E30676120E28363542E30325195E41452323
439E60580749E82417310F02297734F18629437F32023594F43584082F54089566
432F63960039F73399627F82408046F90773956F98260625G04889485G10974433
425G16849738G22601690G28071290G33047337G37452313G41437791G45335776
418G49441353G53825605G58379183G62967561G67498081G71910485G76162472
411G80213941G84049755G87700398G91175207G94413779G97368513H00102216
404H02755217H05415574H08017366H10404282H12527305H14468765H16221022
397H17653370H18802799H19963332H21324172H22722215H23931127H25032460
390H26280203H27725140H29222134H30732143H32352771H34056722H35579179
383H36604477H37062169H37288009H37798253H38797240H39999362H40973098
376H41514321H41705080H41783377H41943297H42135824H42142260H41914226
369H41686831H41604361H41320805H40040880H36709794H29790023H16954207
362G95813803G65944151G30525611F95361556F65518356F43094067F28797753
355F24819065F34235807F57182860F88911926G22303140G51813486G75148703
348G92443673H04810693H13449196H19375214H23378304H25988938H27514082
341H28096329H27677185H26046653H23062284H18636018H12363919H03369222
334G90670056G73577938G51705694G24876853F93375041F58388306F22062162
327E86914835E54998619E27463259E04914945D88181249D78567702D77335802
320D85024795E01141479E24229884E52172648E82531503F12835825F40963051
313F65599978F86422098G03777119G18114880G29488359G37353503G40871882
306G39509133G33249128G22288287G06914972F87914283F66796513F45191839
299F24039624F03635728E84269367E66423695E50558419E37064463E26303892
292E18440198E13214334E09901884E07500363E05025424E01738190D97287205
285D91878574D86358403D81911732D79435096D79133009D80762940D84231313
278D89813656D97873908E08647386E22322765E39087475E58944735E81466172
271F05702946F30338175F53988494F75517133F94201872G09701793G22058486
264G31853207G40087490G47516161G54125569G59540707G63846590G67633176
257G71297541G74742573G77776949G80415591G82713246G84609437G86082951
250G87322065G88595341G89935032G91086441G91857608G92371033G92862960
243G93439902G94103842G94700164G94818778G94101861G92579334G90188881
236G85731140G76379683G58369211G28640169F86843294F37158712E88738884
229E52788633E36469273E38331834E50794409E67650113E87944554F12924520
222F41573590F70171947F94974735G14210105G28119243G37913541G44719437
215G49316798G52396511G54559072G56154805G57356007G58293459G59051116
208G59589793G59878724G60083345G60472498G61213606G62121988G62721281
201G62684501G62113076G61352024G60627186G59993801G59493742G59094473
194G58633952G58137146G57984865G58471910G59375553G60140424G60419524
187G60396536G60493224G60765391G60921209G60927080G60989605G60978218
180G60556173G59801487G59083793G58508902G57990099G57550797G57180456
173G56716186G56061724G55211129G54069834G52670871G51494424G51109654
166G51451279G51718142G51026618G49151149G46732122G44699067G43363053
159G42207118G40595188G38209050G34736716G29802470G23498119G16386953
152G08645940F99784214F89485190F78195950F66449301F54067004F40559325
145F25983347F10878734E95421392E78984408E60692855E40368390E19207651
138D99885425D85755397D79599083D82710165D94252087E11237827E29977877
131E47982514E64317718E78477912E89512526E96489906E99578389E99986005
124E98581454E95463193E91468096E88859372E89452547E93036846E98297898
117F04416797F11375610F19462067F28939071F39551003F49555933F55223222
110F51902957F37174909F15297925E96543519E88267541E89966858E97181359
103F06350335F16437806F27646202F39797567F52048307F63186751F72412452
96F80230913F87836976F95391404G01769526G05925675G07842874G08474420
89G09064094G10396712G12301464G13816989G14253109G13893660G13305684
82G12488897G11184146G09508489G07765709G05789803G03030001F99337344
75F95121994F90642116F85627945F79997365F74712441F71259346F70113099
68F70886458F73519938F77939484F83278658F88306338F92364031F95572684
61F98014203F99029245F98243226F96556110F94947151F93701176F92564267
54F90595859F86343871F78909683F68778713F57533113F47400657F40609332
47F38702600F42914767F53617941F68576709F84018491F97517256G08386433
40G17210954G25419562G33454245G39575971G42097557G42251960G42937543
33G45516985G47757278G47337073G45600941G44906446G46816148G51345609
26G57021314G62083723G65370250G66682498G67021718G68402432G72629947
19G78785342G82062179G80284388G77953066G77268189G77510934G79260434
12G82844450G86245983G86619011G81988691G72245249G60660429G50808770
5G42741834G35114413G29815909G32335018G41013271
$$ === CHEMSPECTRA INTEGRALS AND MULTIPLETS ===
##$OBSERVEDINTEGRALS= (X Y Z)
##$OBSERVEDMULTIPLETS=
(1, 138.25036881126078, 138.59277427321751, 138.46222981123614, 0.9999999999999999, 1, m, A)
(2, 133.23176960302953, 133.66814695379645, 133.48279564190975, 1.987274122284833, 2, d, B, 2.724866917495092)
(3, 131.87228621249787, 132.6946901241411, 132.40674677866537, 2.844508823451596, 3, d, C, 9.991178697498981)
(4, 128.79448436702344, 129.025260814134, 128.93305883767292, 2.0898457549540974, 4, m, D)
(5, 128.24901282707356, 128.66860674114275, 128.5033614728207, 1.782845199354446, 5, m, E)
(6, 125.67900267374374, 127.66158230697177, 126.64735772892166, 1.0660528613382014, 6, m, F)
(7, 49.88530503905223, 54.97923806746825, 52.681636538488505, 4.448808106463458, 7, d, G, 5.449733834995641)
(8, 18.230171867603502, 22.77831956447139, 21.317339806472745, 2.17274651427371, 8, s, H)
##$OBSERVEDMULTIPLETSPEAKS=
(1, 138.52000424684647, 72327169.13828485)
(1, 138.40445537562582, 185938336.1102821)
(2, 133.4936283485867, 336701406.1536333)
(2, 133.4719629352328, 312519942.87841755)
(3, 132.44646670314754, 454222697.1834611)
(3, 132.36702685418317, 434690907.1219969)
(4, 128.97277876207005, 455015490.5182334)
(4, 128.89333891327578, 211950589.5132109)
(5, 128.56835771279697, 470349646.4605423)
(5, 128.43836523284446, 64945932.53883816)
(6, 127.39120358740608, 74994983.29027885)
(6, 125.90351187043724, 115714308.00076568)
(7, 52.703301951842406, 470331940.68139505)
(7, 52.659971125134604, 596285035.010087)
(8, 21.317339806472745, 342020657.4548895)
$$ === CHEMSPECTRA SIMULATION ===
##$CSSIMULATIONPEAKS=
##END=


$$ === CHEMSPECTRA PEAK TABLE EDIT ===
##TITLE=cz-PHOS-06
##JCAMP-DX=5.00
##DATA TYPE=INFRAREDPEAKTABLE
##DATA CLASS=PEAKTABLE
##$CSCATEGORY=EDIT_PEAK
##$CSTHRESHOLD=0.93
##MAXX=3997.453
##MAXY=0.9048531005093488
##MINX=373.96442
##MINY=0.23215187967766843
##$CSSOLVENTNAME=- - -
##$CSSOLVENTVALUE=0
##$CSSOLVENTX=0
##NPOINTS=46
##PEAKTABLE= (XY..XY)
376.7974837842062, 0.6150232522512991
393.7958664894445, 0.6550117696670827
413.6273129788897, 0.6277402004974335
439.12488703674717, 0.538241144690312
470.2885886630179, 0.564711090914572
522.7002686708365, 0.4957390100682149
543.9482470523844, 0.49623775204124465
565.1962254339323, 0.40416300078681994
695.5171595074276, 0.45208808542614276
770.5933497888973, 0.40377023551035107
827.2546254730255, 0.40225571182642633
875.4167098045345, 0.5265413492444379
998.6549844175133, 0.44525730388244505
1021.3194946911649, 0.23215187967766843
1048.2336006411256, 0.3782981018890973
1092.146089296325, 0.6814286672892887
1121.8932590304921, 0.5071021883274957
1182.8041303909304, 0.5650469631454195
1223.883555261923, 0.4873585073670104
1243.7150017513682, 0.4218956206200246
1310.2920006802187, 0.8087515786113412
1381.118595285379, 0.7779763300373459
1412.2822969116496, 0.7436486445368817
1450.5286579984358, 0.6875129896920524
1457.6113174589523, 0.6874026022507235
1478.8592958405002, 0.7328751046495942
1580.849592071931, 0.7736126143929327
1600.6810385613758, 0.7763783291743542
1637.5108677560593, 0.7780420142349391
1701.2548029007035, 0.8222212153116166
1733.8350364190774, 0.8271001529681663
1750.8334191243157, 0.8313804816034953
1811.7442904847535, 0.8254705024411978
1832.9922688663014, 0.8307298377604951
1862.739438600469, 0.8326542927260331
2850.0621673964033, 0.8008337574744214
2872.7266776700544, 0.8396968195134529
2922.305293893667, 0.8153555944461379
2953.4689955199374, 0.7578226883003932
2995.9649522830337, 0.8277391151634831
3018.6294625566848, 0.8319430900483895
3425.1741155903046, 0.7876483154923045
3433.6733069429242, 0.7876574353012232
3450.6716896481626, 0.7840741829937963
3459.1708810007817, 0.7836046173305412
3470.5031361376073, 0.7834839774778923
##END=


$$ === CHEMSPECTRA PEAK TABLE AUTO ===
##TITLE=cz-PHOS-06
##JCAMP-DX=5.00
##DATA TYPE=INFRAREDPEAKTABLE
##DATA CLASS=PEAKTABLE
##$CSCATEGORY=AUTO_PEAK
##$CSTHRESHOLD=0.93
##MAXX=3997.453
##MAXY=0.9048531005093488
##MINX=373.96442
##MINY=0.23215187967766843
##NPOINTS=67
##PEAKTABLE= (XY..XY)
3293.4366496247067, 0.8408377124968934
3306.1854366536354, 0.8404446194061879
2872.7266776700544, 0.8396968195134529
3320.350755574668, 0.836098785227811
3327.4334150351838, 0.8350780559658014
1862.739438600469, 0.8326542927260331
3018.6294625566848, 0.8319430900483895
1844.3245240031274, 0.8317874625569784
1888.2370126583264, 0.8315884422360684
1763.5822061532444, 0.8314995717122334
1872.6551618451913, 0.8313930582093262
1750.8334191243157, 0.8313804816034953
1832.9922688663014, 0.8307298377604951
1774.91446129007, 0.8307153532589525
3007.297207419859, 0.8301107837490532
2978.966569577795, 0.8283584666515973
2995.9649522830337, 0.8277391151634831
1733.8350364190774, 0.8271001529681663
1811.7442904847535, 0.8254705024411978
1801.8285672400311, 0.8252692177581953
1708.3374623612194, 0.8226017309537812
1718.2531856059418, 0.8223394113049175
1701.2548029007035, 0.8222212153116166
2922.305293893667, 0.8153555944461379
1551.1024223377635, 0.8107554269827045
1534.1040396325252, 0.8095894414627309
1542.6032309851444, 0.8093689632140353
1310.2920006802187, 0.8087515786113412
1521.3552526035965, 0.8066590982031067
2850.0621673964033, 0.8008337574744214
3433.6733069429242, 0.7876574353012232
3425.1741155903046, 0.7876483154923045
3450.6716896481626, 0.7840741829937963
3459.1708810007817, 0.7836046173305412
3470.5031361376073, 0.7834839774778923
1637.5108677560593, 0.7780420142349391
1381.118595285379, 0.7779763300373459
1600.6810385613758, 0.7763783291743542
1580.849592071931, 0.7736126143929327
2953.4689955199374, 0.7578226883003932
1412.2822969116496, 0.7436486445368817
1478.8592958405002, 0.7328751046495942
1450.5286579984358, 0.6875129896920524
1457.6113174589523, 0.6874026022507235
1092.146089296325, 0.6814286672892887
393.7958664894445, 0.6550117696670827
637.4393519311961, 0.6407938561001443
644.5220113917121, 0.6387615165423338
609.1087140891318, 0.6329677066554985
413.6273129788897, 0.6277402004974335
376.7974837842062, 0.6150232522512991
1182.8041303909304, 0.5650469631454195
470.2885886630179, 0.564711090914572
439.12488703674717, 0.538241144690312
875.4167098045345, 0.5265413492444379
1121.8932590304921, 0.5071021883274957
543.9482470523844, 0.49623775204124465
522.7002686708365, 0.4957390100682149
1223.883555261923, 0.4873585073670104
695.5171595074276, 0.45208808542614276
998.6549844175133, 0.44525730388244505
1243.7150017513682, 0.4218956206200246
565.1962254339323, 0.40416300078681994
770.5933497888973, 0.40377023551035107
827.2546254730255, 0.40225571182642633
1048.2336006411256, 0.3782981018890973
1021.3194946911649, 0.23215187967766843
##END=

##END=

