##TITLE=X9559
##JCAMP-DX=4.24
##DATA TYPE=INFRARED SPECTRUM
##DATE=19/11/2018
##SAMPLING PROCEDURE=Instrument type and / or accessory
##ORIGIN=Default
##XUNITS=1/CM
##YUNITS=TRANSMITTANCE
##RESOLUTION=4
##FIRSTX=3996.5625
##LASTX=399.65625
##DELTAX=-2.0390625
##MAXY=0.96374542
##MINY=0.3831068
##XFACTOR=1
##YFACTOR=8.9755786e-010
##NPOINTS=1765
##FIRSTY=0.91059506
##XYDATA=(X++(Y..Y))
3997+1014525189+1014193018+1014513235+1015042902+1015332572+1015239402
3984+1015447723+1016097853+1016480892+1016394031+1016299665+1016275161
3972+1016089419+1015717005+1015229773+1015030152+1015390280+1015627355
3960+1015472360+1016214664+1017796758+1018679912+1018558519+1017987813
3948+1017458943+1016984261+1016445629+1016155760+1016615168+1017387355
3935+1017238204+1016571671+1017207457+1018501210+1018694987+1018147722
3923+1017521100+1017442341+1017670451+1017331639+1017637446+1019086792
3911+1019688909+1019178301+1019194837+1019730148+1020146989+1020261674
3899+1019439283+1018179133+1017887670+1018930535+1020111527+1020668819
3886+1021117270+1021186798+1021049268+1020866648+1020354313+1020318918
3874+1020781779+1021704113+1022494563+1021645409+1020710191+1020560442
3862+1020237104+1020266721+1021627678+1024041793+1025660544+1023806179
3850+1021214955+1020579767+1021347770+1022219702+1022589725+1023120587
3838+1023314431+1022326618+1021712813+1022043323+1022438449+1022536134
3825+1022432007+1022667422+1023616121+1024276477+1024335315+1024095318
3813+1023765338+1023994444+1024661708+1024770417+1024027848+1023626613
3801+1023258383+1022587866+1022048105+1021478726+1021224252+1021559212
3789+1022062250+1022010053+1021586174+1021717661+1022536134+1022785362
3776+1021995709+1021550712+1022280266+1023812222+1024830582+1024928932
3764+1025059224+1025701983+1026063771+1025689166+1026039200+1028070010
3752+1030607577+1030661101+1029368013+1029720637+1029340520+1026933445
3740+1025897221+1026962664+1028242272+1027388403+1025335678+1024429348
3727+1024519994+1024692654+1025147214+1025894631+1026561695+1026946195
3715+1027038568+1026979731+1026636337+1026630361+1027435552+1028150895
3703+1027979895+1027272987+1027045076+1027210032+1027852592+1029156970
3691+1030205745+1029994768+1028398130+1026756867+1026686674+1028172145
3678+1029464702+1029800459+1030409682+1031890970+1032630219+1031296356
3666+1029634241+1029047530+1028714828+1028593169+1029711606+1030742318
3654+1030222147+1029809491+1030222014+1030397795+1029516965+1028758126
3642+1029130274+1029588553+1028995732+1028724988+1029988990+1032027304
3630+1033621219+1032991742+1031403140+1031049851+1031523005+1031923775
3617+1032008578+1032579882+1033543323+1033481963+1032401910+1031851988
3605+1031586956+1030931978+1030883965+1031814070+1032535522+1032193655
3593+1031361635+1030937955+1031039226+1031266539+1031127415+1030997124
3581+1031181206+1031418745+1031625605+1031865071+1032071200+1032054731
3568+1031430101+1030420640+1030239081+1030899837+1031431296+1031523869
3556+1031542662+1031260695+1030163642+1029062737+1028701148+1028525500
3544+1028409287+1028426354+1028105804+1027354270+1026511358+1025958449
3532+1026014563+1026107135+1024798375+1022336779+1020383732+1019249955
3519+1018152238+1016901650+1015705982+1013868218+1010845412+1007816496
3507+1006226698+1005571986+1004149403+1001260075+998056906+995569145+993053028
3493+989674211+985976238+982606850+979708425+977276048+974913931+972037420
3479+968934327+966450285+964278093+961462744+958168131+955390966+953776730
3464+952454157+949993159+946786403+943868122+941399088+939135918+936320104
3450+932713375+928817774+924773087+920868189+917347259+913259607+907748243
3436+902043301+897337195+893187119+888960078+884218776+879230703+874584563
3422+869802819+864283287+858513398+852804139+847363565+842526371+837994187
3407+833946313+830588214+827724055+825385379+823457833+822211230+822112681
3393+822501763+822486821+822513385+823142796+824093553+824802786+825035279
3379+825617275+827183498+829237750+831302560+833463729+835553310+836952052
3364+837803730+838698904+840115377+842050760+843917012+845554689+847167663
3350+849054502+851271452+853475055+855419137+857493378+859912539+862211370
3336+864286275+866296366+868269734+870203456+872006621+873670729+875602924
3322+877687856+879361593+881196168+883674765+886123810+888305697+890448869
3307+892654398+895128146+897085908+898036201+899095335+900398451+901549627
3293+903377960+905696780+907651952+909759928+912072572+913810059+915134957
3279+916783857+918644797+920050712+920919190+921916964+923331313+924821565
3265+926548826+928361620+929632130+930472319+931506218+932342091+932679839
3250+934088942+936588125+938414068+939711140+941307180+942585128+943379163
3236+944652130+946518847+948162966+948901617+949090348+949515356+950197362
3222+951082907+952204265+953348003+954444459+955692456+957107403+958199409
3207+958712407+959027246+959594034+960329299+960657817+960777750+961566539
3193+962604024+963174997+964159223+965685070+966467883+966719435+967678294
3179+969102803+969972742+970291100+970842150+971825447+972387123+972609986
3165+973366701+974058668+974215921+974470727+974748775+975071516+975900349
3150+976715701+977416434+978019282+978045712+977953074+977911967+977900678
3136+978591715+980027979+981081336+981015924+980827924+981176896+981588557
3122+982146181+982684481+982934572+983353737+983957249+984524901+984870419
3108+984778910+984630555+984989953+985601035+985912221+985899073+985672689
3093+985666713+985936460+985658478+984807598+983903791+982796378+981072371
3079+978589989+976652548+976838688+978564356+980366259+981311106+981449101
3065+980918106+977653044+970734968+964952462+965234362+970206762+975724635
3050+979690362+982205018+983566374+983472872+981958314+979201470+975620906
3036+972479894+971177376+971922203+973605635+974860738+974655871+972734301
3022+970040279+967984898+966560986+964310699+960278962+954898620+950670848
3008+950544408+954439877+960062341+965513540+969467912+971814623+973524684
2993+974778127+975462125+975717861+975462856+974313474+972328086+970648506
2979+969880369+969854072+970132784+969750210+968635958+967174991+964690617
2965+960436946+953155089+940511285+922122163+903354717+892888949+893982217
2951+902198893+911094786+917154478+920679591+923602853+927119267+930866381
2936+934446347+937787512+940468917+942261457+943447961+944690314+946285225
2922+948020721+949845535+952073177+954764942+956862359+957926075+959010843
2908+960187187+960889646+961085283+961157734+961370968+961533800+962306386
2893+963890738+965442882+966892161+968708010+970883522+972593384+973281301
2879+973475808+973700266+974116243+975025097+976066036+976432539+976468997
2865+976802363+976967519+976650622+975741369+973455554+969173925+963570852
2851+958977905+956920665+956214154+955418924+955274620+957187889+961037270
2836+965712563+970219646+974048972+977191512+979813349+981697664+982785022
2822+983785784+985011801+985974246+986659904+987422130+987952196+988152481
2808+988497800+988854476+988897973+989117317+989639480+989885852+990021456
2794+990336361+990448589+990580209+991315673+992193913+992645286+992780160
2779+992862903+992872997+992345788+991306907+990328923+989689684+989426776
2765+989465757+989886715+990724115+991315142+991643461+992507556+993514229
2751+993996215+994364047+994917089+995205232+995109804+995087889+995226150
2736+995453529+995860010+996385958+996814686+997001822+996953743+996720586
2722+996594545+996653182+996492542+996026361+995681640+995592122+995452932
2708+995635420+996383966+997039542+997452597+997975557+998622831+999199647
2694+999750897+1000191577+1000343319+1000436953+1000589160+1000724100
2681+1000725428+1000527865+1000355671+1000278173+1000002980+999615691+999405976
2667+999249320+999271965+999580362+999754483+999921232+1000528928+1001215450
2653+1001684885+1002089971+1002319940+1002378711+1002180617+1001656728
2641+1001093459+1000642684+1000496787+1000392460+1000031602+999931193
2628+1000187925+1000653774+1001178793+1000951679+1000124904+999875942
2616+1000266552+1000729147+1001138417+1001500537+1002161890+1003261799
2604+1004066393+1004184068+1003687538+1002456939+1001205953+1000654305
2592+1000080942+999732834+1000749401+1002137652+1002722636+1002460326
2579+1001270568+1000059028+999327482+998728884+998771252+999189022+999559244
2565+1000290658+1000822715+1000732334+1000434164+1000455548+1001213789
2553+1002331429+1003043052+1003035482+1002997165+1003757133+1005083027
2541+1005962130+1006022163+1005981787+1005931052+1005533934+1004635705
2528+1003319640+1002734589+1003178657+1003682093+1004503355+1005743185
2516+1006594198+1007494087+1008757557+1009623446+1009882568+1009877654
2504+1009573242+1009042380+1008973116+1009326737+1009586723+1009893791
2492+1009911057+1009192859+1008343307+1008034246+1008441989+1008788039
2480+1008494716+1008707685+1009630684+1010135780+1010230079+1010216598
2467+1010278158+1010838572+1011494147+1012124820+1013006447+1013278253
2455+1012461440+1011473760+1011047025+1010982743+1010941636+1010902057
2443+1011211384+1011782224+1012002365+1011960793+1012217857+1012661327
2431+1012567958+1012319062+1012566829+1012969525+1013538704+1014156427
2418+1014422522+1014301926+1013819741+1013383775+1013590768+1014398217
2406+1015100411+1015445266+1015499853+1015000866+1014321517+1014320056
2394+1015061231+1015650067+1015840457+1016065844+1015722052+1014379889
2382+1012474855+1009931046+1006929224+1004574411+1003073733+1001693451
2369+1000669446+1000332826+999447813+996892715+993719296+991952588+992547003
2355+994783145+997676656+1000958851+1003708855+1004722633+1003974087+1002890381
2341+1002615520+1003511160+1004849272+1005633413+1005892602+1005725321
2329+1005980924+1007265180+1008304060+1008299677+1008747198+1010345828
2316+1011341742+1011434314+1011778903+1012586552+1013826647+1015574295
2304+1017476142+1018744195+1019443732+1020558716+1021857117+1021896031
2292+1021235342+1021873984+1022810530+1022586405+1022828261+1023798609
2280+1023321072+1021936208+1021197955+1020677652+1020684359+1020949458
2267+1020408236+1020266921+1021864886+1024312603+1026725655+1028435385
2255+1028421771+1027725953+1027811685+1027913421+1027045408+1026541839
2243+1028376149+1030847308+1031274575+1030963256+1031667309+1032697623
2231+1033043340+1032607707+1031738498+1030833429+1031106364+1031979358
2219+1031391186+1030289817+1029780006+1029492726+1030061972+1031923244
2206+1034030755+1035503077+1037002627+1037944485+1036962517+1035254381
2194+1034451580+1035088428+1036299370+1036508089+1035563840+1034609032
2182+1036313316+1040512267+1041783707+1039268520+1037507192+1038145700
2170+1040672177+1043855557+1045414342+1044675823+1042348503+1038713684
2157+1035532894+1034584063+1033949538+1033117651+1034831962+1039277817
2145+1043194071+1043412286+1040513994+1037953650+1036364915+1035725543
2133+1037098386+1038379588+1037775478+1036758380+1036038986+1035976364
2121+1036867753+1037530899+1038090649+1039322376+1040223461+1038974799
2108+1036390216+1035412298+1036247772+1037227018+1038004119+1039140287
2096+1039663778+1038792776+1038349040+1038103797+1036073186+1033668369
2084+1033523932+1035839764+1038364779+1038804198+1037869578+1038417307
2072+1040592886+1040757112+1037875754+1035384340+1036148625+1039250590
2059+1042474478+1044966489+1046182611+1047121216+1049085021+1050308647
2047+1048821449+1045560638+1041805356+1038977455+1038939470+1040754257
2035+1041643985+1040632731+1038530067+1036083214+1035120570+1036072655
2023+1035154769+1030002604+1026355168+1030445011+1036587911+1038969088
2011+1039709068+1039882657+1041328084+1043791341+1044574419+1042902276
1998+1039025601+1037672347+1040429457+1042480322+1043067166+1045229397
1986+1047810261+1047136623+1045987572+1048106970+1050346964+1051361074
1974+1054071035+1057525889+1058228747+1056037762+1052197079+1048983882
1962+1049997992+1052749325+1052452483+1051571719+1053081628+1053774060
1949+1052054502+1052208701+1055244324+1056233465+1054358181+1053055464
1937+1052578923+1052451952+1053291211+1054622948+1054612589+1053694703
1925+1053821077+1054827550+1055699481+1056010933+1055415921+1054671293
1913+1054996225+1055150623+1054180275+1053774791+1054640878+1055589577
1900+1056018371+1056306115+1056566100+1056633836+1057219219+1058881666
1888+1060189165+1060899593+1061997045+1063280172+1064361221+1065095490
1876+1065803195+1066638071+1067150406+1067086455+1066101897+1064550416
1864+1063850148+1063405018+1062239433+1060508386+1058033243+1055049418
1851+1052925836+1053223807+1055873270+1059366906+1062059136+1063605636
1839+1064561905+1065291923+1065660419+1065799941+1066627048+1067619509
1827+1067978708+1068449006+1069160696+1069756771+1070852894+1071948021
1815+1072339893+1072820683+1073616047+1073741823+1072960671+1072065496
1803+1071186127+1070538056+1070244999+1070068156+1070326880+1071128486
1790+1071027413+1070251905+1070080840+1070337571+1070691391+1070620667
1778+1070089008+1069951278+1071097208+1072337502+1072173010+1071706099
1766+1071783995+1072187886+1072334248+1072160592+1071527994+1070451128
1754+1068992287+1067291588+1065355143+1063175647+1060070096+1056271251
1741+1052440795+1047383592+1041660122+1033343835+1015595612+991098520+959429277
1727+912155050+847504682+772566252+706599022+651849426+598359183+559081292
1713+544668988+554436945+582977395+620741791+658049835+686498443+714559431
1699+745325066+774993449+806039789+830817387+853354924+877429132+901550091
1684+929748343+953099307+964850194+972261347+978023333+985932608+998418827
1670+1013374080+1025022766+1030144450+1033463236+1036469042+1039173557
1658+1042072580+1045959017+1050537753+1049579160+1042988008+1024214121
1646+970990505+886231058+786498164+695864369+643041523+638347171+670876525
1631+714325411+760174930+798647962+819758532+823111451+813305575+799327510
1617+780911228+759584566+747005709+749727357+772313438+809466952+848497143
1603+883074839+913265517+939589747+960637430+973807448+975582722+960323588
1588+921262384+860793901+801912425+775335514+788106223+823250509+869923814
1574+912114940+940419842+965477746+987044537+1001818762+1013590701+1023454152
1560+1034399383+1045957158+1050327307+1052673222+1054920919+1056479438
1548+1057062364+1056942963+1056860684+1055434117+1046855121+1035273506
1535+1027360180+1019368160+1010541664+1002095217+990276262+973244644+951943483
1521+919637524+874261491+809416349+728497784+660441105+615583583+593312738
1507+593078054+609637315+629500885+651576823+678460404+711399293+744889100
1493+773410292+801943637+831511611+856835278+878688685+899016310+916158231
1478+927097087+933243109+938189012+942241933+941262886+933437683+917002405
1464+892643905+870272719+850807130+823584207+799520092+805904982+828144548
1450+840590656+814229437+747497059+683609050+661566980+683559775+715356853
1436+716119478+693664817+688185993+715227425+756967244+795664136+830259297
1421+859518742+885803393+907852104+923258729+936001613+947910816+959289755
1407+970002161+979969274+988439495+995293620+1001560835+1007156338+1011563743
1393+1014277355+1015473223+1015932764+1015734006+1014457187+1012101578
1380+1008628196+1003974751+998026956+990222804+980855218+970278283+956022568
1366+936229258+909907552+877042839+846154217+826376645+820620237+829263649
1352+849719839+876892891+904644884+928732374+948987150+966369201+980911863
1338+991673942+997776267+997951318+990884688+976392828+953674662+921168351
1323+878843946+829185288+776746875+728797216+690849999+662779449+644340920
1309+638547589+647379864+665782599+685851700+704270705+720767012+735084752
1295+747322274+760068943+778084589+802031096+825451920+840997868+845405206
1281+837865356+817669748+783467787+735795579+681245139+630097225+587946873
1266+553896586+527412148+510553488+504292250+506902964+515664846+529527761
1252+548835333+573651048+603270953+635898591+667455340+691195651+700659793
1238+693555842+673543786+649327930+630114291+621397965+624425752+636116540
1223+650883395+664272026+674151548+681525777+688934273+696142418+701898361
1209+707590221+715659871+726648931+738615908+749088583+754741594+748837894
1195+723967857+685204890+657419494+664583677+705316293+757830211+800562426
1181+822456672+822405339+802740793+760179180+692031855+609393533+535495544
1166+492189767+482908876+491299341+498868477+495729391+483092759+474612777
1152+482113446+502702983+528624485+556672191+585311024+610893215+627102841
1138+626850890+606288514+568681105+524224020+486341119+465082260+461175602
1124+468692076+481707596+496465685+511064993+524891416+537866859+549889453
1109+561073187+572167702+583198399+593071081+601901696+610660258+619222851
1095+627210819+634873723+642606088+650057085+656851510+663096811+668453910
1081+672508093+675507657+678555167+682477265+687160660+692708083+699205866
1066+706045979+712965516+720039783+726926581+733627437+740339252+746609123
1052+752387114+758275142+764193053+769724008+774887130+780196284+785964313
1038+791494139+795967884+798431207+795543806+779822608+742412430+686403945
1024+636172588+616390767+626938548+651333771+676499786+697314179+711613259
1009+715455003+704062053+679818173+655497393+643405835+646848669+662553663
995+684221460+706521391+726573226+741594886+745562208+727629903+689741059
981+654291299+617590619+553901301+491466987+481199877+518165324+568333528
967+612769694+647291010+674051272+695926659+714276402+730274120+744693729
952+757296958+768664607+779851163+791016934+801920593+812226452+821507110
938+829465660+833617529+825272752+798446946+775045645+783605715+808096897
924+811258362+779034749+721969122+666569529+635934650+632684597+645600074
909+664018814+682202338+698750443+714439964+728943777+741674309+752834834
895+762920153+772099606+780331025+787703992+794073675+799679338+804982049
881+809732582+814434438+819816971+825238818+828926165+821879657+788696188
867+742265005+727765375+754972029+788580905+805860422+801652373+763225030
852+686424333+618542439+620871020+682496789+747896235+791746554+817848119
838+833148293+841465111+845409655+848195719+851177950+853976366+857313147
824+861855426+866842037+870687435+870332353+859715973+831126182+776192836
810+688078213+574170289+471569749+426832424+447572706+501967885+561645023
795+617024627+665379704+704937902+736974977+764881567+791418036+816648334
781+837978581+848812844+834971911+796455781+769697046+782834192+813729189
767+822223051+784270920+707616054+635934650+607325867+617240651+640940852
752+666085683+691613952+716250168+737648815+755527727+770076167+777438045
738+767320518+743647345+735500198+753815275+778597588+796435195+808205872
724+816654045+823139874+828529314+833193649+835156923+833689448+830533029
710+821092462+804817026+800031696+815560245+835287480+847459392+854131162
695+858195173+861201577+865511761+870548510+873817157+875717742+877676965
681+879951093+882342230+884698039+886765174+888162788+887993980+887618313
667+891098601+894565077+895827020+897225099+899119176+900843050+902028890
653+901725806+901643128+903712654+906744094+908602178+908808838+909082902
638+910778686+913536527+915512949+916712004+918610929+919975007+920102642
624+920684506+921396528+919367643+911751757+894243598+859436264+813431550
610+788067773+801753180+830931873+847123170+847518362+842914855+839964433
595+838858149+837647871+834892488+829805136+823062509+816077693+809015380
581+802383056+795731673+787938677+780075488+773731107+768748082+762203947
567+752869034+744072088+736823435+730110957+726692826+727083435+728338472
553+731237163+735708319+740054164+746391705+755198744+765325966+778924711
538+792309225+796248324+790832653+784398157+782255782+785041845+792623466
524+803286132+814942655+828281348+843036912+854508822+854937151+834524258
510+789303817+732486422+685240551+656094331+641068487+635896731+637793265
495+644236195+652913740+659284020+656083241+644701646+636591487+638417895
481+647212981+657668722+666847777+675436335+684948889+695573570+707873051
467+722305144+735928659+746201912+756728111+771010854+783734280+786644194
453+775464345+739863773+684179956+646987793+651238277+677253977+706274620
438+734054438+758768882+776220130+786408381+794643983+803362302+811432749
424+815669685+818277843+825654861+836856359+845593206+852535321+858305144
410+860312711+856908128+852056390+846985906+834080389+811501414
##END=
