##TITLE=X9266
##JCAMP-DX=5.0
##DATA TYPE=LINK
##BLOCKS=1


$$ === CHEMSPECTRA SPECTRUM ORIG ===
##TITLE=X9266
##JCAMP-DX=5.00
##DATA TYPE=INFRARED SPECTRUM
##DATA CLASS=XYDATA
##ORIGIN=ComPlat
##OWNER=
##XUNITS=1/CM
##YUNITS=TRANSMITTANCE
##XFACTOR=1
##YFACTOR=9.3036634e-010
##FIRSTX=3997.453
##LASTX=373.96442
##MAXX=3997.453
##MAXY=0.9989732499694378
##MINX=373.96442
##MINY=0.761284530167391
##NPOINTS=2559
##XYDATA= (X++(Y..Y))
2559I87333039I86707565I86257951I86251160I86520172I86770349I87006880I87407035
2551I87888810I88148853I88078701I87856456I87667014I87520816I87306900I86905912
2543I86285884I85562901I84984451I84813972I85183248I85996947I86890280I87298187
2535I86861643I85935444I85318555I85308368I85510496I85564439I85382684I84785015
2527I83603321I82234044I81636054I82343468I83564113I83957861I83295101I82772452
2519I83395876I84674565I85541696I85507485I84552328I82783215I80775586I79787115
2511I80586784I82361214I83623758I83761372I83427909I83291898I82973683I81933127
2503I80778085I80949717I82873676I85371345I87207790I88058199I87966073I86635619
2495I83637661I79207576I74740333I71935213I71233821I72183468I74474717I77438400
2487I79728623I80224941I79142293I78449742I79697743I81580444I81734651I79514964
2479I76825995I75437946I75183284I75997432I78059133I79998404I79936645I77564673
2471I74377337I71917339I71110623I72427431I74548008I75224350I74007997I73152463
2463I74643978I77448138I79546292I80014228I78385484I73746865I67898428I66929626
2455I71298784I76909793I81066829I82659761I81547066I78371646I74314040I70551456
2447I68168273I68102350I70110748I72922275I75712147I78251522I80280293I81369924
2439I81343209I80584990I79400606I77113522I73255289I70227027I70774085I73438453
2431I76041573I78735796I82077787I85104959I86439513I85342323I82286193I79315463
2423I77849061I76684666I74599132I73118444I74093974I76639307I79603695I82807881
2415I85857220I88030459I89132070I89498783I89368152I88790407I88079277I87568481
2407I86913921I85625942I84377300I84698206I86730692I88875038I89548177I88164549
2399I85338735I82685643I81463460I81589670I82664694I84311184I85464368I84924102
2391I82869832I81150499I80811207I80573779I78622271I74286427I69274113I67085562
2383I68107795I69823477I70893055I71984928I74144458I76510983I77363443I75406425
2375I70582721I65598403I64863761I69268411I75500025I80379211I82550528I82042038
2367I80100012I78630536I78719267I80274079I82764828I85389603I87156345I87298059
2359I85329766I81203417I76856234I76151959I79857331I84944410I88646451I89805978
2351I88700779I87171465I87259299I88759720I89997919I89973510I88572520I85692250
2343I81348526I77076812I75999995I78946764I83418940I87322084I89630246I89667468
2335I87479301I83778349I79043440I74545253I73483747I75773971I77437823I77014925
2327I77748670I82259990I88121304I92218439I93721486I93569394I92797017I91462142
2319I89396534I87405497I86266472I84729406I80605491I73472600I67552794I68622244
2311I75024337I81836387I86880606I90035974I91920405I92993827I93165972I92293332
2303I90761199I89206322I87500122I84505880I80282087I78626692I81771681I86590965
2295I89767795I89750753I86529782I82117956I79615099I79608884I80354546I81100784
2287I82256146I83410227I83605115I83549955I85056590I87926096I90145975I90574703
2279I89820329I89035523I88559770I88294858I88611087I89911558I91552347I91967942
2271I89879525I85907063I83456675I84884701I88310747I91155011I92620516I93102803
2263I93157707I93174300I93487902I94177058I94639036I93642173I89998368I83865286
2255I78464990I78000000I81995527I86783483I90156162I92149440I93634485I94777995
2247I94926243I93781644I92233879I91559522I91715779I91423126I90036679I88658368
2239I88963257I91078773I93512055I94803557I94824699I94641150I95040280I95557227
2231I95406929I94582338I93580221I92766137I92277572I92144699I92366111I92970507
2223I93951803I95167899I96395272I97405076I97984615I97926508I97066617I95593232
2215I94389052I94430118I95496429I96257850I95851737I94810156I94329983I94805415
2207I95553511I95877300I95873584I96073149I96544609I96822590I96649677I96328643
2199I96340752I96780115I97149774I96875573I96197308I96121198I97020425I98008768
2191I98257728I98080330I98162910I98403029I98225118I97550506I96834571I96459850
2183I96472855I96748658I97169122I97696063I98346010I99050093I99558327I99615602
2175I99230374I98548202I97504058I95984546I94385848I93495654I93570868I94027208
2167I94194996I93875564I93164498I92073907I90432285I88096767I85170563I81846381
2159I78072651I73636672I68612121I63410621I58307205I53225827I48173023I43648954
2151I40310487I38356288I37580900I37855101I39143528I41184600I43520566I45868898
2143I48329472I51171238I54386827I57486202I59901353I61550983I62798536I63969082
2135I65158271I66371549I67588863I68759088I69868131I70948856I71951998I72743659
2127I73315446I73862760I74578503I75465366I76348384I76959828I77099556I76911138
2119I76879554I77328463I77996220I78309950I78015312I77377665I76825610I76543465
2111I76408222I76185850I75789795I75420263I75336081I75395790I75092567I74160346
2103I72788313I71161042I69256879I67125795I64892206I62502616I59850485I57045685
2095I54301620I51684725I49111843I46456189I43639729I40677391I37626130I34555073
2087I31629702I29104421I27153297I25785749I24916761I24437741I24272067I24388795
2079I24727126I25181801I25711241I26352924I27148364I28207692I29719708I31645910
2071I33565321I35103925I36338536I37534324I38726524I39814361I40846909I41948584
2063I43123487I44350218I45778629I47578941I49542237I51110055I52030808I52730535
2055I53717596I54922610I55954261I56657062I57102191I57360056I57509586I57655207
2047I57894813I58328603I58897315I59233660I58999948I58318608I57611835I57164656
2039I57012692I57010449I56897245I56502856I55932671I55438339I55163561I55075791
2031I55053240I54946314I54583766I53804149I52580685I51123637I49763713I48696697
2023I47818419I46817135I45498469I44048981I42883496I42211895I41860046I41527993
2015I41110027I40730310I40548235I40571747I40637799I40538112I40199268I39794821
2007I39653492I39981893I40682132I41490706I42281150I43170063I44315687I45645372
1999I46856023I47722000I48316018I48863653I49521224I50361126I51394251I52543975
1991I53734766I54943687I56027872I56724267I57038446I57378059I58089958I59103734
1983I60137628I60967856I61510750I61947935I62648494I63673290I64608202I65104135
1975I65268528I65374941I65560027I65874975I66305497I66738646I67124065I67548821
1967I68029315I68416785I68581242I68563047I68585021I68930592I69625129I70302625
1959I70658831I70895169I71338248I71782673I71690033I71018944I70434024I70600979
1951I71509496I72564916I73211275I73403601I73484260I73679981I73893384I73983716
1943I73984293I73956681I73901136I73885119I73981218I74092244I74176426I74520524
1935I75373239I76410592I76996282I76891854I76389771I75848607I75417060I75172329
1927I75194432I75417573I75647761I75841752I76150613I76581264I76871161I76848994
1919I76660705I76485229I76236782I75716504I74940219I74158808I73600091I73357345
1911I73509053I74095768I74897999I75489198I75639368I75447620I75000825I74174889
1903I72904272I71418010I70056100I68978449I68208443I67840000I67972488I68463489
1895I68972235I69253163I69230740I68889654I68356883I67975371I67990491I68234518
1887I68366877I68346569I68462271I68944046I69706237I70477396I71052899I71315249
1879I71129522I70469708I69669591I69298586I69655561I70539796I71555752I72479708
1871I73267910I73868975I74211086I74302444I74192571I73914718I73600731I73510911
1863I73817850I74503098I75453129I76415589I76959508I76847969I76369590I75995702
1855I75859370I75786143I75631681I75430258I75337234I75442046I75600224I75588116
1847I75409949I75245428I75156505I75077063I75008769I75024337I75153878I75365679
1839I75585553I75729701I75802544I75905818I76098336I76339864I76595742I76859181
1831I77043947I76981739I76595294I76026902I75561785I75390088I75404567I75299243
1823I74952007I74622580I74646925I75021710I75415843I75545320I75441469I75359145
1815I75479076I75755135I76012808I76040036I75609898I74679727I73563893I72614310
1807I71799394I70933801I70157196I69772288I69760244I69823413I69793046I69722253
1799I69675741I69647040I69682340I69966151I70683880I71774857I72901133I73739306
1791I74283032I74807282I75553392I76502399I77466460I78298995I78906467I79157349
1783I79014802I78720484I78619965I78799926I79064389I79225002I79245759I79170290
1775I79107826I79244798I79679805I80277923I80846187I81355766I81805828I82056645
1767I82053122I82040245I82302145I82825819I83384857I83768803I83820889I83465260
1759I82828254I82202715I81822165I81728821I81796730I81786224I81471276I80841446
1751I80128522I79581848I79360373I79630090I80462561I81574230I82491204I83047295
1743I83427973I83765088I84034740I84300421I84734211I85402545I86158521I86720762
1735I86921544I86951655I87188827I87698983I88143343I88250973I88140524I88123867
1727I88370969I88765101I89011114I88946215I88731531I88634791I88708211I88826284
1719I88921998I89014061I89109647I89215291I89351367I89474630I89507175I89486226
1711I89534275I89652540I89698155I89605644I89502306I89551381I89747422I89913865
1703I89910021I89805722I89800468I89975432I90194729I90298516I90323117I90438692
1695I90687651I90918993I91005033I90979279I90924951I90879464I90881066I90979343
1687I91163212I91357843I91503785I91601293I91685219I91781767I91905734I92066923
1679I92227729I92297624I92262260I92251497I92358423I92477073I92435238I92227985
1671I92039503I92065258I92299546I92515512I92546392I92506735I92572915I92656200
1663I92538127I92232662I91982741I91956602I92129003I92413263I92748711I93055907
1655I93224208I93196852I93025091I92796825I92545687I92279622I92078007I92090564
1647I92381935I92797273I93071987I93129326I93178080I93447477I93899845I94282446
1639I94393024I94230937I93948151I93733274I93712517I93860253I93970958I93826170
1631I93484955I93297371I93523715I94040918I94505523I94696311I94643329I94549024
1623I94606875I94816050I95005108I95067957I95077182I95156560I95331587I95524746
1615I95660693I95787031I96051110I96506490I97003768I97325763I97382269I97253369
1607I97082697I96950594I96851932I96782165I96774925I96868141I97092756I97440248
1599I97799850I98075653I98346907I98676718I98846364I98631744I98247477I98124599
1591I98344729I98649426I98875899I99038690I99117875I99092056I99084369I99227620
1583I99461652I99643214I99749884I99835860I99915238A000003264A000126398
1576A000228647A000255875A000371194A000849573A001672306A002408870A002576210
1569A002050614A001174194A000523798A000467613A000887564A001382152A001667757
1562A001706517A001601897A001502788A001508297A001626050A001872575A002302200
1555A002888274A003518810A004078937A004392795A004265881A003761619A003224363
1548A002915054A002839712A002895642A002929853A002794994A002555837A002446605
1541A002525854A002697294A003035241A003632334A004162414A004168244A003822738
1534A003816587A004386388A004982841A005036015A004640153A004345322A004517403
1527A004974512A005187531A004872455A004305345A003964643A004055553A004449942
1520A004825687A004854133A004554497A004369475A004621766A005114112A005489729
1513A005642142A005604407A005428482A005276646A005269599A005285936A005243332
1506A005408238A006033776A006804423A007017826A006415352A005636440A005551809
1499A006168570A006632663A006415224A005926209A005766365A006018784A006436750
1492A006734207A006633624A006150183A005768928A005961830A006641824A007288440
1485A007485635A007273833A007016289A006926404A006888734A006853113A007068566
1478A007674565A008331623A008497618A007967922A007087145A006512539A006708773
1471A007559054A008457320A008841971A008678988A008391589A008309905A008318490
1464A008132186A007751572A007467248A007510684A007875731A008499155A009407352
1457A010470331A011176592A011058775A010267563A009351294A008646571A008268006
1450A008365130A008888163A009411260A009665409A009948708A010550413A011072870
1443A010880801A010038336A009258527A009038525A009297671A009683796A009819615
1436A009484551A008912956A008664829A008969270A009511843A009957356A010300108
1429A010609098A010784125A010713717A010460785A010199525A010074725A010164994
1422A010481158A010967994A011571045A012327021A013373280A014866589A016847823
1415A019130359A021425579A023666536A026014227A028455133A030711466A032625046
1408A034287874A035787333A037081078A037998500A038342981A038184034A037754473
1401A036861780A034975684A031973946A028403560A025218786A023350628A023258245
1394A024757576A027097002A029294202A030795520A031692633A032211438A032393064
1387A032244624A031929997A031602300A031057997A029907760A028234875A026701204
1380A025826322A025532068A025446412A025339934A025166188A024790314A023977063
1373A022821893A021777300A020996723A020093011A018844497A017694068A017189742
1366A017316208A017642047A017807016A017701628A017383797A016920730A016312874
1359A015664656A015350542A015682595A016368547A016684327A016327032A015780936
1352A015677790A016073268A016533901A016759669A016930212A017392190A018072505
1345A018424418A018116838A017581633A017577596A018247725A018864806A018679208
1338A017873324A017335620A017512634A017952061A018049569A017794075A017677988
1331A018159762A019168286A020074688A020372338A020247794A020086220A019739240
1324A018868202A017711494A016919128A016838277A017372266A018310253A019508923
1317A020896909A022350497A023498043A023937086A023841884A023791593A023782047
1310A023216923A022109674A021312503A021320704A021835985A022527959A023223265
1303A023489138A023047469A022393357A022121462A021936952A021210446A020252983
1296A020014146A020572992A021098716A021475871A022564989A024445704A025931069
1289A026376262A026513940A026999366A027542516A027897568A028418487A029116868
1282A029283888A028574872A027571538A026810885A026196686A025896986A026589025
1275A028112637A029190480A029182472A028868037A028900775A028785200A028066766
1268A027451414A028063819A030055560A032376343A033883619A034258275A033628765
1261A032147436A030512157A029744329A029939857A030298690A030174466A029456481
1254A028453916A027762902A027659628A027638358A027261844A027034090A027502411
1247A028025572A027453529A025781348A024283618A024073226A025067911A026359157
1240A027097899A026985976A026331480A025798005A025828116A026184257A026310211
1233A026132108A026096167A026399198A026646684A026405925A025734259A024978283
1226A024293356A023638091A023182199A023365683A024326542A025525149A026213087
1219A026087454A025397145A024744059A024770518A025624515A026806144A027787824
1212A028435721A028696148A028502990A028212708A028445843A029252688A030017057
1205A030332132A030413944A030518628A030515232A030336745A030416635A031114568
1198A031861382A031521962A029765983A027730869A027024544A028064396A029697625
1191A030643940A030934863A031373906A031957289A031833898A030703393A029286899
1184A028550527A029084707A030751571A032522605A033358279A033442910A033783676
1177A034666887A035520051A036019636A036232398A036126113A035921423A036279743
1170A037379304A038590083A039365920A039545048A038860184A037173653A035064543
1163A033436888A032699491A032574755A032558546A032578278A033070496A034296907
1156A036002018A037860053A039622823A040704382A040539669A039473358A038377128
1149A037491547A036492185A035536644A035247002A035632038A036038791A036266417
1142A036824750A037976461A039413264A040656589A041097425A040211972A038345672
1135A036634475A035759529A035540872A035988179A037486230A039422169A040126765
1128A038842054A036717120A035481740A035702446A036593409A037092802A036776637
1121A036037830A035522998A035359374A035211702A034906173A034489681A033834929
1114A032668355A030971124A028997706A026874566A024706388A023271122A023699082
1107A025800631A028027109A029442579A030384474A031410359A032485960A033285244
1100A033838004A034496536A035072680A034502174A032202917A029464297A028243652
1093A028621704A029138843A029206368A029558666A030528686A031261919A030748752
1086A028950297A027027683A026350828A027255501A029040950A030834408A032126999
1079A032815706A033020973A032936598A032921351A033437529A034414275A035072808
1072A035047502A035213112A036562657A038611673A040070707A040368997A039802976
1065A038915089A038085693A037326706A036269364A034620824A032486792A029988291
1058A027088930A024472292A024070727A026968999A031485893A035262506A037356048
1051A038129514A038385008A038717318A039361691A040252718A041102615A041504179
1044A041060588A039653959A037632876A035532800A033891307A033636837A035402746
1037A038064103A039938988A040524870A040471759A040647748A041060267A040739041
1030A038928799A036457718A035165511A035329647A035917323A036804762A038463297
1023A040491683A042035989A042848407A043218195A043273420A042705476A041300642
1016A039648642A038959422A039729173A041125871A041956035A041468558A039601297
1009A037296018A036123230A036633578A037720646A038014516A036861460A034704878
1002A033619027A035382822A038566571A040675296A040891518A039965511A038898175
995A038169171A038122787A038831611A039434342A038708028A036164489A032662781
988A030593456A031793088A035268016A039117024A042073852A043211148A042222420
981A040172059A038939690A038978386A039507377A040345613A041224724A040722833
974A037534984A032537789A029089576A029176642A031194970A033075685A034157820
967A034556694A034532605A034503327A034441568A033239693A029963177A026548151
960A026841893A030357374A034493461A038155589A040736223A041911509A042177126
953A042026251A040703036A036740248A030302149A025905763A028177023A034683224
946A041036050A045290787A047009287A046279066A043926378A041866727A041252336
939A040704702A038341252A034892398A033473213A035383527A040167447A045954829
932A049711390A049897245A047125375A043183087A038668115A032497812A026523293
925A026788718A032634720A038792146A042758010A043852062A042475544A040180900
918A037661001A033866833A029130707A026631116A027120451A026919668A023165990
911A016595404A011002461A008180364A005831456A001543213I93915541I81153446
904I65566114I57046262I53670252I46897986I33648991I18660930I08543598
897I01425057H93443422H83987569H73913610H63785130H55859232H55010489
890H60500478H67042811H72518257H77713159H83895442H91083174H98785162
883I07168490I15480512I21130602I21426842I14639393I02965006H93008351
876H86948561H82883652H81278227H85217504H96396534I12600115I29836372
869I45000870I55508043I57801149I48352279I27220310I00526534H78495979
862H68878232H71846207H82167652H94296330I04711888I12099121I16996052
855I20985941I25396806I30171949I34198867I37216622I41522163I49369836
848I57812168I63057298I64757091I64726916I63644333I58668984I47976085
841I34725488I23580733I16108741I14197019I23454011I38848121I51702343
834I61450720I68529861I73177833I76407261I78658404I78881481I76121143
827I71024646I65454511I62499285I67465023I78768149I88141421I93045400
820I95496108I98605989A002759438A005473008A005547709A004131983A002879433
813A001725480A000218013I99907742A001921778A004661871A007453153A010948774
806A013514288A011500957A002564358I86245074I62215986I35432070I24712135
799I33634512I48317492I62358084I74232164I83016543I87880737I87656955
792I80680769I64695780I37422850I03048420H79319416H80027984H96801109
785I16215155I32708954I45950453I56393175I63858569I68315497I70504560
778I72196281I76485229I85286073I95548002A003199121A007197018A008794691
771A010289153A012164487A011563037A004261652I84576481I50376822I20928987
764I16899185I30442883I49088652I66565540I80920375I92953402A003446800
757A011747931A017173854A019729438A019501940A015859609A007289721I93532044
750I77292394I59403562I37609730I12855866H92622803H84043563H86539693
743H95469502I06289059I15263714I20636975I23330620I25408530I26317944
736I23347790I15553419I04524239H92724155H81739885H72425682H66483325
729H66808266H74272955H85322444H95861713I04605923I12102516I19206258
722I26789980I35119365I42980812I48852633I52468378I55055162I58528680
715I63397295I68205560I71653644I73693499I74841493I75248311I74789216
708I74084748I74721626I77387852I80708958I83228088I84832039I85814680
701I85967156I85412859I85611463I88049166I92036044I95744619I98299178
694I99888586A000913190A001396182A001073995I99733163I97211213I93294808
687I88046668I82153961I76592603I72167836I69573108I69159499I70304034
680I71961224I73833482I76294633I79469605I82809931I85592308I87588341
673I89137708I90685473I92331259I93838727I95038871I96004150I96689398
666I96713614I95805354I94179428I92140471I89457460I85455719I79782951
659I73115881I67182686I63933525I64430227I68347658I74401233I81114686
652I87325992I92415890I96299045I99184119A001375105A003213664A004951513
645A006567764A007825504A008511904A008513250A007676999A005705375A002240697
638I97132220I90820780I84650156I80650466I80447313I84008473I89647287
631I95361634A000004417A003383759A005811404A007761630A009612747A011418569
624A012994843A014200945A014979601A015226575A014866269A014058655A013196138
617A012700653A012831155A013549781A014455799A014862617A014066664A011771315
610A008430284A005079644A002641941A001376258A000952206A000867511A000724645
603A000269137I99305331I97598875I94932009I91399871I87734091I85206311
596I84934736I87130207I91044626I95615399A000061308A003983607A007223734
589A009812376A011965819A013962493A015956732A017919387A019736293A021310005
582A022597983A023669868A024727337A025934465A027204569A028264473A028939727
575A029299392A029536499A029752721A029821592A029414070A028179522A025978414
568A023112944A020480417A019298403A020296933A023120183A026665584A029941715
561A032517608A034336628A035335413A035363218A034472960A033039552A031289339
554A028889435A025448590A021384577A017862625A015754925A014908936A014508974
547A013916557A012998943A011839993A010446691A008742413A006646693A004082653
540A000943045I97096728I92512693I87434199I82392734I78073612I75201671
533I74380091I75829580I79271642I84082405I89537991I95022278A000141582
526A004643677A008110724A009493969A006972404I99045352I86635042I73849306
519I65688287I64601091I69302302I76546604I83600118I89314914I93694579
512I97064054I99681205A001762703A003505484A004987325A006154732A006998542
505A007650284A008169088A008369422A008086059A007454755A006652651A005590441
498A004180737A002702419A001584920A000908578A000254786I99018125I96896330
491I94199673I91773502I90642357I91548375I94517952I98792165A003312518
484A007335080A010657211A013444008A015906248A018076413A019902928A021500216
477A023123771A024886669A026629514A028023137A028588069A027416627A023051633
470A014551385A003414831I93725715I89174930I90133354I94304933I99451530
463A004538224A009109702A012907073A015992737A018553510A020577733A021926638
456A022618356A022967194A023444292A024314946A025428537A026470567A027341285
449A028164723A029024293A029860800A030594866A031177352A031488135A031298949
442A030383385A028671291A026448272A024502787A023823690A024894101A027316364
435A030163575A032593654A034258660A035370265A036364886A037441640A038415888
428A038825909A038108693A036129188A033782203A032503962A032785403A033636965
421A033802896A032913342A031161143A028613311A025548148A023034015A022374137
414A023922863A026839202A029986946A032765799A035103431A037050967A038638068
407A039935657A041009527A041847123A042362596A042283091A041168346A039066348
400A037104013A036721156A038218694A040668889A043198911A045650644A048017939
393A050022942A051461282A052518304A053512028A054512351A055349114A055893161
386A056215924A056538752A057164034A058333491A059940068A061502312A062638583
379A063409294A064067762A064764798A065617385A066708938A067902932A068957134
372A069867061A070869242A072060481A073171381A073741823A073048183A069119733
365A058459508A039297305A016355926I99936764I97654613A007856127A022486701
358A034882981A043381306A049292720A053923138A057550863A059937762A061113433
351A061533640A061596617A061344070A060709242A059804441A058974341A058725765
344A059390960A060664011A061723083A061903620A060933152A058501023A053807435
337A045195777A030138141A006660980I75936441I43663241I18595903I08734642
330I16981894I39143785I66594369I91759472A011145072A023291303A025041003
323A012081906I85273965I55616826I38931471I42999840I61135004I79440327
316I88692387I88380578I81994245I71962313I59862786I49107231I44421652
309I48022213I57734008I69441196I80389590I89874656I97950853A004453914
302A009164350A012204271A013505832A012012779A006714795I99156378I93719628
295I94229079A000745658A010260580A019733858A027770718A034168455A039049114
288A042611876A045190716A047127489A048521688A049320717A049705368A050047671
281A050377610A050292466A049551097A048368955A047005508A045496694A043982115
274A042899083A042612004A043086604A044064504A045371382A046979369A048895064
267A050925693A052044986A049141845A036090813A005785585I56385936H97050261
260H45666239H18263191H19212581H40836960H70844410H99699253I23233497
253I41135846I54454609I64391404I72132280I78617594I84333351I89525562
246I94438510I99004799A001992955A000609262I92228689I77822474I62913150
239I53353831I50641222I52507266I56601710I61831719I67236949I71730587
232I74996853I77514125I79691913I81537841I83017055I84265826I85447711
225I86654326I87903737I89057049I89836217I90107728I90056796I89992794
218I90044367I90051670I89756263I89070695I88043528I86830443I86034618
211I86470009I87862927I87627806I83442837I77983023I74261057I72584584
204I72852379I75252475I79355696I83271717I84004565I79587999I71481948
197I64072036I60959400I62203429I65496795I68931169I71812271I73838287
190I74789664I74812856I74290271I73392133I71940338I69582782I65596097
183I58208864I45452406I28796200I15102717I11399907I17029687I24638139
176I29408605I32823631I37407538I42520628I46128748I47529290I47192625
169I45738332I43864472I42342589I41527160I41130464I40721661I40253724
162I39844280I39324642I38436627I37310735I36373004I35840105I35535792
155I35262295I35263769I36157679I38591025I43099142I49522633I56032998
148I59595632I58449943I54182329I50709708I50865708I53861168I56281509
141I55763153I52749498I48869803I45032455I41451498I38427978I36162676
134I34340068I32585243I31047408I30156765I30030171I30256900I30119607
127I29178353I27733093I26407828I25422368I24873004I25352408I27331849
120I30242165I32929148I34655721I35305476I35093802I34374984I33436036
113I32300470I30890126I29442624I28637253I29165860I31059196I33548215
106I35786097I37467055I38894120I40727170I43205619I45706106I47588359
99I48875312I49905106I51093398I52863343I54968417I56325906I56481842
92I56594086I57990656I60245451I61867148I62179853I61413562I59734911
85I57198739I54411493I52229092I50799977I49711691I48814578I48360928
78I48573435I49268036I49800743I49526797I48462152I47226772I46338436
71I45979091I46255663I47295066I49186736I51742512I54409122I57042482
64I60260378I64037120I66968962I68239322I69233944I71304101I73625845
57I75697156I78778784I83318869I87345147I88821415I87536448I83761308
50I77746812I72354139I72254069I78078225I85002518I87203562I82548671
43I73576066I64872281I60631447I62881437I70560169I80833181I90563492
36I97046372I99318081I98352481I96554539I97333323A001155679A004966632
29A005648164A000707475I88703214I70875629I52628414I41441312I40588404
22I46476946I53947336I61623762I70590152I79240890I84170624I87787457
15I94210500A002930878A011689951A019627317A026675193A032426250A036736083
8A040429412A044067899A046892175A048202256A048955221A051843819A058684315
1A066762753
##END=


$$ === CHEMSPECTRA PEAK TABLE EDIT ===
##TITLE=X9266
##JCAMP-DX=5.00
##DATA TYPE=INFRAREDPEAKTABLE
##DATA CLASS=PEAKTABLE
##$CSTHRESHOLD=0.93
##MAXX=3997.453
##MAXY=0.9989732499694378
##MINX=373.96442
##MINY=0.761284530167391
##$CSSOLVENTNAME=- - -
##$CSSOLVENTVALUE=0
##$CSSOLVENTX=0
##NPOINTS=40
##PEAKTABLE= (XY..XY)
405.12812162627006, 0.8750917908759214
430.62569568415756, 0.8937391634342939
441.9579508209831, 0.9046455614852813
473.1216524472243, 0.8801071046101969
484.45390758404983, 0.8823230855823635
528.3663962392493, 0.863972842261264
546.7813108365908, 0.8604707116962853
556.6970340813132, 0.8652687662828441
577.9450124628615, 0.8845083114344288
592.1103313838935, 0.8701365583391503
626.1070967943701, 0.8479357957519303
650.1881389601526, 0.894044279866596
709.6824784284595, 0.8844445943652675
739.4296481626266, 0.761284530167391
790.4247962783688, 0.9249972693508008
811.6727746598904, 0.8786581157879937
825.8380935809223, 0.8735502361850861
841.4199443940574, 0.8454561229087503
883.9159011571796, 0.9281842708809264
1031.2352179359118, 0.9250678413591552
1065.2319833463885, 0.9216603039310634
1106.311408217381, 0.897432386593677
1126.1428547068258, 0.9078789948083372
1174.3049390383344, 0.948320924566955
1218.2174276935334, 0.9166027897099718
1272.0456395934548, 0.9123641848717144
1303.209341219725, 0.8968113056575485
1340.039170414408, 0.9020581838523847
1406.6161693432368, 0.8061469197512805
1427.8641477247847, 0.8224843741088694
1454.7782536747459, 0.8530521388974329
1488.7750190852225, 0.8180891867548574
1505.7734017904609, 0.8603210445935359
1559.6016136903827, 0.8505381346059404
1593.5983791008598, 0.8083750606115109
1610.5967618060981, 0.8199115985756792
1634.6778039718529, 0.7954729793125402
3215.5273955590305, 0.8742219802202593
3320.350755574668, 0.8599116201390248
3416.6749242376854, 0.872293710386906
##END=


$$ === CHEMSPECTRA PEAK TABLE AUTO ===
##TITLE=X9266
##JCAMP-DX=5.00
##DATA TYPE=INFRAREDPEAKTABLE
##DATA CLASS=PEAKTABLE
##$CSTHRESHOLD=0.93
##MAXX=3997.453
##MAXY=0.9989732499694378
##MINX=373.96442
##MINY=0.761284530167391
##NPOINTS=132
##PEAKTABLE= (XY..XY)
3993.2034043236904, 0.9175748820499544
3970.5388940500393, 0.9162377707105025
3959.2066389132133, 0.9166977401075331
3949.290915668491, 0.9132811427720223
3942.208256207975, 0.9143384092200657
3930.8760010711494, 0.9115609521617091
3918.1272140422207, 0.9124829172936589
3901.128831336982, 0.9036032553279851
3891.2131080922595, 0.9103167053384843
3881.297384847537, 0.9072777027642606
3869.9651297107116, 0.9034886360556298
3862.8824702501956, 0.9053882952632955
3851.5502151133696, 0.8995987771791888
3837.3848961923377, 0.9006898401148989
3820.3865134870994, 0.9026665680790712
3800.555066997654, 0.905356645130775
3779.3070886161063, 0.915831505780082
3767.9748334792807, 0.9131205671239364
3749.5599188819388, 0.899743854784783
3733.9780680688036, 0.8976767659202047
3724.0623448240813, 0.9104849099905582
3709.8970259030493, 0.9081789253786601
3701.39783455043, 0.9184311028444881
3688.649047521501, 0.9080375431881683
3674.483728600469, 0.905696510745876
3670.2341329241594, 0.9089817998976245
3648.9861545426115, 0.9001785517105539
3627.738176161063, 0.9104813336623473
3616.4059210242376, 0.9113951320385646
3607.9067296716185, 0.9150617718405147
3596.574474534793, 0.9194762698782797
3586.6587512900705, 0.9149749872683195
3565.410772908522, 0.90989828052
3551.2454539874902, 0.9225136033752894
3545.5793264190775, 0.9198144673465332
3537.0801350664583, 0.9253806463388909
3525.7478799296323, 0.9230580323590316
3510.166029116497, 0.9251461028453096
3501.666837763878, 0.9250911470359722
3496.000710195465, 0.9265272614487625
3488.9180507349492, 0.9269506330250766
3480.41885938233, 0.9267576331796753
3474.7527318139173, 0.9285803436480922
3466.2535404612977, 0.927072703601449
3446.422093971853, 0.9243149154178864
3416.6749242376854, 0.872293710386906
3374.1789674745896, 0.9088558552758124
3357.180584769351, 0.9074198599499136
3320.350755574668, 0.8599116201390248
3224.0265869116497, 0.8750544189904099
3215.5273955590305, 0.8742219802202593
3154.6165241985927, 0.901118457096638
3139.034673385457, 0.9028591511203522
3120.6197587881156, 0.9060699337444944
3103.6213760828773, 0.9072675106010059
3080.9568658092257, 0.9055789105797672
3061.125419319781, 0.9004457585056
3049.7931641829555, 0.9005717031274121
3044.1270366145427, 0.9009170532520875
3029.9617176935103, 0.9018027778239952
3012.963334988272, 0.9057217832171357
2994.5484203909305, 0.9074209326623035
2983.2161652541045, 0.9071153398824354
2959.13512308835, 0.9074701062448379
2953.4689955199374, 0.9067560426359572
2944.969804167318, 0.9074413179191793
2926.5548895699767, 0.902232288887787
2919.4722301094607, 0.9021269676966336
2895.391187943706, 0.9104750750879781
2886.8919965910864, 0.9109289645409768
2874.1432095621576, 0.9136571884733533
2859.9778906411257, 0.9133674500662852
2850.0621673964033, 0.9111639257690448
2820.3149976622362, 0.9193171856074368
2811.815806309617, 0.919792532099335
2797.6504873885847, 0.9205846785640328
2790.5678279280687, 0.92059963885478
2782.0686365754495, 0.9208770387434471
2766.486785762314, 0.9218809003028418
2746.6553392728692, 0.923157393623411
2739.5726798123533, 0.922960161541529
2732.4900203518373, 0.9233948584672999
2723.990828999218, 0.9228830332415767
2708.408978186083, 0.9229959843670844
2688.577531696638, 0.9245166774534778
2681.494872236122, 0.9241304395888922
2672.9956808835027, 0.9252949354094522
2643.248511149335, 0.9273658387760245
2627.6666603362, 0.9286215300355977
1634.6778039718529, 0.7954729793125402
1610.5967618060981, 0.8199115985756792
1593.5983791008598, 0.8083750606115109
1559.6016136903827, 0.8505381346059404
1541.1866990930412, 0.8954769370380669
1505.7734017904609, 0.8603210445935359
1488.7750190852225, 0.8180891867548574
1454.7782536747459, 0.8530521388974329
1427.8641477247847, 0.8224843741088694
1406.6161693432368, 0.8061469197512805
1375.452467716966, 0.9062556618465823
1364.1202125801406, 0.916794955016766
1338.6226385222826, 0.9016733759608636
1303.2093412197028, 0.8968113056575485
1270.6291077013288, 0.9121751781586445
1216.800895801407, 0.9163501254711862
1127.5593865989053, 0.9065304390325369
1106.311408217357, 0.897432386593677
1065.231983346364, 0.9216603039310634
1034.0682817200936, 0.9202950592438562
883.9159011571537, 0.9281842708809264
841.4199443940574, 0.8454561229087503
825.8380935809223, 0.8735502361850861
811.6727746598904, 0.8786581157879937
791.8413281704452, 0.9245232932885216
739.4296481626266, 0.761284530167391
709.6824784284595, 0.8844445943652675
682.7683724784983, 0.9210559723801539
672.852649233776, 0.9173734186619581
662.9369259890536, 0.9048599597565026
650.1881389601249, 0.894044279866596
626.1070967943701, 0.8479357957519303
592.1103313838935, 0.8701365583391503
577.9450124628615, 0.8845083114344288
556.6970340813132, 0.8652687662828441
546.7813108365908, 0.8604707116962853
528.3663962392493, 0.863972842261264
484.45390758404983, 0.8823230855823635
473.1216524472243, 0.8801071046101969
440.54141892885036, 0.9045524597256375
430.625695684128, 0.8937391634342939
419.29344054730245, 0.9271607990598173
405.12812162627006, 0.8750917908759214
##END=

##END=

