##TITLE=X8191
##JCAMP-DX=4.24
##DATA TYPE=INFRARED SPECTRUM
##DATE=31/10/2018
##SAMPLING PROCEDURE=Diamant-ATR
##ORIGIN=ComPlat
##XUNITS=1/CM
##YUNITS=TRANSMITTANCE
##RESOLUTION=4
##FIRSTX=3997.453
##LASTX=373.96442
##DELTAX=-1.4165319
##MAXY=0.92849892
##MINY=0.37204245
##XFACTOR=1
##YFACTOR=8.6473201e-010
##NPOINTS=2559
##FIRSTY=0.8516655
##XYDATA=(X++(Y..Y))
3997+984889524+985837359+986415118+986286773+985847974+985429027+985007047
3988+984761524+985095965+985918488+986617423+986927532+987184911+987633566
3978+988085944+988313270+988291419+988102624+987894598+987830701+987894047
3968+987889911+987750675+987634393+987661068+987766047+987881640+988058096
3958+988268466+988256955+987808300+987243569+987391972+988682588+990274146
3948+990685305+989548123+987856687+986503208+985506778+984601955+984016614
3938+984268203+985391668+986784298+987910590+988759857+989371390+989556119
3928+989441904+989455001+989582380+989328172+988589121+987869853+987474893
3918+987066147+986142299+984858920+983969260+983968778+984738226+985913663
3908+987370190+989259795+991577790+993715262+994743054+994341201+992837182
3898+990632505+988344081+986851779+986687385+987462348+988101659+988360692
3888+989211270+990942890+992304434+992188152+991434281+991058070+990756852
3878+990359687+990604245+991668983+992668307+992951328+993026942+993487660
3869+994203965+995126710+996332200+997000323+995816132+993113585+990873341
3859+990581705+992459179+995866933+999208929+999770903+997405554+995017941
3849+993793565+993614006+994251043+995309508+996238112+996826279+997262114
3839+997510601+997322840+996946490+996757764+996435868+995493685+994339960
3829+993987254+994700318+995846047+997160030+999091406+1001192759+1001490185
3819+999632288+997606549+996338059+995320192+994245597+993438997+993321198
3809+994167226+995765677+997306503+998358903+999162058+999447766+998733736
3799+997984622+998347737+999209618+999090923+997603240+995637539+994130556
3789+993591466+994114564+995178062+995804897+995648567+995535800+996186761
3779+997022587+996886453+995753270+994730992+994874914+996495560+998758550
3769+999993748+999461759+998160803+997278587+997255290+998076503+999391520
3759+1000310957+1000071569+999298674+999303981+1000623617+1002784524+1004390281
3750+1004293299+1003432107+1003081881+1002856899+1001382726+998882622+997032168
3740+996518651+997471105+999929921+1002520872+1002432851+999520899+996776237
3730+995973703+996686561+997860275+998687278+998746350+998108073+997303677
3720+996954899+997335936+998341326+999796062+1001604744+1003447822+1004310393
3710+1003261853+1000942066+998729118+997504880+997511566+998271915+998636823
3700+997859241+996556355+995824817+996289119+998173761+1001562560+1005978048
3690+1009332590+1008729948+1004675369+1000582191+998134541+997196631+997442086
3680+998849260+1001401750+1004594172+1006975512+1007306162+1006891419
3672+1007220622+1007407762+1005978944+1003732910+1002137148+1001120522
3663+1000081632+999007106+998330987+998358903+999199693+1000748377+1002548513
3653+1004371670+1006659889+1009614714+1011282093+1009021515+1004774695
3645+1001972478+1001193448+1001164843+1000879617+1000505749+1000467769
3636+1000478729+1000068605+999474786+999434463+1000200741+1000895884+1000348316
3626+999116841+998513165+999088580+1001037256+1004141449+1007167960+1008688040
3616+1008860154+1008499244+1007690162+1006569937+1005898091+1006062486
3608+1006347022+1005733628+1004252149+1002885780+1002390942+1002613650
3599+1002914799+1003086637+1003169972+1002778458+1001691525+1000742794
3591+1001100326+1003002889+1005259055+1006044426+1005265879+1004296056
3582+1003603394+1002912800+1002395354+1002483927+1002940509+1003180931
3574+1003299282+1003919431+1005380025+1007652114+1010347561+1012111923
3565+1011482399+1009181567+1007138872+1006244250+1006131897+1006216058
3557+1006512795+1007263840+1008192375+1008621386+1008343397+1007977180
3548+1008190307+1008822036+1008946383+1008094152+1007140665+1007307196
3540+1008743665+1010402911+1011103086+1010667665+1009908211+1009612301
3531+1009936747+1010550969+1011003829+1011151405+1011279819+1011625150
3523+1012035688+1012268115+1012295273+1012265220+1012449190+1013038666
3514+1013730018+1013920054+1013546393+1013279433+1013671705+1014574806
3506+1015550281+1016292572+1016552018+1016226814+1015638234+1015293592
3497+1015353973+1015564756+1015718191+1015950618+1016432772+1017066707
3489+1017679412+1018297080+1019071905+1020012985+1020832614+1021107707
3480+1020720329+1020030217+1019514839+1019471897+1019943643+1020591502
3472+1020913742+1020807455+1020488316+1019915934+1018950591+1017921627
3463+1017303063+1016990403+1016523827+1015848190+1015385749+1015457090
3455+1015855841+1016080617+1016052770+1016262381+1016793268+1016537130
3446+1013975955+1008452304+999790340+986786160+966293315+933041675+881243730
3437+809640640+726872036+650342009+597610290+577067197+584951441+610185461
3427+641653163+672170549+698602476+720316871+737776656+751956481+764152269
3417+775584054+786921614+798130346+808768627+818555296+827712442+836736073
3407+845839524+854676634+862676196+869609572+875666384+880983457+885454019
3397+889173812+892709359+896559634+900560173+904158376+907147321+909779837
3387+912245614+914441055+916348167+918366944+920996840+924180301+927210052
3377+929471663+931120088+932739148+934557826+936326323+937802495+939057751
3367+940355260+941774084+943008386+943852828+944834576+946654839+948939128
3357+950460931+950833351+951004776+951777533+952875150+953783903+954558728
3347+955481680+956603421+957801467+958904943+959827619+960733890+961770988
3337+962669815+963116471+963413208+964216776+965721416+967510661+969089605
3327+970317565+971377065+972446352+973448089+974136960+974373798+974327547
3318+974415224+974935014+975791657+976724259+977579179+978119371+977954011
3308+977042708+975973145+975421925+975494713+975658832+975292753+974344848
3298+973355656+972797129+972688498+972862197+973156384+973318986+973143425
3288+972702835+972159472+971469567+970592245+969840856+969576722+969487460
3278+968515500+965725276+960993682+954595880+946315297+935224502+920121104
3268+899804993+873138157+839598603+800354461+758860700+720420539+691029031
3258+675560037+675718779+689236822+711053989+735588936+758672525+778236490
3248+793894623+806170437+815955314+824351766+832646065+841872070+852021855
3238+861953205+870588149+878024427+884995024+891646827+897492167+902210389
3228+905943899+909056088+911946120+914857383+917677177+920167080+922434619
3218+924842566+927401535+929663905+931385600+932893961+934523154+936082316
3208+937235283+938108330+939112136+940304460+941281866+941776565+942148710
3199+943073247+944788394+946842669+948527694+949412942+949600221+949564240
3189+949582851+949455747+949095596+949065129+949982912+951657322+953301679
3179+954394264+954954859+955181910+955224714+955256421+955446250+955821635
3169+956330396+956968191+957717098+958517358+959388682+960349063+961240721
3159+961876242+962197724+962120662+961619759+961075638+960968523+961119338
3149+960667443+958722282+954837750+949377168+943780522+939957750+939034453
3139+940827903+944355523+948419821+951929107+954279636+955610369+956510988
3129+957444693+958518116+959631931+960638631+961312338+961255127+959847126
3119+956407182+950828457+944368068+939389228+937709441+939244754+942449583
3109+945799161+948656384+951027798+952961242+954328024+955046190+955278341
3099+955273240+955193765+955242636+955710040+956658978+957793609+958826019
3089+959749868+960671579+961617553+962545399+963312090+963627852+963244678
3080+962204686+960757740+959072301+957214610+955373531+953852349+952809116
3070+952243145+952213575+952814700+954036043+955831836+958067875+960248358
3060+961730389+962323105+962257278+961692823+960825289+960198592+960260972
3050+960795719+961247132+961449092+961720394+962306976+962976753+963327461
3040+963400250+963673827+964451960+965625123+966970537+968259637+969184657
3030+969573000+969589267+969534331+969612565+969883247+970263181+970673719
3020+971181859+971731908+971925804+971545939+971067852+971158906+971905815
3010+972937743+973963536+974816250+975293028+975279863+974896276+974423703
3000+974122347+974017300+973887370+973618618+973401562+973422861+973635092
2990+973956161+974371868+974814803+975220653+975585836+975789106+975597899
2980+974960655+974103737+973407008+973282730+973875721+974743737+975140145
2970+974687216+973514123+971736527+969104907+965424679+961323849+958272386
2961+957543261+959240211+962360671+965565017+967945255+969414396+970410481
2951+971207501+971764512+972151062+972585450+972995022+972981099+972305186
2941+971103212+969600847+967829524+965589418+962451932+957842066+951474937
2931+943881296+936337972+930217883+926388356+924939755+925339264+927018982
2921+929751927+933257352+936794623+939650743+941838394+943938368+946380159
2911+949057892+951514709+953452633+955094577+956929039+959109867+961334326
2901+963243575+964662192+965544545+966022771+966462259+967182217+968141080
2891+969050591+969684182+969925707+969702103+969025846+967899555+966086874
2881+963210903+959209331+954576166+950184941+946918973+945294122+945326725
2871+946774085+949318717+952428011+955386558+957764590+959683696+961516435
2861+963496956+965590383+967530374+969030533+970095616+971063440+972230537
2851+973477453+974381518+974725885+974753663+974820455+974969754+975004563
2842+974814389+974526682+974428734+974736638+975343139+975896152+976192889
2832+976317236+976372103+976347289+976316547+976510512+977037332+977691601
2822+978184439+978440715+978542178+978571335+978685894+979109115+979859056
2812+980717284+981556626+982434568+983320712+983999313+984289709+984201342
2802+983848980+983332223+982780658+982450146+982582489+983118614+983715948
2792+984076858+984171496+984205478+984431288+984883114+985314813+985515946
2782+985552616+985559784+985499886+985298201+985035377+984845341+984738226
2772+984679844+984756906+985072529+985566333+986176005+987012245+988039555
2762+988790599+988819756+988282390+987730204+987496536+987487920+987416855
2752+987120256+986728535+986490870+986448134+986453028+986498108+986727984
2742+987080898+987229301+987031062+986807527+986982881+987597861+988348630
2732+988950858+989262139+989197139+988801283+988328503+988007020+987802441
2723+987614197+987551610+987778178+988198642+988531980+988598496+988423210
2713+988170588+988055615+988203673+988561963+988959336+989207754+989181424
2703+988899644+988471529+987925685+987248325+986615424+986340261+986505621
2693+986864462+987222959+987703804+988451333+989279509+989893868+990336733
2683+990895192+991597435+992119223+992206418+991926362+991451789+990847700
2673+990174476+989582932+989188316+988991526+988950237+988975190+988923217
2663+988771713+988642541+988522467+988242618+987856067+987710214+988060922
2653+988861733+989846101+990623889+990916491+990872514+990927726+991289876
2643+991753558+991959654+991674221+990894020+989779309+988466980+987039678
2633+985706051+984784822+984382073+984309353+984458652+985020281+986091636
2623+987296437+988154872+988733182+989494772+990548068+991522234+992180639
2614+992636049+992950432+993070919+993160870+993470979+993905780+994181218
2604+994302394+994466582+994627530+994534201+994169156+993894545+994046463
2594+994531444+995038275+995507057+995991486+996206957+995766159+994811086
2584+993961061+993726635+994198175+995103136+996049042+996819593+997355925
2574+997561470+997492059+997485786+997608341+997430230+996940976+996980541
2564+997999372+999080102+999007451+997780731+996324686+995288761+994854511
2554+995119266+995911323+996643274+996843442+996481154+995647258+994493740
2544+993507994+993174863+993338361+993380614+992976969+992379635+992104611
2534+992548510+993766682+995466320+997189670+998490212+999032817+998754690
2524+997960221+997040784+996093225+995088592+994383799+994586862+995743757
2514+997104819+997928652+998171900+998260335+998504894+998841954+998965267
2504+998667082+997988757+996967789+995527942+993858357+992571118+992228061
2495+992916519+994279097+995681101+996519409+996759556+997033960+997947125
2485+999458519+1001038083+1002098479+1002223033+1001415674+1000297309+999684053
2475+999781035+1000027110+999867196+999482161+999552331+1000301307+1000979494
2465+1000587016+999092647+997507154+996681529+996578757+996889073+997657143
2455+998881794+1000093281+1000837502+1001230738+1001666711+1002275763
2446+1002931686+1003503999+1003885036+1003977744+1003828101+1003660742
2438+1003655297+1003756346+1003829341+1003951896+1004349131+1005020563
2429+1005658289+1006007825+1006110736+1006101982+1005950684+1005538560
2421+1004955081+1004546956+1004511388+1004569013+1004318389+1003809076
2412+1003445134+1003485044+1003931011+1004666271+1005428344+1005908568
2404+1006001139+1005741003+1005121612+1004273310+1003547631+1003071611
2395+1002497850+1001529405+1000462738+999945981+1000300480+1001122107
2387+1001432216+1000360379+997852141+994537716+990835844+986529746+981343913
2377+975513324+969502073+963439401+957086334+950285301+943332625+936710323
2367+930485601+924592218+919808583+917348250+917210118+918200275+919875099
2357+923152854+928721446+936042338+943910659+950911930+955615470+957074409
2347+955183495+950851686+945911101+942117554+940112977+939644884+940223745
2337+941616582+943856550+946616653+949143915+951131398+952899895+954523091
2327+955669716+956407182+957320829+958864757+961218595+964650819+969201476
2317+973922524+977280443+978608143+978739451+979064449+980288343+982279065
2308+984744361+987571393+990538280+993199263+995356242+997365093+999643868
2298+1002088898+1004204795+1005593496+1006220676+1006474747+1006910581
2289+1007660109+1008322581+1008641444+1008839889+1009066181+1009177225
2281+1009301847+1009839076+1010626997+1010863697+1010117960+1008823691
2272+1007671207+1006991848+1006724612+1006639830+1006692630+1007253707
2264+1008574376+1010004711+1010496447+1010074535+1009928063+1010740178
2255+1011880254+1012623648+1013046868+1013305833+1013398266+1014039232
2247+1016143480+1018899791+1020108520+1019179502+1018003376+1018028328
2238+1018346502+1017701056+1016674298+1016600544+1017625786+1018920883
2230+1019739270+1019622161+1018584236+1017390671+1016910240+1017355311
2221+1018392064+1019256633+1018942595+1017375507+1015958476+1015971779
2213+1017138117+1018359529+1019111194+1019743130+1020752243+1021788100
2204+1021745847+1020393264+1019022139+1018667088+1018778132+1018307764
2196+1017021559+1015289249+1013468366+1011898589+1011051941+1011149819
2187+1011618740+1011622944+1011426705+1012269562+1014477341+1016892525
2179+1018463405+1019163166+1019129598+1018052109+1015980808+1014158478
2170+1014200042+1016413197+1019457767+1021706420+1022583603+1022989661
2162+1024391114+1026406376+1026263211+1023058589+1019955430+1019678062
2153+1021844070+1024718111+1026647350+1026621777+1025064752+1023272130
2145+1021816154+1020658914+1019911798+1019201146+1017733314+1016051046
2136+1016057043+1018420807+1021552365+1023718510+1024678477+1024937924
2128+1024708461+1023900964+1022483175+1020652986+1018234355+1013032049
2119+1000897125+980372504+957339026+941790075+939118063+946540073+957941047
2109+969430387+979759799+988442579+995157107+999988165+1003416873+1005986113
2099+1007883713+1009008695+1009559571+1010147186+1011169119+1012512259
2091+1013907302+1015128163+1015867145+1015900920+1015440478+1014940816
2082+1014612578+1014605823+1015431380+1017318572+1019353547+1020339568
2074+1020337087+1020209914+1020086601+1019567570+1019029997+1019517528
2065+1021458002+1024077352+1025972333+1026109639+1024621956+1022879306
2057+1022417348+1023277299+1023397442+1020254924+1013580995+1006262516
2048+1002266595+1003468777+1008579891+1015011192+1021051806+1025951861
2040+1028681911+1028106772+1024969975+1022253987+1022132673+1023718441
2031+1025316272+1027044584+1029158344+1030251136+1029750578+1029872030
2023+1032432515+1035697105+1036776318+1035450685+1033575349+1032407770
2014+1032255576+1033021647+1033814186+1033707347+1033399375+1034249676
2006+1035798843+1036356888+1035658436+1035110455+1035867427+1037506546
1997+1038289091+1036976003+1034614652+1033796402+1035799050+1039141598
1989+1041305469+1040864602+1037985461+1034146077+1031247979+1030468192
1980+1032059199+1035826277+1040822211+1044882718+1046088070+1044573298
1972+1041690503+1038184595+1034455772+1031813055+1031593104+1033064520
1963+1034048336+1033638074+1033025093+1033590237+1034893261+1034936548
1955+1032267156+1027816032+1024554750+1024956121+1028686874+1033032675
1946+1035667052+1036448563+1036306157+1035654714+1034822678+1034677929
1938+1035608532+1036803338+1037215599+1036647835+1035534227+1034394081
1929+1033806259+1034175440+1035239558+1036262456+1036692845+1036364884
1921+1035291599+1033748980+1032556517+1032549142+1033458929+1034247057
1912+1034533110+1034845218+1035454201+1035757279+1035405606+1035071855
1904+1035315379+1035587646+1035007751+1033493255+1031569462+1029606173
1895+1027741865+1026259144+1025623900+1026049947+1027154663+1028447209
1887+1030191444+1032791357+1035457716+1036652729+1035886796+1034017663
1878+1031819327+1029070598+1024914074+1018929016+1012060640+1006353433
1870+1003577890+1003780471+1005472044+1007831121+1011178218+1015479009
1861+1019762361+1022904879+1024606309+1025504102+1026474201+1027878481
1853+1029484790+1031024720+1032593601+1034481965+1036836699+1039333770
1844+1040917057+1040712546+1039481897+1038597959+1038488707+1038620292
1836+1038310596+1037647435+1037386128+1037929766+1038835486+1039631955
1827+1040601916+1041809543+1042401225+1041778525+1040556561+1039710120
1819+1039708603+1040414500+1041317393+1042130129+1042971608+1043673988
1810+1043521381+1042345255+1041132665+1040886039+1041678441+1042943416
1802+1044072188+1044731144+1045028088+1045388584+1046178711+1047478495
1793+1048843899+1049204532+1048094095+1046630468+1045913198+1045870532
1785+1045879699+1045865500+1046189464+1046560988+1046301197+1045664160
1776+1045672431+1046851522+1048644075+1049631199+1048977206+1047442307
1768+1046032031+1045184831+1045119211+1045836067+1046745234+1047024877
1759+1046693262+1046243297+1045738465+1045274852+1045395477+1046358269
1751+1047362006+1046952295+1044723907+1041400935+1037483455+1033356225
1742+1029906218+1028167360+1028400338+1030060066+1032897024+1036958633
1734+1040831586+1042121720+1041309811+1040082885+1038933916+1037863802
1725+1036688641+1034948128+1032525431+1029932687+1027361379+1023686045
1717+1017055679+1008235317+1000693441+996848405+997380533+1001655820+1008377241
1707+1016306840+1023951489+1029946197+1034669933+1039472799+1044002639
1698+1046161823+1045528991+1043068107+1040103563+1038041706+1037274601
1690+1037340497+1037829338+1039085352+1041826637+1045406299+1047201540
1681+1046795345+1045881147+1045368250+1045489357+1046064427+1046574774
1673+1046858690+1047113725+1046767429+1044637333+1041083312+1037454160
1664+1033844583+1029315088+1023687079+1018567831+1015687656+1015752862
1656+1019198665+1027015496+1037792875+1044756441+1047728567+1050838550
1647+1054653878+1056694919+1055961107+1054497480+1053745401+1054161247
1639+1055902517+1058243397+1058191356+1052506137+1043185010+1032698027
1630+1019090378+998406602+969894551+938708904+911002490+890538113+878979499
1621+874097710+870984625+865885436+860046575+859830622+868103002+883098388
1611+902463701+923478885+943256804+960115188+974022677+985714873+995644432
1601+1003799771+1010308823+1015587847+1019677304+1021668440+1019666758
1592+1010859148+991829724+960461830+918936224+874330275+835232054+807622415
1582+793563146+792148252+801347444+820585997+849660090+880833330+904033960
1572+920774271+937274365+955319146+971098318+982282512+990489824+997061670
1562+1002619371+1008755589+1017353105+1025246861+1027508197+1027484417
1554+1028282333+1030341501+1033191693+1036053258+1038505319+1041163959
1545+1044991763+1049983562+1055133414+1059446336+1061530595+1061001293
1537+1060059248+1060239496+1061577535+1063126220+1064225836+1065488743
1528+1067503935+1069807180+1071542454+1072766554+1073741823+1073630779
1520+1071634956+1067672672+1060950562+1051364888+1041126599+1032348147
1511+1025332195+1018015852+1000857973+954890273+891355535+855346412+853820888
1502+875837671+912677589+953394870+985178334+1001365287+1006093572+1006154712
1492+1003229250+993028528+967847100+924162380+866674598+804355206+746858946
1482+701287033+667725284+638982668+609035182+581636740+569815027+585298703
1472+622912756+663730397+699129779+732133277+765445643+794515738+810233908
1462+810370455+799257051+780661600+759174256+743138877+731848809+716051647
1452+692865905+668003203+652521803+655897505+677844326+709616348+743435338
1442+775129402+802453125+826208698+850031408+875103376+896882702+913104946
1432+926625056+939515643+950775244+958538450+961994454+960207001+952151953
1422+938089030+917713709+889145275+854876458+822576927+795584956+774611129
1412+763264884+765485345+780487762+803284678+829253406+855367091+878566894
1402+897215006+912634509+926404692+938022790+946329635+951410903+954084982
1392+955326935+956136086+957103428+958214073+959039904+959418666+959810938
1383+960692326+962100535+963801965+965481338+966374858+964495868+957128794
1373+944026390+928894388+916215204+908757076+906974035+909549616+915349601
1363+924350693+936456598+950512972+964991463+978605937+990345005+999518831
1353+1005602319+1007584012+1003111589+988448783+960754913+922656569+884574905
1343+859742118+855867718+870862208+894503084+916545854+933783001+947368869
1333+957026091+958199735+942046696+900658051+837698728+773568586+734002203
1323+730535722+754389035+788563421+821246332+848841013+872164956+892524355
1313+910163492+924760334+936399525+945575075+952764933+958349448+962499700
1303+965075487+965883122+964939353+962429875+958390805+952246040+942480463
1293+926217275+898828207+855997579+799476174+741288906+699382609+687059303
1283+706266701+748586086+800093015+847077479+880234756+894233298+884599512
1273+849239558+795160770+739030258+696271316+672729559+669350962+687587640
1264+725052463+771688493+815598196+850549681+876276608+894183808+904202077
1254+904241986+891977063+868308547+839836337+816873235+807175414+810980748
1244+822365179+834793187+844790570+851699270+856046588+858594252+860144453
1234+861542185+863441991+865933961+868310063+868963091+865403488+854469504
1224+832910544+798641106+751932563+695578861+635552719+583061836+553233838
1214+556623912+590680637+641671705+695374625+744565076+787713739+824649537
1204+855021966+878979568+897525735+912095626+923979513+933944776+942253412
1194+949017500+954459608+958854832+962361567+964940249+966430827+966819929
1184+966499756+966204329+966723153+968763918+972892457+979172873+986737220
1174+994057492+999862784+1003590573+1004923719+1003243036+997552096+986596744
1164+968982973+943117568+906558189+855570774+787155557+703645145+615379013
1154+537370367+482642515+458049771+463594135+493164479+537060878+586247572
1145+635018041+680613114+722093640+759754978+794464110+826854282+856674112
1135+882380843+899951328+899802098+867836663+798885871+710737331+634300771
1125+586933065+565319685+563571970+582998491+621535221+667478658+708836836
1115+741562759+767113918+787526047+804049026+817654677+829462673+840527414
1105+851356213+862096921+872963355+884039813+895056925+905471808+914196497
1095+919050025+916713557+903861639+879547608+847348436+815253416+793055419
1085+788299562+802390883+829742247+861489523+890621999+914228479+932351908
1075+945759045+954690519+958443742+954091324+936192533+902652703+863398359
1065+838186259+840527207+865828156+898071028+924747445+942763345+954162940
1055+961391675+966302827+970418752+974747597+979560596+984433907+988553761
1045+991177385+991872322+990333080+986056965+978169275+965263455+944797906
1035+912088664+860569811+785810831+692347839+596531146+519462581+474545868
1026+460712788+465556735+473945467+476730866+475127555+477113143+488531590
1016+508118198+530552791+551655859+569920557+585373904+598676407+610720345
1006+622163572+633224040+643910915+654251080+664286994+674045196+683544848
996+692727842+701458044+709765578+718005837+726581158+735578459+744831070
986+754249731+763914673+773831824+783717681+793114215+801724345+809599559
976+816993170+824093077+830948150+837570866+843989897+850257976+856535359
966+863056060+869891558+876890209+883896166+890826854+897589012+904169612
956+910698515+917199503+923419814+929106412+934369513+939532806+944167418
946+945487673+937047108+910047279+859797399+794683372+737395206+711654563
936+724509307+762608134+805664571+841311613+867980103+888655952+905382959
926+918313731+926790277+929514744+923074758+901377871+860742477+809161932
916+767558507+755734932+776269134+814827438+854730536+887852867+913560700
907+933044846+946497406+952417189+946674346+922970124+877025447+812385578
897+742558361+686722932+660798456+668826623+701296752+742998401+783054589
887+817729188+846865799+870867929+890250681+905726568+918124798+928291677
877+936846526+944182858+950697286+956618034+961782292+965917931+968913010
867+970659313+970464865+966030146+953935890+933915895+912569992+898437245
857+891616774+882953363+867047363+852025853+851507028+869273407+896443007
847+921866580+940443696+952179110+958275557+959680388+956716188+947749974
837+927389335+886651926+818555572+727774517+634450208+565008784+537436125
827+553560490+601352899+662950678+723636810+776675950+821355859+858043307
817+885544453+900698305+898204129+872974107+826429821+769299846+713921068
807+665046379+623476660+596435543+595071862+619997151+656364426+684590699
798+691691020+675041350+642786692+611670249+599194060+613527526+649679400
788+695111801+738769640+775636164+805536709+830311872+852013859+871937837
778+890388952+907201706+922172278+935039360+945485261+953165270+957422360
768+956818685+948326768+925685768+879717379+806619989+720961283+654176568
758+629375833+639123144+657235544+670394263+688065796+722586409+771466268
748+821951470+863170137+888421113+892797174+878039384+858576538+853560476
738+869331514+894489230+913062555+917116582+905610147+876542534+825084889
728+750481136+662978801+579975220+513748757+466412413+437464287+430240171
718+447482073+484928493+532939129+582221667+627187906+666017512+698527551
708+724122963+741835784+751128306+751396713+741206123+719037007+684988692
698+641914195+595384453+552494650+519746291+501060130+497053801+505439707
688+522223063+543428317+566326420+589627410+612945011+635962085+658004303
679+678302425+696438674+712586131+726959300+738778669+747015276+753145842
669+762651490+778394750+793311075+801921204+805054485+804462390+800247346
659+790693999+773378688+746451785+709287008+663094532+611678175+561150237
649+518250543+487894002+471393011+466725934+469974153+477116279+485821771
639+495955599+508845324+526147504+548136338+572694514+596886059+619158223
629+639410300+657872167+674607101+689538384+702402640+712903339+721382436
619+729081193+736692687+742217786+741202125+730112983+709570373+683987989
609+657570812+631505653+607111872+590487361+589821168+607240285+636049142
599+666489741+692328815+711934895+725394693+731890097+729176590+715300189
589+691047090+660915772+632723068+615579319+615232127+630645288+655512539
579+682549107+707068752+727653202+744770482+759617810+773205195+785354043
569+794976800+801953877+807937763+814422621+821029207+826664867+831438232
560+836137498+840463586+843471211+845572012+848515878+853077494+857785928
550+860582838+861407912+862051842+863474387+865034376+866552594+868902572
540+872075556+874731990+876074785+876493112+876373245+875810996+875368751
530+875897846+877461212+878915396+878751415+876309418+871583545+864033604
520+852647243+837106426+818284131+797172172+773413152+745629124+713385218
510+678060693+642082863+608881886+582284806+563233324+548281053+533353079
500+518457570+507007174+502107567+505150379+515987587+533204986+554449254
490+577291628+600268585+622163572+639442007+644773555+630571397+596859315
480+555016983+522461245+512020238+524430048+551668197+584506439+615328282
470+640469179+661504284+680949553+698881223+714429760+727369079+737532374
460+744896621+749533990+749335201+739834653+718802168+688801746+657177093
450+633524016+623275940+625905974+638470254+657758367+680434933+702985775
441+723421202+742869435+763182308+783366008+799317914+805911197+796699805
431+763520402+702451648+621519091+541381486+488576600+478602583+503222795
421+545817343+596935412+645713532+680731808+702824965+717005134+726104518
411+732612674+738559753+743952853+748584156+754313696+763359867+775023390
401+785025185+788212023+785565239+786698768+794289445+800438829+801850070
391+802973880+807033973+811059671+811372882+810120934+811908938+814795455
381+812048587+800039802+777960707+744193413+702585507+672532561
##END=
