##TITLE=JPK-670
##JCAMP-DX=4.24
##DATA TYPE=INFRARED SPECTRUM
##DATE=22/3/2021
##SAMPLING PROCEDURE=Diamant-ATR
##ORIGIN=Angelika Moesle
##XUNITS=1/CM
##YUNITS=TRANSMITTANCE
##RESOLUTION=4
##FIRSTX=3997.453
##LASTX=373.96442
##DELTAX=-1.4165319
##MAXY=0.92988789
##MINY=0.26580471
##XFACTOR=1
##YFACTOR=8.6602559e-010
##NPOINTS=2559
##FIRSTY=0.92910397
##XYDATA=(X++(Y..Y))
3997+1072836630+1072534555+1072165650+1071908793+1071647463+1071202506
3989+1070693404+1070490231+1070846403+1071650423+1072480733+1072899949
3980+1072741169+1072107355+1071161624+1070082784+1069239809+1069120741
3972+1069833705+1070821144+1071327837+1071134231+1070653279+1070364693
3963+1070379078+1070520583+1070641854+1070794646+1071093693+1071442294
3955+1071561638+1071393566+1071234235+1071307947+1071440849+1071356744
3946+1071071738+1070788245+1070644469+1070709922+1070953495+1071156049
3938+1071055082+1070638688+1070221192+1070134334+1070352236+1070574955
3929+1070690926+1070840002+1071079859+1071339125+1071565836+1071652763
3921+1071418274+1070949159+1070727060+1071055908+1071579808+1071805211
3912+1071720349+1071568038+1071406298+1071135745+1070799120+1070655550
3904+1070935326+1071529978+1072023181+1072114513+1071915607+1071735147
3895+1071652694+1071551864+1071456197+1071489508+1071416140+1070832225
3887+1069878992+1069182615+1069029066+1069055701+1069045790+1069129344
3878+1069253712+1069311044+1069542848+1070137844+1070765189+1071018811
3870+1070952807+1070726991+1070336131+1069966469+1069989388+1070465660
3861+1071065406+1071519379+1071697155+1071579395+1071513047+1072136055
3853+1073291704+1073741823+1073385100+1073014131+1072879233+1072718663
3844+1072278249+1071586552+1070806966+1069977963+1069091835+1068400895
3836+1068292908+1068760164+1069430456+1069980578+1070282997+1070359600
3827+1070362353+1070438199+1070492365+1070315965+1069980991+1069716426
3819+1069393084+1068957281+1068986807+1069827854+1070653347+1070527397
3810+1069512152+1068431316+1068243147+1069127417+1070128209+1070459741
3802+1070323054+1070237160+1070197447+1069892550+1069331347+1068830229
3793+1068685626+1068871249+1069053292+1068987013+1068836079+1068867532
3785+1069009175+1069071875+1069160798+1069422816+1069610916+1069348760
3776+1068758306+1068283685+1068086500+1068045067+1068180378+1068644469
3768+1069232651+1069534382+1069576022+1069646430+1069729640+1069663086
3759+1069575334+1069656272+1069700803+1069480974+1069324740+1069970254
3751+1071643815+1073135539+1073229073+1072337920+1071583662+1071634661
3742+1072036809+1072003910+1071414970+1070607716+1070133233+1070457745
3734+1071443946+1072486102+1073091973+1072918601+1071789656+1070043622
3725+1068655756+1068448454+1069124458+1069751458+1069995651+1070224978
3717+1070573854+1070683562+1070403993+1070134885+1070206808+1070349965
3708+1070352787+1070356641+1070328491+1070156152+1069986979+1070011068
3700+1070099371+1070070877+1069999781+1069992829+1070053877+1070160763
3691+1070160075+1069656341+1068534348+1067511601+1067303060+1067872247
3683+1068789346+1069542642+1069717802+1069405128+1069287712+1069824964
3674+1070279900+1069808377+1068793063+1067857862+1067161623+1066669315
3666+1066428288+1066385065+1066338814+1066163034+1065957659+1065954424
3657+1066225321+1066337920+1065672928+1064375498+1063328318+1063322399
3649+1064191321+1064821143+1064760026+1064343838+1063751044+1063116405
3640+1062762228+1062781224+1062771658+1062477635+1062251130+1062377700
3632+1062447765+1061994480+1061412423+1061547045+1062198892+1062517072
3623+1062143831+1061181376+1059974245+1058923280+1058139839+1057476705
3615+1057039250+1057137189+1057702178+1058200818+1058300134+1058094827
3606+1057583660+1056543294+1055074695+1053751456+1053084331+1052977169
3598+1052875445+1052328764+1051226455+1049788759+1048480731+1047734387
3589+1047698460+1048059312+1048054288+1047250888+1046026000+1044825202
3581+1043596254+1041990692+1039897502+1037665216+1035748013+1034286435
3572+1033149093+1032165370+1031110413+1029652069+1027673818+1025518272
3564+1023435337+1021284816+1019026651+1016849563+1014812534+1012778878
3555+1010678049+1008445212+1005860677+1002864978+999814425+997064571+994662424
3546+992612525+990905515+989131056+986726086+983725845+980745563+978202667
3536+975967972+973784070+971602715+969486193+967472359+965519022+963458662
3526+961122312+958585060+956177062+954170592+952497100+950882247+949182945
3516+947431268+945628797+943800998+942177335+940955958+939910843+938634199
3506+937109232+935632030+934307621+933006200+931712487+930552158+929588669
3496+928853544+928367361+927968380+927418120+926750443+926207686+925915040
3486+925883242+926039063+925979460+925221278+924038237+923432917+923932246
3476+925037033+926014699+926617335+926820439+926506457+925840089+925447164
3466+925785648+926648582+927534159+928225718+928868686+929641665+930477344
3456+931208684+931921923+932807156+933725839+934441693+935162227+936254970
3446+937573804+938656429+939391348+939978292+940479479+940763315+940810805
3437+940927395+941573736+942880044+944375278+945398988+945839059+946279473
3427+947292447+948803579+950378169+951847043+953249982+954428894+955160234
3417+955505807+955732174+956074030+956655812+957432577+958274794+959233671
3407+960490287+961940303+963157482+963923510+964515271+965363477+966648380
3397+968232881+969723297+970645077+970902759+971043852+971714419+972933387
3387+974234877+975368640+976491803+977772233+979094026+980170113+980871858
3377+981408215+982060543+982785826+983331200+983691776+984156211+984919623
3367+985904310+986953623+988003212+989019145+989926747+990731386+991603956
3357+992650861+993666037+994370603+994866698+995544904+996569028+997719859
3347+998741780+999604576+1000417061+1001241729+1001999979+1002557947+1002975718
3337+1003578905+1004604543+1005854414+1006858234+1007331202+1007424805
3329+1007592395+1008145477+1008941994+1009690196+1010423257+1011299130
3320+1012096474+1012455054+1012530418+1012901113+1013826265+1014933598
3312+1015685311+1015947467+1016032673+1016280995+1016736001+1017248957
3303+1017752071+1018326489+1019083638+1020042034+1021073384+1021924962
3295+1022361384+1022401372+1022399169+1022705718+1023212824+1023461766
3286+1023281306+1023091416+1023501891+1024732354+1026376801+1027662599
3278+1028074245+1027800319+1027488884+1027633142+1028275766+1029130647
3269+1029803692+1030033500+1029886283+1029689304+1029723923+1030008861
3261+1030358013+1030605509+1030749492+1030912815+1031258112+1031936250
3252+1032936147+1033930194+1034473020+1034423535+1034050294+1033743883
3244+1033768936+1034202880+1034894095+1035473468+1035625435+1035455160
3235+1035447108+1035921660+1036623886+1037012406+1036898156+1036631595
3227+1036657542+1037048952+1037535411+1037855381+1037972384+1038020287
3218+1038154015+1038433240+1038778469+1039061548+1039270777+1039491914
3210+1039697289+1039719588+1039535549+1039420748+1039663151+1040173768
3201+1040565041+1040629943+1040565179+1040649972+1040917565+1041238774
3193+1041521646+1041725645+1041870316+1042072113+1042360836+1042478803
3184+1042174456+1041697977+1041607747+1042013749+1042415414+1042408876
3176+1042163995+1042021870+1042033502+1042122768+1042362212+1042838278
3167+1043399963+1043734730+1043649731+1043232373+1042791615+1042646530
3159+1042870557+1043207734+1043336506+1043231823+1043178276+1043415311
3150+1043870179+1044229723+1044228691+1043915742+1043627707+1043624541
3142+1043827851+1044024761+1044151675+1044212517+1044130821+1043889794
3133+1043621719+1043383239+1043030370+1042487268+1041971559+1041778297
3125+1041948158+1042317200+1042801526+1043396522+1043913952+1044030611
3116+1043768386+1043615869+1043877268+1044170189+1043961579+1043381862
3108+1043085775+1043411044+1044038389+1044473572+1044588924+1044595049
3099+1044605029+1044465657+1044079822+1043652346+1043431692+1043392943
3091+1043347036+1043193005+1042907241+1042467584+1041949741+1041554752
3082+1041384753+1041311935+1041183163+1041021492+1040905934+1040814396
3074+1040732012+1040783011+1041107248+1041604719+1041893580+1041619998
3065+1040856861+1040030817+1039402853+1038857755+1038260901+1037723374
3057+1037394388+1037169191+1036719141+1035808098+1034532623+1033190526
3048+1031965914+1030858649+1029800457+1028675573+1027368852+1025950015
3040+1024683832+1023757165+1023077100+1022348651+1021291492+1019838379
3031+1018197717+1016711223+1015625708+1014940619+1014445626+1013921726
3023+1013303329+1012581143+1011634930+1010319261+1008673024+1006875233
3014+1004984253+1002915909+1000805306+999196648+998558498+998668137+998800488
3004+998541222+998147472+998091723+998530348+999305667+1000247269+1001282336
2995+1002359592+1003492598+1004855824+1006593599+1008496005+1010066672
2986+1010934080+1011074208+1010716798+1010200675+1009802726+1009515655
2978+1008988796+1007732662+1005420675+1002068047+997915254+993033049+987098088
2968+979695492+970767380+960669715+949987240+939472218+929967898+922247329
2958+917048181+915139581+916973024+922238519+930020481+939289968+949042748
2948+958281057+966327102+973108686+978895878+983824747+987822889+990877021
2938+993184878+995056037+996749350+998380721+999938311+1001431962+1003008548
2928+1004748801+1006396621+1007546282+1008092344+1008267367+1008346791
2919+1008493665+1008688992+1008714939+1008453058+1008157934+1008151809
2911+1008405087+1008668413+1008799732+1008778878+1008646527+1008569304
2902+1008766558+1009276142+1009872584+1010272804+1010464346+1010772615
2894+1011487506+1012490431+1013406636+1014058689+1014602479+1015288325
2885+1016234469+1017396794+1018600965+1019585652+1020131713+1020219741
2877+1020032536+1019821792+1019816286+1020115402+1020511079+1020584723
2868+1020187255+1019667210+1019409871+1019318678+1018986801+1018246789
2860+1017300026+1016335092+1015296653+1014125931+1013011371+1012216023
2851+1011801006+1011702585+1011959786+1012692021+1013917046+1015533757
2843+1017381584+1019203877+1020696839+1021785728+1022745775+1023891375
2834+1025207456+1026397311+1027249165+1027865428+1028502546+1029247926
2826+1029996816+1030719209+1031478767+1032165370+1032551825+1032668966
2817+1032800836+1033082057+1033374359+1033517860+1033484204+1033327489
2809+1033146547+1033062029+1033144000+1033372845+1033686689+1034016294
2800+1034254775+1034275354+1034057177+1033741268+1033506642+1033454747
2792+1033578771+1033763361+1033877680+1033933291+1034021800+1034106112
2783+1034093379+1034100950+1034379487+1034957690+1035547868+1035818972
2775+1035692195+1035362246+1035084053+1034975378+1035018531+1035138632
2766+1035238085+1035266028+1035281789+1035361351+1035481796+1035586617
2758+1035692333+1035855174+1036102395+1036412523+1036668967+1036660226
2749+1036252573+1035572577+1034935872+1034605923+1034647837+1034928714
2741+1035209866+1035327971+1035323910+1035316615+1035299271+1035199198
2732+1035046130+1034912678+1034790168+1034669173+1034606473+1034605854
2724+1034594360+1034578048+1034625538+1034719691+1034819626+1034994718
2715+1035274287+1035467755+1035366169+1035032778+1034728914+1034645291
2707+1034793334+1035040831+1035196927+1035190664+1035135466+1035123146
2698+1035070013+1034892994+1034679910+1034554441+1034535032+1034591744
2690+1034678671+1034694983+1034589749+1034460357+1034408531+1034396487
2681+1034343284+1034236743+1034082367+1033867012+1033612289+1033404642
2673+1033348136+1033463832+1033604167+1033567277+1033349238+1033149713
2664+1033107729+1033194380+1033340222+1033467962+1033455642+1033268574
2656+1033077652+1033054252+1033132093+1033140283+1033088527+1033137737
2647+1033321432+1033450549+1033332375+1033029406+1032831395+1032901184
2639+1033001256+1032784249+1032322843+1032060343+1032206459+1032529732
2630+1032771998+1032941102+1033132437+1033313793+1033361764+1033232785
2622+1033085292+1033167676+1033531901+1033949603+1034140800+1033993100
2614+1033625228+1033360181+1033521852+1034098197+1034647080+1034668760
2605+1034134881+1033599831+1033650074+1034246998+1034797257+1034852937
2597+1034492154+1034044788+1033769349+1033837692+1034311005+1035028718
2588+1035726195+1036300269+1036737311+1036809233+1036233990+1035228862
2580+1034490846+1034452304+1034875443+1035278623+1035448553+1035418201
2571+1035211036+1034837520+1034448519+1034239496+1034203224+1034233095
2563+1034467996+1035186053+1036338880+1037548488+1038538061+1039225628
2554+1039477460+1039139940+1038334131+1037496387+1037033604+1037000706
2546+1037200300+1037510496+1037901081+1038185812+1038104529+1037713050
2537+1037400926+1037402991+1037506229+1037380210+1037074556+1036969528
2529+1037232166+1037594188+1037780499+1037898328+1038181751+1038554166
2520+1038677777+1038363382+1037800940+1037382206+1037281996+1037211381
2512+1036749493+1036004388+1035676366+1036237293+1037269951+1037890275
2503+1037675609+1036941860+1036211759+1035632455+1034993823+1034240734
2495+1033761158+1034000671+1034907860+1035948020+1036610465+1036784731
2486+1036711570+1036691886+1036844885+1037077997+1037233611+1037277109
2478+1037319574+1037423363+1037467824+1037343182+1037132575+1036920593
2469+1036608056+1036134399+1035672649+1035385578+1035189081+1034924585
2461+1034598145+1034328762+1034186156+1034168261+1034237844+1034269848
2452+1034070391+1033661224+1033467136+1033955522+1035066296+1036149059
2444+1036481762+1035860130+1034806618+1034130201+1034157387+1034542603
2435+1034874135+1035097956+1035211931+1034990657+1034294487+1033403472
2427+1032786383+1032626226+1032739650+1032942410+1033281995+1033796053
2418+1034256633+1034352851+1034009205+1033436508+1033006900+1033036632
2410+1033438504+1033679256+1033388675+1032933325+1033054252+1033960339
2401+1035059827+1035562872+1035143174+1034102120+1033112065+1032704274
2393+1032798014+1032860026+1032633246+1032438401+1032637582+1033145170
2384+1033612426+1033830741+1033854417+1033871486+1033968598+1034039007
2376+1034041072+1034185055+1034588441+1035012062+1035258182+1035442221
2367+1035616212+1035704997+1035967222+1036780120+1037900324+1038651141
2359+1038798428+1038627672+1038239152+1037348068+1035929987+1034584518
2350+1033896538+1033808510+1033816907+1033528390+1033037527+1032750662
2342+1032872690+1033335473+1033947607+1034414932+1034507984+1034249613
2333+1033810300+1033380760+1033158109+1033091624+1032675643+1031446281
2325+1029724611+1028549485+1028661602+1029724818+1030846536+1031557228
2316+1031900461+1031980436+1031860817+1031687584+1031562872+1031368509
2308+1030915568+1030272187+1029828125+1029963161+1030649970+1031472986
2299+1032000533+1032050638+1031710158+1031294246+1031131336+1031207113
2291+1031195757+1030927268+1030611703+1030611359+1031160656+1032154496
2282+1033086049+1033453302+1033283991+1032979989+1032731735+1032430830
2274+1032029922+1031744984+1031865566+1032316786+1032545838+1032200678
2265+1031770037+1031993926+1032789067+1033285643+1032851216+1031735830
2257+1030837451+1030994304+1032288706+1033923311+1034899119+1034902147
2248+1034480385+1034376183+1034819557+1035522885+1036063784+1036125245
2240+1035749940+1035429420+1035488885+1035491638+1034804897+1033479249
2231+1032083606+1031118328+1030892649+1031445662+1032442806+1033569686
2223+1034929884+1036745570+1038794230+1040280654+1040366135+1039113649
2214+1037648767+1036846468+1036271087+1035167401+1033951943+1033685794
2206+1034413899+1035018876+1034629805+1033437265+1032129237+1031218263
2197+1031047988+1031878781+1033673475+1036039695+1038386301+1039886490
2189+1039656131+1037612909+1034873585+1032711776+1031567414+1031465140
2180+1032471575+1034290702+1036325252+1038263654+1039878231+1040587616
2172+1040026344+1038666902+1037494666+1037314275+1038118707+1038896986
2163+1038688376+1037796742+1037135397+1036846399+1036528632+1036153946
2155+1035967429+1036109278+1036361042+1036047060+1034750250+1032952527
2146+1031358116+1030108451+1029176554+1028745844+1028797119+1029044203
2138+1029455917+1030274734+1031359079+1031909202+1031221704+1029591434
2129+1028110722+1027549588+1027655786+1027611806+1026994579+1026159382
2121+1025732664+1025852489+1026047196+1025837416+1025254258+1024749973
2112+1024685690+1024878195+1024758232+1024168604+1023692056+1023807821
2104+1024212239+1024457534+1024669241+1025109311+1025601482+1025812295
2095+1025634518+1025108072+1024360834+1023712291+1023528045+1023929435
2087+1024681354+1025286124+1025257355+1024516379+1023567826+1023109724
2078+1023350613+1023789789+1023858476+1023633555+1023619377+1024053115
2070+1024808612+1025808028+1027058656+1028224904+1028510805+1027450204
2061+1025831428+1025210140+1026280583+1028167985+1029361557+1028881224
2053+1026846880+1024512525+1023468029+1024186568+1025490673+1025931913
2044+1025287156+1024341976+1023818420+1023998812+1025086186+1027132643
2036+1029370504+1030542603+1030348515+1029751591+1029785316+1030772273
2027+1032442324+1034280928+1035812709+1036704412+1036827403+1036378592
2019+1035509257+1033805207+1030893613+1027574021+1025593980+1026095925
2010+1028256151+1029587786+1028573643+1026896021+1027294108+1029681871
2002+1031433411+1031047438+1029720895+1029219088+1029552892+1029431690
1993+1028382308+1027600037+1028544117+1031122457+1033693159+1034665663
1985+1034020768+1033246412+1033721515+1035462318+1037509326+1039017706
1976+1039740236+1039740787+1038837108+1036585757+1033131130+1029725369
1968+1027812433+1027611462+1028299786+1029528184+1031632041+1034284714
1959+1036055869+1035779466+1033637548+1030713290+1028036253+1026156973
1951+1025256804+1025266440+1025765149+1026170531+1026389259+1026929264
1942+1028060136+1029210691+1029498038+1028608675+1027134020+1026120633
1934+1026059929+1026549072+1027007381+1027234230+1027295415+1027289290
1925+1027208558+1026989417+1026768832+1026663047+1026297652+1025326524
1917+1024339498+1024269089+1025137805+1026161515+1026558226+1026072524
1908+1025077995+1024211138+1023912504+1024278518+1025022316+1025558122
1900+1025460183+1024812673+1024020285+1023482070+1023381240+1023611531
1891+1023982982+1024400133+1024757750+1025004146+1025322464+1025867217
1883+1026435854+1026636342+1026252640+1025422674+1024577703+1024070046
1874+1023877679+1023866460+1024164475+1024993822+1026091038+1026599865
1866+1026039625+1024929745+1024087115+1023772789+1023791853+1024053459
1857+1024505918+1024918527+1025145238+1025205529+1025058862+1024675297
1849+1024184503+1023791372+1023721101+1024125932+1024838964+1025504507
1840+1025867768+1025742230+1025162513+1024517962+1024179134+1024274389
1832+1024806410+1025480349+1025732732+1025429694+1024936215+1024568274
1823+1024435372+1024433926+1024298203+1023878573+1023248063+1022555334
1815+1021978921+1021604579+1021221771+1020558018+1019654821+1018713977
1806+1017884767+1017272840+1016837931+1016457464+1016127377+1015781116
1798+1015228309+1014487540+1013658881+1012640883+1011414619+1010133226
1789+1008729392+1007134637+1005478558+1003709398+1001535545+998766419+995288254
1779+991051012+986204182+980767174+974237493+965552471+953718477+939033180
1769+922233082+903084176+881803055+859061664+833478882+803028002+769847572
1759+737725679+706109239+673813011+643091028+615182562+587487181+557481912
1749+526531016+497927722+472538202+449237122+427343076+406698420+386714282
1740+367690569+351593764+338909740+327700028+317196018+309812280+306924775
1730+307703157+311435392+317683336+326449606+337730622+350375656+363408625
1720+378124068+397152804+420751555+445119602+467566075+488979375+510786907
1710+533175120+556197594+580734642+605923330+628326994+647579276+667968212
1700+691165227+712095957+729062475+745214857+760068295+771669728+781490989
1690+791554929+801470481+810412359+819837805+831319275+842284072+849966581
1680+855433046+860131763+864777554+869860730+875118585+879661756+883547094
1670+887721704+892253451+896030938+898782444+901286729+904080975+906882448
1660+909168281+910813555+911923297+912828834+914399088+917316119+919943326
1650+920972336+921390176+922267563+923737401+925022097+925805401+926401085
1640+926976948+927527346+928263572+929550127+931108474+932193990+932796970
1630+933331882+934032044+934866484+935755228+936811631+938126955+939355834
1621+940106995+940595588+941409449+942737575+944011535+944871372+945578141
1611+946425727+947444069+948484298+949411653+950188761+950835033+951379718
1601+951838164+952220834+952567921+952926984+953314816+953757845+954314093
1591+954964494+955599203+956159580+956651201+957044125+957327893+957580689
1581+957854339+958135078+958501849+959102490+959750000+960016355+959924817
1571+959876226+960151666+960538809+960716585+960746731+960751617+960669371
1561+960557392+960903034+961991578+962969795+963409245+963556325+963576216
1551+963601888+963757296+963970999+964053796+963984971+963926607+964031772
1541+964425592+965140276+965736029+965851656+965712560+965742636+966101492
1531+966490563+966681691+966759533+966793051+966721817+966566133+966507356
1521+966642530+966772403+966732966+966699999+966836067+966969382+966883488
1511+966622020+966348438+966152492+966034732+965883866+965595694+965204627
1502+964726428+964147812+963542904+963034628+962598068+962094128+961429342
1492+960548100+959491491+958415611+957305387+955965423+954305696+952299915
1482+949911601+947165739+944078846+940598272+936674461+932018760+925903752
1472+918234664+910196396+902412576+894206099+884648921+873837880+863395056
1462+854655938+847257196+839852467+831210255+821691689+812616565+803651699
1452+793514184+780991385+764747809+743576947+717681697+688397066+656766035
1442+624819165+596674697+576496574+568220858+575870090+597650298+626389350
1432+658373455+692226723+724002631+749149267+767014371+779513082+788079241
1422+793435930+796432386+797928377+798307468+797775240+796837768+796049096
1412+795765673+796182549+797381971+799435793+802608786+807142322+812613399
1402+818258948+823979104+830091359+836443815+842543131+848149725+853035785
1392+856816577+859417492+861087681+861930518+861623418+859659276+855769397
1383+849879035+841916406+831919020+820193495+807101508+792795164+777808412
1373+763761265+752298033+743881156+738370849+735666144+735601930+737977511
1363+742478630+748263689+754311110+760147513+765657545+770665908+775030339
1353+778881126+782537549+786183374+789699393+792852221+795559541+797871940
1343+799788730+801187815+801903325+801872835+801229385+800165206+798737696
1333+796880027+794570862+791948060+789239846+786609197+784073253+781532491
1323+778850292+775937046+772798328+769532420+766251233+762946026+759441019
1313+755539645+751224011+746636654+741867873+736873275+731579906+725921073
1303+719770000+713009271+705665728+697832009+689494419+680583513+671145954
1293+661365437+651441006+641477276+631489113+621544310+611854368+602644483
1283+593989264+585857324+578265114+571311089+565080110+559586252+554829377
1273+550819948+547509338+544798302+542651806+541094870+540100927+539591480
1264+539496914+539746166+540285241+541141912+542358093+543846238+545416905
1254+546952849+548469385+549970297+551315767+552291299+552744825+552599879
1244+551813410+550382631+548325471+545628612+542280699+538337514+533882818
1234+528953570+523569282+517822422+511891694+505956768+500146312+494584455
1224+489405267+484674237+480397489+476646120+473554341+471186572+469512564
1214+468472610+467938662+467659919+467386510+467057661+466783908+466611328
1204+466388987+465943480+465321194+464786076+464686864+465423744+467390846
1194+470750666+475271572+480455784+485750805+490547323+494088911+495604896
1184+494576678+490803836+484312972+475380213+464614390+452858513+440973967
1174+429731046+419784212+411612147+405475838+401481688+399695150+400190865
1164+403025065+408181644+415518924+424762739+435647974+448114371+462245830
1154+477989663+495075559+513189399+532036849+551246391+570372137+588990330
1145+606754398+623435153+638934725+653171279+665934969+676938377+685974064
1135+692899079+697489190+699435506+698492941+694536231+687476593+677208310
1125+663694836+647151801+628166356+607584778+586228844+564724144+543533805
1115+523038706+503608442+485695160+469807171+456300167+445294831+436894610
1105+431375872+429051531+430010064+434079578+441010650+450584897+462536686
1095+476481903+491951879+508442332+525492783+542772698+559992047+576744518
1085+592620118+607460410+621320902+634210749+646016593+656620676+665953070
1075+673950386+680568922+685827190+689777086+692447859+693833661+693893264
1065+692555089+689796907+685714523+680437741+674030362+666595556+658428309
1055+649891813+641139068+632043296+622398434+612255965+602243644+593563647
1045+587518221+585010289+586479025+592015486+601241269+613165012+626426172
1035+639768270+652250050+663152422+671925265+678291142+682270839+684036007
1026+683773162+681713284+678221078+673789128+668950352+664173862+659775981
1016+655875433+652398163+649086968+645563997+641517264+636896182+631910050
1006+626831898+621759459+616484122+610621772+603961735+596719158+589491586
996+583054062+578128496+575193088+574466704+576073469+580119824+586578753
986+595175540+605384564+616522801+627961531+639313678+650384879+660974439
976+670783175+679486916+686862945+692819311+697286223+700171732+701590226
966+702098433+702537402+703611700+705717347+709125173+714094581+720658124
956+728397621+736624815+744802110+752690545+760140424+766942517+772956214
946+778222948+782803422+786595294+789470204+791494707+792842103+793601318
936+793874142+793978550+794362183+795292016+796663295+798152679+799637314
926+801368688+803569590+806026867+808334586+810357368+812191980+813853772
916+815267035+816440441+817441370+818242843+818723658+818812374+818512295
907+817738145+816254405+813866642+810619042+806809619+802954153+799714811
897+797644196+796909002+797327599+798643336+800658271+803133236+805709100
887+808050406+810055981+811792173+813154574+813683635+812761855+809907937
877+804926829+798040425+790063067+782348830+776349105+773008315+772355436
867+773496356+775045687+775813092+775291257+773545016+770750976+767030613
857+762571822+757473780+751538406+744752969+737968770+732560050+729445696
847+728880019+730902525+735395110+741925548+750039593+759496561+769906418
837+780448764+790239880+798787457+805975110+811832023+816465631+820112143
827+823051612+825387962+826959386+827508682+826925180+825342262+822977143
817+819810137+815627543+810774106+806756348+805523959+807878204+812809620
807+818456477+823415974+827094628+829289405+829832162+828540790+825359124
798+820542991+814576853+807788387+800252270+792185715+784183580+776984570
788+771314313+768026174+767962235+771364899+777558713+785353407+793683358
778+801847026+809314455+815571037+820328324+823814405+826613194+829149689
768+831452659+833369105+834816161+835845171+836610098+837275709+837944074
758+838679612+839465117+840104300+840404448+840459164+840479055+840422411
748+840085854+839484732+838894691+838479054+837968920+836916440+835402279
738+834198108+833934438+834370929+834751396+834634462+834133274+833524651
728+832890905+832186270+831456788+830743756+829844069+828473478+826673967
718+824806387+823124498+821569110+819975938+818321029+816701358+815144456
708+813526851+811694647+809633254+807480117+805311701+802992213+800350484
698+797371441+794086537+790560125+787113069+784182548+781838145+779762781
688+777745987+775902496+774316756+772661572+770374776+767238398+763513630
679+759474468+755241012+751118915+747633385+745050570+743174662+741881018
669+741829055+743808476+746894405+749765048+752073249+753933121+755542330
659+756815257+757303161+756863573+756152950+756074695+756907346+758228382
649+759583281+760926411+762320747+763519687+764192319+764419099+764623648
639+765069844+765699735+766400172+767120913+767806621+768524540+769520445
629+770746846+771557748+771428356+770785045+770524746+770897574+771366826
619+771337094+770616284+769301717+767531801+765415967+763007556+760179241
609+756723651+752782565+748963713+745830226+743414657+741279208+738987112
599+736652414+734987525+734540847+735026687+735627052+735784318+735582315
589+735490295+735889758+736921797+738570443+740577119+742483792+744132576
579+745763671+747255326+747973039+747845092+747755619+748409737+749557952
569+750506643+750862333+750784905+750737208+750931847+751056972+750623440
560+749518997+748162102+747049056+746166645+745124558+743802764+742364930
550+740710916+738571819+736173801+734266165+733355535+733109690+732617450
540+731276385+729220086+726710364+723727535+720585720+718068771+716335195
530+714596525+712434165+710455914+708952077+706873547+703313616+699098880
520+695799042+693731042+691928433+690020590+688815249+688908577+689926781
510+691268534+692907063+695174794+697948118+700361002+701621404+702153287
500+703260552+705335090+707416993+708843126+710260243+712322117+714282337
490+714937693+714308559+713379828+712784350+712489226+712426732+712796600
480+713633243+714456740+714606367+713847359+712544974+711420985+711123246
470+711569373+711793056+710812086+708660326+706427144+705294208+705638404
460+706923239+708424323+710028164+711893266+713520645+714283782+714564452
450+715242865+716304980+717067911+717327039+717296825+716928264+715886315
441+713917355+711432617+709930156+710767418+713163785+715085324+716047642
431+717178789+719219534+721751968+723878057+725019390+725539642+726685174
421+729356773+732307116+732193691+728713943+725499586+724873549+725789134
411+725743847+723924101+721201502+718323288+715974549+714844572+714298717
401+712468096+708214267+702591981+698387294+697476526+698982152+699838823
391+696810226+689585063+681476730+675548171+671131638+665917556+660494175
381+657054277+655638330+654598789+652595623+649400950+645825052
##END=
