##TITLE=NiW X10423
##JCAMP-DX=4.24
##DATA TYPE=INFRARED SPECTRUM
##DATE=20/4/2018
##SAMPLING PROCEDURE=Diamant-ATR
##ORIGIN=Lara
##XUNITS=1/CM
##YUNITS=TRANSMITTANCE
##RESOLUTION=4
##FIRSTX=3997.453
##LASTX=373.96442
##DELTAX=-1.4165319
##MAXY=1.0092974
##MINY=0.50612408
##XFACTOR=1
##YFACTOR=9.3998143e-010
##NPOINTS=2559
##FIRSTY=1.0002416
##XYDATA=(X++(Y..Y))
3997+1064107873+1063847383+1063421772+1063085634+1062915503+1062853678
3989+1062801935+1062626986+1062241197+1061767140+1061507347+1061595108
3980+1061712797+1061356240+1060472235+1059646695+1059551642+1060354355
3972+1061726811+1063107130+1063850807+1063580425+1062601812+1061626369
3963+1061002791+1060551625+1060136921+1059896215+1059830331+1059707886
3955+1059513089+1059514040+1059851637+1060472172+1061274504+1061904551
3946+1061862129+1061187505+1060426897+1059820186+1059183735+1058587043
3938+1058312792+1058264474+1058100748+1057811850+1057688453+1057738864
3929+1057586236+1057101019+1056695255+1056758793+1057004191+1056857903
3921+1056457530+1056573317+1057612995+1059044549+1059956011+1059994247
3912+1059444732+1058737833+1058161876+1057887562+1058030299+1058509682
3904+1058923372+1058874926+1058482859+1058142726+1057862198+1057255994
3895+1056201668+1055217855+1055095917+1055821523+1056207566+1055744542
3887+1055465536+1056202302+1057032282+1056859362+1056302364+1056205536
3878+1056099895+1055493057+1054859586+1054556674+1054339747+1054290794
3870+1054837139+1055478599+1055372640+1054844494+1054755656+1055240937
3861+1055709033+1055815562+1055666231+1055481833+1055574539+1056306359
3853+1057318453+1057495622+1056900008+1056223989+1055666484+1055245249
3844+1055131490+1055261482+1055057173+1054268981+1053638111+1053818070
3836+1054186294+1054028909+1053662587+1053636589+1053992956+1054593960
3827+1055328950+1055626155+1054896047+1053880275+1054299608+1056072311
3819+1056688978+1055573081+1054579692+1054811394+1055398575+1055318171
3810+1054443360+1053205778+1052250753+1051736368+1051257682+1051111458
3802+1052178022+1054065053+1055385956+1056139780+1056817194+1056972232
3793+1056249987+1055216460+1054398022+1053699555+1053008889+1052583595
3785+1052505156+1052417586+1052306047+1052793547+1054068414+1055168458
3776+1055272642+1054685144+1053974313+1053412750+1053192716+1053313449
3768+1053429173+1053379396+1053232918+1052795132+1051991405+1051382664
3759+1051600035+1052420059+1052997602+1052847065+1051971050+1050815521
3751+1050255670+1050402910+1050382048+1050364166+1051345950+1052966657
3742+1053327019+1052143590+1050573357+1049349725+1048609852+1048440356
3734+1049222841+1050687686+1051511261+1050995353+1049940901+1049584788
3725+1050116992+1050492382+1049963792+1049004392+1048516068+1048802874
3717+1049341102+1049451689+1049073763+1048746882+1048959371+1049705014
3708+1050659278+1051313674+1051220460+1050517619+1049806598+1049365578
3700+1048985306+1048690637+1048666731+1048681443+1048358303+1047847025
3691+1047824260+1048848212+1050549641+1051738651+1051782784+1050933718
3683+1049830947+1049052838+1048604970+1048106627+1047832630+1048717650
3674+1050308935+1050976330+1050875761+1050966121+1050996178+1050301009
3666+1049321888+1048745360+1048575547+1048278850+1047414185+1046232848
3657+1045571477+1045663042+1045383592+1044007268+1042511352+1042569246
3649+1044558685+1046522507+1047198653+1047193390+1047098274+1047052492
3640+1047021674+1046935816+1046825165+1046875386+1047090157+1046973926
3632+1046110339+1045140286+1045601597+1047587486+1048986066+1048960385
3623+1048123494+1047117170+1046580337+1046982043+1047753494+1047846708
3615+1047256927+1046680145+1046396130+1046196260+1046084658+1046230882
3606+1046361952+1046069566+1045520242+1045210989+1045283594+1045372876
3598+1045253537+1045268375+1045750865+1046249589+1045953969+1044898565
3589+1044036374+1044177398+1044952084+1045375412+1045354233+1045348843
3581+1045523285+1045748900+1045809203+1045462982+1044661220+1043750646
3572+1043128273+1042766326+1042500129+1042687189+1043827817+1045175669
3564+1045387333+1044438079+1043284579+1042655865+1042644261+1042963025
3555+1043208106+1043061882+1042591440+1042222264+1042258979+1042655738
3547+1043179508+1043578614+1043766562+1043803404+1043607656+1043029860
3538+1042281553+1041930386+1042280982+1042982048+1043414571+1043324211
3530+1043004369+1042886171+1042984204+1043031128+1043068730+1043291364
3521+1043396309+1042882303+1041944146+1041354619+1041497483+1042038437
3513+1042506406+1042735191+1042709510+1042361830+1041702298+1041006115
3504+1040674732+1040864963+1041364004+1041881179+1042205587+1042116812
3496+1041573195+1040897303+1040414369+1040126549+1039997699+1040121159
3488+1040368396+1040373723+1040093956+1039911334+1040053056+1040304415
3479+1040417603+1040432124+1040481584+1040544360+1040456473+1040125280
3471+1039773289+1039837587+1040395980+1040898381+1040836556+1040445313
3462+1040311580+1040553618+1040825776+1040896795+1040835351+1040781832
3454+1040774477+1040770165+1040765155+1040833892+1040962806+1040997301
3445+1040948412+1041120761+1041644214+1042149913+1042275656+1042226386
3437+1042358089+1042454283+1042006732+1041076627+1040294713+1040088185
3428+1040388878+1040947587+1041506614+1041886569+1042162024+1042476794
3420+1042625935+1042274387+1041540855+1040884621+1040583801+1040696418
3411+1041266859+1042135265+1042787695+1042850852+1042600064+1042563095
3403+1042764740+1042828722+1042709637+1042748444+1043015402+1043165812
3394+1043040132+1042917623+1043074437+1043429155+1043707654+1043742530
3386+1043553693+1043277794+1043072154+1043022250+1043030050+1042858968
3377+1042456375+1042120934+1042122963+1042290811+1042241541+1041902739
3369+1041585496+1041616441+1042005971+1042440459+1042648890+1042758082
3360+1043065750+1043426492+1043224466+1042164624+1040787666+1039849128
3352+1039416288+1038990360+1038375342+1037934196+1037917899+1037954931
3343+1037403450+1036049447+1034329312+1032842527+1031676916+1030416253
3335+1028867072+1027291513+1025627686+1023152649+1019450367+1015139471
3326+1011086719+1007409357+1003725780+999861928+995860285+991669171+987109643
3316+981918546+975870394+969154403+962464030+956365213+950761632+945279037
3306+939946409+935230827+931506922+928602406+925811522+922427370+918329343
3296+913933286+909608504+905419292+901400211+897667999+894174083+890763996
3286+887606663+885143040+883483969+882279044+881238161+880298228+879222026
3276+877592821+875355003+872964619+870889766+869253079+868035979+867355902
3267+867360657+867947077+868764058+869484337+869951799+870140445+870160482
3257+870202904+870239809+869859663+868649602+866732767+864767804+863491035
3247+863361487+864458551+866444693+868681370+870651152+872305658+873889334
3237+875528050+877143178+878653678+880104129+881614439+883244785+884970373
3227+886872560+889189007+891925992+894654861+896989253+898975205+900773906
3217+902363986+903765421+905176113+906751863+908521014+910493206+912620817
3207+914636952+916059819+916489869+915934774+914606452+912304779+908391784
3197+902631135+895739307+888924332+883073703+878418108+874776256+872064508
3187+870516469+870342407+871350633+873060623+875003329+876752633+877924268
3177+878450891+878782338+879548146+880981095+882768953+884433350+885755712
3167+886809847+887713446+888548181+889552920+891075658+893107392+895122069
3157+896635233+897722722+898809641+900204353+902047822+904511191+907700990
3148+911287802+914545895+916992143+918755017+920140535+921201392+921827126
3138+921839174+921001839+919304722+917041730+914322753+910879439+906506211
3128+901166100+894552960+886095909+875609913+863663067+851208748+839121448
3118+828232669+819519439+813773248+811007601+810403680+810830242+811349890
3108+811514377+811537839+812142901+814019026+817444078+822436573+828940076
3098+836600375+844622051+852211838+859081472+865294618+870834282+875567238
3088+879453918+882605861+885203470+887307683+888678997+888958827+888132462
3078+886583662+884560742+881781906+877766883+872503816+866580963+860672250
3068+855189909+850498614+847016176+844863771+843719466+843202101+843216558
3058+843877929+845248419+847223211+849686199+852685323+856279364+860226792
3048+864038013+867415127+870554832+873960734+877943227+882310939+886549547
3038+890174723+892880510+894608191+895593526+896123764+896283241+896210256
3029+896417228+897450628+899336138+901571736+903481152+904543657+904743400
3019+904702374+905130458+906094296+907129662+908037953+909161967+910775573
3009+912582137+914077165+915219187+916446496+917959533+919235858+919565720
2999+918941697+917976210+916993348+915784618+914344503+913223977+912927660
2989+913413067+914356805+915549746+916886184+918232832+919475613+920565893
2979+921470569+922206828+922953486+923928358+925054465+925896175+926058823
2969+925567519+924778502+924037678+923510293+923234965+923190578+923341431
2959+923685940+924178322+924578506+924633419+924528792+924833987+925766754
2949+926792165+927201416+926918351+926509164+926484497+926750694+926769273
2939+926157489+925030432+923787524+922687036+921656299+920455178+919005108
2929+917512996+916267171+915438968+915038023+914898964+914799790+914780767
2919+915185072+916218536+917709315+919437884+921404306+923609341+925831496
2910+927794811+929401188+930687151+931669950+932358968+932846341+933252485
2900+933616461+933929455+934249741+934732485+935547753+936726680+938045554
2890+939130189+939766513+940070249+940318882+940652674+940956601+941004032
2880+940663961+939963022+939038878+938096028+937286594+936576777+935867088
2870+935257777+934998491+935150233+935478952+935702918+935728282+935636718
2860+935482884+935122776+934302942+932944246+931273762+929694651+928594353
2850+928188146+928431325+929112099+930072577+931269957+932619141+933916392
2840+935046620+936155478+937441506+938853847+940198973+941459065+942759233
2830+944077536+945213725+946008321+946459233+946683452+946852060+947120794
2820+947598592+948355712+949360197+950372228+951006650+951016161+950520989
2810+949885933+949344725+948860650+948401685+948163452+948357361+948912266
2800+949560257+950100134+950452950+950569752+950392710+949843195+948858494
2791+947542473+946221126+945209476+944600102+944334856+944307019+944353879
2781+944371317+944499279+945014933+946026646+947366573+948743911+949965640
2771+951030492+951988180+952785757+953383780+953906156+954473489+955009307
2761+955357875+955501309+955581270+955771755+956088173+956283604+956034020
2751+955264661+954224096+953252648+952517974+951941193+951359529+950752564
2741+950267981+950064497+950199688+950623967+951211021+951841321+952466168
2731+953048783+953501026+953776291+953979775+954293213+954807599+955488754
2721+956258747+957043451+957780788+958437213+958985396+959377717+959626095
2711+959860460+960179288+960490443+960618469+960496531+960187468+959829579
2701+959620325+959745117+960228748+960856702+961277430+961280664+961022520
2691+960867291+960970777+961178827+961358152+961574572+961858333+962043175
2681+962004494+961906272+962047677+962544752+963261607+963972755+964494750
2672+964745792+964794110+964781619+964707428+964425823+963977067+963741180
2662+964060261+964823977+965594350+966060290+966260160+966409872+966616400
2652+966782852+966764400+966542083+966203408+965826242+965455355+965141409
2642+964941857+964886626+964964494+965140078+965371970+965607223+965813560
2632+966033277+966320654+966630160+966894772+967166866+967483538+967682330
2622+967605730+967378467+967212775+967054883+966700355+966141012+965528277
2612+964904254+964240601+963664770+963386525+963449682+963754686+964225763
2602+964792969+965345972+965862069+966426105+967011637+967414674+967498820
2592+967353356+967177456+967170988+967490450+968071860+968497407+968301216
2582+967505161+966687737+966438280+966828254+967407001+967617334+967247461
2572+966585075+966179565+966443099+967422791+968847243+970303337+971392855
2563+971863805+971754612+971409976+971212643+971257347+971344029+971178592
2553+970522167+969375071+968103248+967165598+966695600+966550263+966613610
2543+966801178+966964143+966982722+966825971+966497822+966075889+965734931
2533+965622441+965743936+966018376+966435617+967118040+968097161+969085096
2523+969703030+969845070+969598403+969084018+968591065+968483774+968760751
2513+969043625+969070765+968931896+968837922+968860115+968906849+968955231
2503+969225867+969909178+970759448+971276370+971263498+970911634+970405872
2493+969786732+969147808+968621946+968169449+967674213+967213600+966975366
2483+966983420+967161286+967542573+968186950+968965186+969572215+969754837
2473+969560547+969329099+969332650+969534802+969779694+969981592+970030862
2463+969767836+969200629+968621058+968375659+968487959+968583329+968323409
2453+967814857+967385822+967110811+966809738+966401185+966084323+966211144
2444+966973147+968140724+969162710+969594472+969453193+969189469+969271015
2434+969741838+970237010+970353939+969887999+968883767+967687212+966831361
2424+966660660+967059956+967546251+967620758+967152091+966501627+966200427
2414+966443226+966933008+967234335+967259445+967323680+967684232+968224172
2404+968706281+969094988+969447550+969755788+970064850+970466112+970814425
2394+970779867+970344808+969932323+969855532+969928264+969826808+969553382
2384+969275644+968911985+968218148+967223492+966300489+965792635+965801449
2374+966302138+967153677+968038633+968720676+969275644+969782040+970034287
2364+969832895+969268161+968575149+967982007+967595140+967294765+967021212
2354+967005930+967255450+967289058+966850131+966310952+966225221+966815128
2344+967775923+968537229+968801397+968726953+968674196+968837478+969142609
2334+969455476+969669613+969642537+969368984+969095558+968970259+968830693
2325+968571281+968440211+968765190+969536261+970430031+971141940+971600905
2315+971907368+972055621+971803882+971015753+970046081+969505126+969642664
2305+970136124+970429397+970128388+969207161+968054803+967256465+967175997
2295+967739272+968607678+969471075+970188628+970773779+971297169+971765582
2285+972073186+972158600+972228098+972583006+973109757+973310704+973043937
2275+972688902+972435450+972138879+971925250+972083142+972392711+972393155
2265+972124485+971911426+971808257+971818086+972139070+972809889+973521037
2255+973894778+973702074+973097455+972883952+973912089+975844142+977152427
2245+976739878+975061530+973482483+973016417+973651789+974440932+974376761
2235+973535558+973029796+973522178+974403013+974862992+975075607+975648457
2225+976469369+976912672+976782173+976397589+976124924+976247876+976916159
2215+978026476+979384411+980786923+981731105+981683864+980980198+980654712
2206+981083811+981610118+981646896+981315830+980914442+980423201+979662529
2196+978752082+978330720+978901731+979821563+979930755+979456128+979805583
2186+981063837+981551146+980572596+979617888+979835513+980128406+978864762
2176+976364361+974735537+975551503+978357415+981414370+983153782+982833749
2166+980747545+978342133+977341390+978086653+979360632+980180973+980923826
2156+982209854+983830815+985030033+985158123+984201513+982873381+981895845
2146+981121477+979811480+977893187+976393150+976338173+977632507+979246620
2136+980206718+980330431+980239945+980531126+980934923+980748877+979963158
2126+979200330+978655698+978024574+977463708+977615703+978557729+979543888
2116+979962904+979924351+979721311+979264438+978434903+977641575+977436061
2106+977733330+978026666+978269021+978910418+980061000+981195033+981783609
2096+981836493+981638652+981195223+980315213+979242498+978747390+979358983
2087+980776207+982229574+983214719+983761127+984106968+984266825+984099295
2077+983823713+984096822+985273910+986798488+987636774+987383195+986685236
2067+986272815+985907698+985057490+984290794+984751725+986365331+987770189
2057+988047230+987594098+987235766+987122325+986723790+985698633+984480011
2047+983807543+984056747+985394009+987811660+990498170+991999286+991357762
2037+988615260+984794844+982001170+982266987+985428378+989282211+992078739
2027+993505221+993395901+991463785+988622489+986884282+987255106+988757046
2017+990117834+991545647+993750175+996152607+997701914+998702531+1000141505
2007+1001584219+1001555494+999764910+997262924+994964675+993316067+992722545
1997+993326530+994684909+996121980+997045743+996915181+995737078+994612113
1987+994856687+996490331+998127398+998598728+998361066+998895996+1000782838
1977+1002829030+1003574800+1003111396+1002575832+1002493969+1002186618
1969+1000701292+998350223+996821270+997104017+998312620+999271450+999967570
1959+1000796852+1001473631+1001447253+1000862862+1000503071+1000692922
1951+1000680874+999685140+998226572+997608638+998277174+999315900+999418118
1941+998235323+996607640+995427635+994812617+994393728+993805025+992602319
1931+990340151+987146801+983741597+980641967+977805935+975220310+973382358
1921+972805957+973274117+973895285+973889325+973330996+973000944+973698523
1911+975659428+978322349+980797196+982583468+983699809+984431692+985059963
1901+985571876+985780052+985834205+986134707+986551567+986304393+984913168
1891+982706611+980238233+977722233+975358608+973932127+974465662+977207086
1881+981310567+985567564+989166868+991956040+994167923+995900487+997090003
1871+997879907+998599045+999422493+1000367816+1001530320+1002937208+1004333633
1861+1005407742+1006193715+1007003720+1007959569+1008939768+1009920220
1853+1010982472+1012044534+1012834818+1013113634+1012969185+1012942806
1844+1013511978+1014325788+1014814365+1015159762+1015763113+1016625114
1836+1017460293+1017975250+1018069224+1018045064+1018374609+1018966165
1827+1019306932+1019388351+1019605786+1020046235+1020420610+1020570639
1819+1020701455+1021109882+1021773662+1022441374+1023048022+1023674961
1810+1024241090+1024589277+1024695172+1024522315+1023990809+1023291455
1802+1022999323+1023529181+1024470445+1025007659+1024877794+1024482620
1793+1024467909+1025162317+1025957801+1025984053+1025286094+1024550152
1785+1024231007+1024223715+1024313378+1024409254+1024304690+1023780540
1776+1022911816+1022117537+1022030284+1022844855+1023770521+1024245021
1768+1024597330+1025035559+1025428894+1025806694+1026178089+1026288359
1759+1026227042+1026506111+1027190183+1027756311+1027960556+1028220222
1751+1029093955+1030477571+1031642357+1032310450+1032679626+1032802832
1742+1032662124+1032320722+1031641533+1030497165+1029310184+1028825221
1734+1029361040+1030210866+1030781434+1031376668+1032238733+1033216015
1725+1034266916+1035611661+1037206941+1038751937+1040390907+1042645339
1717+1045226651+1047021738+1047959578+1048679287+1049525816+1050588512
1708+1051880944+1053471531+1055279427+1056811233+1057921613+1059306624
1700+1061132465+1062212789+1062543855+1063189880+1063850807+1064011109
1691+1063326910+1061845325+1059384112+1054829022+1043752548+1019701599
1683+986397353+954894027+928180346+907531431+896392434+896104931+901290321
1673+902841974+894207500+870269802+831475987+788572984+748433472+709564325
1663+673096531+647544720+638816018+643359884+654777252+670429171+695517895
1653+735723925+772170603+791436980+803794789+816538324+826638847+827435092
1643+819345948+806631899+793724512+784621625+782378671+789020598+801239728
1633+811408989+817704505+822135310+826018693+829553192+832278890+833389777
1623+832094873+828619346+824884280+823950561+829586736+842615681+856153812
1613+863199347+861363487+848293389+821641470+782599973+736532345+690120335
1604+649219707+618501402+600608432+594932055+598530916+608416161+622323594
1594+637920028+652175395+661142710+660802640+650463122+635616453+625424555
1584+626760233+640210921+660783807+683433576+708411269+739050818+771393254
1574+796824649+816923605+839305655+867257045+895072673+917091761+934237249
1564+947785589+957099126+962169552+963741814+961857572+957212123+950631323
1554+941054950+926056794+902667152+870023896+831998552+793365989+755087701
1544+717142127+680359818+641515528+599861077+568296813+551289560+542512095
1534+538440510+538693962+542315523+547810229+555059184+564596433+575712856
1524+587190971+599905147+614806919+629192912+641089726+652211349+663255673
1514+672953668+681185485+688753903+696078190+704834476+718696317+735369397
1504+747372932+755183831+761716756+767796740+773111804+777275398+779812767
1494+779933754+776083218+764449239+738690520+696772915+649176398+610026659
1485+586234551+578037356+581573566+591014051+601694716+611920286+621877945
1475+632489114+644891754+658130207+669126720+677209650+684199638+691856576
1465+700411153+708310573+714335771+719108168+724626018+733118326+743211685
1455+750642565+755023847+757857406+759717551+760430412+760158825+760152674
1445+762096077+767032264+774742277+783813269+793384505+804414055+817308634
1435+829371838+838890063+847465312+856923488+867323943+877588065+887484851
1425+897513341+906901258+913014596+911673021+895491879+857435844+801064906
1415+736574767+674141218+626178125+603473633+607084668+629214598+661473903
1405+698040934+732808566+760663952+780708756+792609756+790750499+764900658
1395+710893915+644340590+593421301+571745834+574399815+591675105+614632985
1385+636475538+655187645+672082027+688166976+703180224+716647589+728697350
1375+739894430+750392664+759411723+766389916+771996224+777232025+782509803
1366+788126828+794808894+802992393+812005998+820880861+829481918+838262363
1356+847576280+857310926+866996999+876053406+883526517+887647436+885863446
1346+875631219+856011899+828766395+797796668+767947277+742795966+721623343
1336+700823638+679282538+660425221+649276396+648422511+656684322+670725741
1326+687183480+703672606+718848946+732252837+744005266+754243708+762804055
1316+769393796+773686303+775441884+775261228+775110628+777373557+782906816
1306+789548934+792804997+789583239+782211077+777573554+780804379+790391088
1296+800373859+806212629+807227958+804582030+798987770+790373333+778622299
1286+764357738+749286976+735878773+726628711+723240183+725993655+733743744
1276+744647107+757089061+770216927+783825253+797834016+812000989+826151855
1266+840375072+854801330+869412429+884062653+898193671+910128659+916501917
1256+912339021+892440315+854632658+803304499+749478159+705679293+679121919
1247+669100278+670151813+676711181+685171910+693576141+701032005+707551170
1237+713752775+720280500+727406820+735069212+743051890+751096711+759000189
1227+766677102+774101641+781239375+788042238+794445552+800466121+806371156
1217+812540675+818999917+825245339+830539414+834058060+834651201+830924189
1207+822038229+808494835+792181482+776007950+763471767+757599516+759285853
1197+766568290+775892162+784288720+790649105+795506663+800046280+805136998
1187+810471529+814001081+812937625+806695944+798859363+795027787+798278397
1177+807201515+818085158+828028487+835991381+842018164+846375413+849397365
1167+851584772+853421709+855111788+856631800+857967287+859201825+860466483
1157+861899306+863585136+865469568+867359072+869088021+870726104+872538818
1147+874672072+876973618+879247263+881538346+883986433+886528495+888963583
1137+891221058+893356596+895360176+897162618+898804695+900438148+902159932
1128+903914816+905511808+906703671+907329976+907286286+905987830+901889740
1118+893494386+881846204+871594700+868074215+872754921+882259386+891868099
1108+899057005+903770684+906841779+909005090+910770817+912420250+913955797
1098+915232884+916258611+917242741+918235051+919006820+919595713+920677178
1088+922968261+926408595+930249176+933836685+936966308+939446988+940676770
1078+939714009+935362341+926181839+911191102+891208567+869537855+850718775
1068+837129282+826026873+811931237+794149172+780255498+779258496+792369114
1058+812818540+833186547+850239836+863942073+874991408+883979585+891527014
1048+898285934+904678214+910723957+916247451+921182623+925560543+929369736
1038+932610961+935385232+937860522+940203411+942485236+944600672+946392398
1028+947928262+949565647+951679434+954363662+957474198+960978006+965074321
1018+969815077+974735664+978980423+981486404+980392637+971881496+950770129
1009+915199403+872415992+837603529+823650566+831875916+853486641+878195728
999+899962316+916830510+928607733+935046620+934593806+924335771+902384531
989+871594066+840505508+819062440+812580877+819790075+835790434+855813361
979+876770388+897036114+915809919+932562769+946713635+957577621+964212637
969+964833742+956447964+935753393+901325323+856117097+808670735+770711211
959+750872364+749390335+759272727+772434454+783930832+791233242+791955297
949+784125628+768997798+752704165+743596142+746810735+760968132+779654684
939+795645151+804337329+805064583+800957996+797528442+799607036+808346264
929+821266524+835120122+848105821+859778290+870189524+879531532+888026503
919+895780904+902667405+908428308+913101912+917234688+921335188+925291239
909+928658398+931314091+933568332+935820798+938257852+940771823+943133989
899+945242830+947155479+948976691+950845841+952940478+955337900+957888015
890+960318981+962489141+964481180+966446650+968465766+970576636+972814454
880+975176113+977587612+979881676+981820514+983319854+984689139+986442438
870+988768904+991381985+994017640+996833381+1000100224+1003752666+1007550635
860+1011467372+1015587149+1019781116+1023715037+1027073254+1029765154
851+1032006650+1033937562+1034859994+1032915639+1025567890+1010531053+987245721
841+958757372+932010591+914669735+910338802+916541231+927083789+936108999
832+940349699+938289938+927322149+902498290+860810612+808329587+759845133
822+726692565+705198515+680963675+645314638+605126870+576443978+571099999
812+589710015+624318931+665188360+705621463+742672189+775073089+800556925
802+814130375+809366602+784294998+747649528+716492297+704472719+712796228
792+732889098+755375838+775281329+791368624+803835055+813093487+819533643
782+823636806+826009942+827132307+827075428+825588326+822499223+817998983
772+812583477+806810653+801008661+795073633+788653895+781593713+773990863
762+765911674+757477260+749101120+741197959+733902460+727491283+722726432
752+720339282+720397429+722344954+725443506+729142998+733145973+737165562
742+740834617+744031391+747140279+750753977+755066712+759659721+764027179
732+768233955+772745482+777690799+782719312+787574016+792362456+797173089
722+801770791+805875539+809585812+813299508+817316370+821713694+826418940
713+831196346+835751817+840004629+844157379+848320465+851946021+853904263
703+853479793+850760309+845520070+836821678+824723852+811377854+799663788
693+791857265+789769412+794292923+804222873+816712005+829126820+840085096
683+849295781+856983728+863317734+868330457+872332607+875902362+879292792
673+882283990+884807472+887437040+891002926+895024164+897968755+899754329
663+901112454+902532341+904328632+906720665+909543381+912226404+914433024
653+916497985+918883487+921410012+923470535+924963090+926470483+928369880
643+930178726+930794252+928976528+923710797+914742087+903359213+892757050
633+886757851+887212503+892789072+900619819+908724942+916516121+923765013
623+930099907+935323977+939579833+943172606+946370965+949349798+952252031
613+955110827+957645026+959450131+960577950+961589283+962809046+963895140
603+964466152+964852068+965799546+967599135+969888950+972197914+974358372
594+976577738+979311489+982713206+986152018+988716654+990087461+990621567
584+990934434+991592254+992775430+994114595+995332773+996863565+999140888
574+1001639450+1003398709+1004116452+1004309981+1004864061+1006395804
565+1008605468+1010572080+1011970343+1013396254+1015396854+1017928897
557+1020563537+1022414742+1022358751+1020104826+1016468300+1012005536
548+1005975202+997242759+986115240+974960835+966769282+963196040+964080109
538+968326263+974626598+981530094+987690102+992464655+996140369+999580956
528+1003491415+1007681514+1011234972+1013703985+1015508710+1017005260
520+1018246012+1019513460+1020890608+1021510699+1020591057+1018800410
511+1017365051+1016116119+1013432715+1008105603+999965541+988400743+972433040
501+953438631+935105909+918626928+900117037+873299807+834360782+786597241
492+741776706+714001534+709937876+726583816+756335111+791158228+824264950
482+851624213+873198858+891776597+909422647+925198597+937121854+945475990
472+952827861+961015418+969709879+977667827+984074248+989332115+994575779
462+1000095405+1005303496+1010458575+1016560626+1022920567+1027376736
453+1028913996+1028192385+1026925571+1026886003+1028399230+1029979228
445+1030205160+1029654123+1030000788+1031748697+1034142631+1036572837
436+1038947812+1041488352+1044672254+1048615496+1052355190+1054724141
428+1055989687+1057520035+1059851637+1062168718+1063640031+1063850807
419+1064477176+1064119034+1064903167+1067185690+1069336953+1069827623
411+1069174242+1069218502+1069086101+1063850807+1053886236+1036381845
402+1015668758+994545723+976389282+968779711+975510603+989109545+1003491669
392+1019721700+1039151550+1059269022+1073741823+1073362375+1051770610
384+1018915817+997781748+998667973+1014782090+1035434429+1051966738+1059544731
374+1063850807
##END=
