##TITLE=X7425
##JCAMP-DX=4.24
##DATA TYPE=INFRARED SPECTRUM
##DATE=29/10/2018
##SAMPLING PROCEDURE=Diamant-ATR
##ORIGIN=ComPlat
##XUNITS=1/CM
##YUNITS=TRANSMITTANCE
##RESOLUTION=4
##FIRSTX=3997.453
##LASTX=373.96442
##DELTAX=-1.4165319
##MAXY=0.95402968
##MINY=0.63016939
##XFACTOR=1
##YFACTOR=8.8850938e-010
##NPOINTS=2559
##FIRSTY=0.91633701
##XYDATA=(X++(Y..Y))
3997+1031319461+1031652600+1032308613+1032612570+1032499869+1032090926
3989+1031414318+1030816332+1030909445+1031734509+1032570307+1032898951
3980+1032952283+1033015476+1032936451+1032652955+1032490276+1032645441
3972+1032920753+1033118852+1033241012+1033257850+1033016147+1032451032
3963+1031821651+1031640122+1032186386+1033140788+1033872338+1033899306
3955+1033066057+1031707273+1030658618+1030700613+1031834598+1033201566
3946+1033864489+1033694163+1033405971+1033747830+1034598454+1035224883
3938+1035205026+1034504536+1033239402+1031959509+1031633548+1032522812
3929+1033521758+1033580322+1032932359+1032475920+1032553603+1032629475
3921+1032205572+1031493880+1031068501+1031204010+1031650923+1032102666
3912+1032655638+1033553623+1034529156+1034798565+1033988460+1032749220
3904+1032155461+1032489941+1033258722+1034251831+1035395947+1036232348
3895+1036370944+1035912560+1035342481+1035105876+1035033291+1034675198
3887+1034102503+1033696847+1033340564+1032632964+1031905372+1031888333
3878+1032398170+1032631018+1032365098+1031798910+1031198643+1031171139
3870+1032348528+1034069900+1034916498+1034698811+1034125915+1033531149
3861+1032771022+1031861030+1030870536+1029675638+1028448674+1028345097
3853+1030572818+1033461718+1034965134+1035481814+1035701313+1035697288
3844+1035244606+1034185217+1032718563+1031540369+1031572770+1033106442
3836+1035145858+1036418842+1036467343+1035598943+1034532577+1033924194
3827+1033994162+1034351183+1034253911+1033525582+1032899421+1032955503
3819+1033192577+1033494723+1034477099+1035727408+1035990981+1035044159
3810+1033485398+1032110984+1032037997+1033543023+1034787966+1034243446
3802+1032695620+1031969772+1032627530+1034173813+1036113677+1037415507
3793+1037234850+1036126222+1035178260+1034817818+1034872558+1035116408
3785+1035282709+1034987138+1034119005+1033106844+1032611765+1032792288
3776+1033083968+1033083968+1033036138+1033417241+1034324819+1035115536
3768+1035053886+1034471531+1034313414+1034705721+1034905094+1034550019
3759+1034055209+1033737030+1033232492+1032158278+1030669754+1029580916
3751+1030105780+1031924558+1032912301+1032493563+1031940054+1032308546
3742+1032820865+1032335983+1030818144+1028719358+1026876832+1026476610
3734+1027917169+1030232569+1032360402+1033846846+1034709478+1035252454
3725+1035589283+1035356837+1034438123+1033476744+1033115230+1033333923
3717+1033752392+1034031931+1034006103+1033884816+1034327167+1035696147
3708+1037337220+1038308192+1038168523+1037173602+1036155269+1035869425
3700+1036169759+1036381476+1036208936+1035824814+1035675754+1036207460
3691+1037427380+1038627779+1038753293+1037620045+1036016204+1034532443
3683+1033365788+1032636385+1032457137+1032772163+1033414021+1034411156
3674+1035529041+1035866943+1035148139+1034260016+1034516008+1035901625
3666+1037248334+1037845514+1037558597+1036552339+1035194159+1033986515
3657+1033604137+1034445570+1035695543+1036095430+1035469672+1034553105
3649+1034019855+1033859995+1034080231+1034865246+1036005940+1036994958
3640+1037490775+1037635408+1037749920+1037708395+1036948804+1035208380
3632+1032964358+1031170334+1030977535+1032552463+1034151139+1034658829
3623+1034414644+1034139399+1034393110+1035219449+1035954487+1035970453
3615+1035425665+1034898453+1034780855+1035137003+1036163789+1038057835
3606+1039931017+1040272407+1038872300+1036963093+1035791339+1035494828
3598+1035435392+1035166855+1034681101+1034246129+1034018447+1033753197
3589+1033295283+1033220954+1034302882+1036108310+1037479505+1037822572
3581+1037243705+1036423001+1036029219+1035937783+1035672601+1035351806
3572+1035297803+1035250375+1034912004+1034787630+1035569560+1036706095
3564+1037190507+1037115642+1037059962+1037269264+1037657746+1037970424
3555+1037858461+1037204125+1036436082+1036140511+1036357259+1036737155
3547+1037045942+1037091827+1036744802+1036409919+1036790687+1037910183
3538+1038871092+1038835873+1037991153+1037164412+1036770831+1036658801
3530+1036608018+1036518998+1036359405+1036241405+1036414548+1036985029
3521+1037675322+1038041533+1037964454+1037779168+1037788359+1037794128
3513+1037404907+1036694355+1036224969+1036383623+1036925124+1037322461
3504+1037359492+1037225257+1037143280+1037077941+1036896747+1036654708
3496+1036614995+1036962221+1037453409+1037586839+1037250480+1036889301
3488+1036897619+1037227940+1037645604+1037901194+1037707791+1037013943
3479+1036173248+1035651536+1035839707+1036917677+1038439877+1039470956
3471+1039539248+1038966419+1038166108+1037279863+1036512357+1036127094
3462+1036058400+1036023181+1035952139+1035989840+1036258444+1036824162
3454+1037651239+1038462485+1038879545+1038741419+1038137128+1037255512
3445+1036338878+1035668307+1035464976+1035753101+1036225238+1036413944
3437+1036238185+1036194245+1036698045+1037493324+1038050992+1038275321
3428+1038485561+1038880752+1039239584+1039118766+1038365481+1037391826
3420+1036798469+1036818594+1037259671+1037760049+1037976059+1037752804
3411+1037207949+1036600773+1036173113+1036043306+1036099858+1036042702
3403+1035591429+1034645144+1033388261+1032297746+1031833726+1032039338
3394+1032603983+1033220149+1033705232+1033987588+1034180521+1034492528
3386+1034945747+1035362673+1035759676+1036459964+1037490976+1038228563
3377+1038165773+1037720269+1037643055+1037978609+1038187038+1037933528
3369+1037340909+1036807727+1036671010+1036778210+1036713944+1036680267
3360+1037372036+1038664608+1039395957+1038868074+1037686324+1036759091
3352+1036349745+1036405358+1036959739+1037844709+1038570624+1038769997
3343+1038471742+1037919776+1037343660+1036796390+1036117233+1035303774
3335+1034852098+1035298474+1036478211+1037675188+1038428741+1038814809
3326+1039019817+1039093274+1039121114+1039207451+1039195242+1038818432
3318+1038202400+1037828072+1037973577+1038498173+1039049066+1039216641
3309+1038759666+1037960563+1037534379+1037971632+1039012304+1039773639
3301+1039508993+1038383258+1037310386+1036940553+1037172998+1037676463
3292+1038309265+1038895712+1039126883+1038915032+1038527623+1038215146
3284+1037968949+1037809021+1038038783+1038845533+1039751099+1039944166
3275+1039273461+1038473419+1038240169+1038524940+1038896048+1039074826
3267+1038912416+1038377489+1037830018+1037818278+1038350522+1038809174
3258+1038747591+1038357431+1038006314+1037739991+1037420270+1037036147
3250+1036706430+1036581788+1036817387+1037419599+1038119015+1038723776
3241+1039426547+1040275426+1040718582+1040374375+1039819658+1039820463
3233+1040242354+1040396244+1039997162+1039313376+1038769259+1038661053
3224+1038935157+1039152845+1038923686+1038385137+1038096609+1038440951
3216+1039241060+1040015006+1040477818+1040655255+1040639021+1040499151
3207+1040395774+1040515050+1040804785+1040918492+1040600447+1040111540
3199+1040060489+1040767151+1041936355+1042925306+1043193306+1042620410
3190+1041540695+1040355658+1039211744+1038278809+1038008461+1038618589
3182+1039614918+1040326745+1040644723+1040801364+1040752392+1040319836
3173+1039683478+1039223484+1039091798+1039310626+1039923974+1040711270
3165+1041208428+1041269743+1041134100+1040902191+1040497205+1040015946
3156+1039594324+1039195644+1038874178+1038862170+1039203895+1039678245
3148+1040037278+1040068003+1039665097+1039015524+1038419014+1037994843
3139+1037861413+1038274247+1039184106+1040002193+1040186674+1039852932
3131+1039564136+1039675160+1040081688+1040498949+1040772316+1040877705
3122+1040825715+1040706641+1040655054+1040663640+1040604405+1040452058
3114+1040288440+1040104295+1039768205+1039214562+1038628584+1038344752
3105+1038431559+1038536076+1038376416+1038120424+1037970156+1037809356
3097+1037636682+1037814253+1038439810+1038974066+1038885918+1038274650
3088+1037605824+1037142207+1036774319+1036214169+1035320477+1034315897
3080+1033593202+1033285958+1033213239+1033281665+1033663036+1034432153
3071+1035279959+1035832327+1036081343+1036261597+1036535903+1037018035
3063+1037774808+1038568678+1039008279+1039072344+1038985470+1038626572
3054+1037779638+1036861193+1036579910+1036926532+1037223580+1037166693
3046+1037172328+1037567854+1038008796+1038035227+1037836190+1037941847
3037+1038345021+1038542113+1038386344+1038260562+1038355955+1038281626
3029+1037516401+1036005873+1034252771+1032871581+1032100519+1031858547
3020+1032046785+1032383747+1032237102+1031264922+1030023200+1029380067
3012+1029565956+1030209693+1030904078+1031365951+1031430821+1031161747
3003+1030680018+1029811349+1028105876+1025260245+1021579219+1018149892
2995+1016327291+1016760049+1019008499+1022092948+1025114472+1027498432
2986+1029064706+1029879305+1029994220+1029465733+1028464640+1027156840
2978+1025736943+1024609599+1024013693+1023459044+1022152921+1020022941
2969+1017790256+1016055198+1014737671+1013395457+1011730436+1009671363
2961+1007184028+1004269167+1001162177+998334660+996216822+994969800+994512087
2951+994683553+995367943+996438668+997568964+998222227+998004741+997031019
2941+995811300+994802828+994195988+994038340+994262401+994563473+994564815
2931+994218125+993834741+993720229+993942813+994315933+994468415+994167007
2921+993685077+993585927+994082616+994863539+995561413+996188915+997072745
2911+998400133+999891676+1001102205+1002027694+1003079166+1004424936+1005758563
2901+1006763479+1007447332+1007977831+1008491694+1009091625+1009833036
2893+1010679366+1011533343+1012310979+1012983898+1013585640+1014176246
2884+1014797510+1015469556+1016178431+1016825321+1017247882+1017369103
2876+1017274112+1017094328+1016918367+1016876037+1017114654+1017551772
2867+1017829030+1017668565+1017145110+1016528743+1015995360+1015516783
2859+1014906521+1013978550+1012809278+1011839984+1011543070+1011940006
2850+1012605478+1013207086+1013805742+1014524948+1015158690+1015232415
2842+1014316720+1012332513+1009707455+1007175307+1005383698+1004759080
2833+1005523233+1007509183+1010083661+1012559726+1014670990+1016570201
2825+1018483031+1020434903+1022222554+1023588113+1024425990+1024897724
2816+1025368653+1026116168+1027058764+1027911131+1028562449+1029147420
2808+1029826040+1030631516+1031410763+1031886790+1031917380+1031650990
2799+1031349448+1031187776+1031247548+1031528226+1031921808+1032260581
2791+1032420844+1032427083+1032464986+1032693406+1033053647+1033374374
2782+1033591659+1033742329+1033823568+1033788148+1033646601+1033467017
2774+1033269925+1033046066+1032910825+1033050695+1033458095+1033963102
2765+1034535999+1035251515+1035985547+1036482236+1036691068+1036787535
2757+1036897351+1036934113+1036713876+1036247778+1035831992+1035703258
2748+1035726201+1035630472+1035417548+1035305920+1035369918+1035431568
2740+1035341877+1035258693+1035481680+1036002653+1036435613+1036459763
2731+1036109585+1035605517+1035171685+1035010080+1035168264+1035440558
2723+1035612896+1035729622+1035961397+1036319557+1036648201+1036788742
2714+1036677852+1036412469+1036259652+1036479485+1037097328+1037890460
2706+1038571563+1038957563+1039045577+1038965614+1038812059+1038542650
2697+1038151282+1037862084+1037913470+1038196832+1038402981+1038484354
2689+1038597860+1038680977+1038550834+1038360718+1038475298+1038921204
2680+1039365165+1039578425+1039594793+1039471694+1039195845+1038822658
2672+1038498576+1038326640+1038339922+1038552981+1038901616+1039205170
2663+1039336789+1039332428+1039247634+1039083681+1038908726+1038875386
2655+1039100452+1039571582+1040041438+1040092824+1039621828+1039133726
2646+1039173641+1039634842+1039989380+1039992735+1039826098+1039701121
2638+1039601233+1039381668+1039016866+1038740950+1038865793+1039408166
2629+1040041505+1040509817+1040874686+1041152883+1041025357+1040291191
2621+1039392737+1039001705+1039178336+1039373282+1039241798+1039024446
2612+1039046248+1039267961+1039528850+1039852865+1040230614+1040421602
2604+1040235645+1039756398+1039140501+1038478719+1037964118+1037920916
2595+1038486031+1039385357+1040181039+1040682826+1040947942+1040961895
2587+1040616749+1040040297+1039663554+1039854877+1040577505+1041442014
2578+1042084007+1042482821+1042835816+1043254285+1043761305+1044361504
2570+1044857321+1044949092+1044844575+1045301148+1046582450+1047767285
2561+1047669209+1046231333+1044415239+1042965825+1041999750+1041561692
2553+1041721218+1042195031+1042516631+1042486510+1042116409+1041469519
2544+1040802236+1040487612+1040668537+1041197225+1041795144+1042196305
2536+1042406815+1042792010+1043623850+1044750457+1045867068+1046724399
2527+1047020508+1046648595+1046035314+1045665279+1045433236+1045038582
2519+1044722818+1044978139+1045726527+1046314383+1046256489+1045745713
2510+1045467583+1045888065+1046690723+1047155011+1047062032+1046766260
2502+1046426279+1045852712+1045140616+1044743882+1044818614+1045043680
2493+1045117875+1044990416+1044654191+1044158307+1043829529+1044153544
2485+1045363804+1047180503+1048835193+1049455451+1048810037+1047692084
2476+1047130793+1047220552+1047172453+1046514427+1045732699+1045622144
2468+1046315859+1047117444+1047259594+1046729229+1046113936+1045737797
2459+1045437731+1045133573+1044950434+1044769643+1044367139+1044004283
2451+1044211102+1044975925+1045700901+1045932407+1045739273+1045437999
2442+1045252579+1045192472+1045062128+1044594420+1043717700+1042752833
2434+1042235147+1042454645+1043232751+1044152874+1044827268+1045032611
2425+1044898175+1044851217+1045056896+1045199650+1045127803+1045184489
2417+1045551237+1045899469+1046009889+1046064093+1046160425+1046185917
2408+1046201749+1046431981+1046959059+1047670349+1048270012+1048338974
2400+1047769767+1047012994+1046564471+1046479543+1046614919+1046949734
2391+1047487143+1048135240+1048671911+1048658696+1047750045+1046337996
2383+1045393590+1045347570+1045602623+1045438938+1044932925+1044610587
2374+1044603275+1044563024+1044196948+1043589235+1042931679+1042084678
2366+1040868380+1039936854+1040392756+1042080787+1043461038+1043721390
2357+1043692678+1044176890+1044710542+1044459178+1043430716+1042370589
2349+1041952992+1042339999+1043106969+1043537782+1043375841+1043024120
2340+1042832864+1042832328+1043110659+1043882391+1045137799+1046487057
2332+1047394366+1047455211+1046562124+1045067025+1043750236+1043281454
2323+1043572464+1043980200+1044286974+1044853296+1045644617+1046013243
2315+1045596787+1044727514+1043864346+1043168015+1042749009+1042898808
2306+1043792633+1045075277+1046036857+1046321829+1046273462+1046475183
2298+1047157225+1048048769+1048571352+1048295906+1047499017+1047019904
2289+1047327685+1048071846+1048710283+1049092795+1049267482+1049282106
2281+1049341207+1049642749+1049932887+1049637650+1048547202+1047172520
2272+1046392401+1046681801+1047572675+1048096466+1047895281+1047479160
2264+1047219545+1046694077+1045415727+1043731117+1042448272+1041801919
2255+1041431549+1041313281+1041774482+1042518576+1042902162+1043309629
2247+1044712890+1046691797+1047618024+1047147296+1046838241+1047809146
2238+1049239374+1049852252+1049724189+1049721572+1050060883+1050449164
2230+1050896546+1051472126+1051956874+1052318926+1052802064+1053388511
2221+1053763644+1053538175+1052274181+1050045655+1047986314+1047468963
2213+1048800444+1051019712+1052707341+1053121517+1052849224+1052937975
2204+1053380125+1053284329+1052381112+1051411952+1051143817+1051582948
2196+1052087419+1052041735+1051430936+1050728300+1050254822+1049706210
2187+1048497023+1046816371+1046050274+1047421736+1050406767+1053459821
2179+1055954334+1058151465+1059590347+1059081851+1056612427+1053923639
2170+1052562775+1052338246+1052088694+1051160588+1050006478+1050211285
2162+1053228314+1057790755+1060227376+1059254458+1057174322+1055447046
2153+1053893183+1053057787+1053832539+1055701697+1057146348+1057100060
2145+1055623410+1053910222+1052961790+1051933663+1049520321+1047064313
2136+1047678332+1051913605+1056871773+1059888065+1060674087+1059958839
2128+1058340373+1056470612+1054983631+1054282470+1054670081+1055903082
2119+1056663679+1055773879+1053983746+1053161767+1053736005+1054344925
2111+1054076187+1053623036+1053847163+1054363038+1054190498+1053255282
2102+1052565258+1052878137+1053710178+1054078938+1053901635+1053939336
2094+1054444142+1054773323+1054430726+1053686229+1053049603+1052799179
2085+1053045243+1053581444+1053737481+1053168476+1052634018+1053066106
2077+1054126299+1054776006+1054959279+1055396331+1056062339+1056295255
2068+1056232934+1056916384+1058753945+1060545554+1060587817+1058591603
2060+1055850690+1053764851+1053077510+1054020977+1055680968+1055790314
2051+1053131244+1049726537+1048882689+1051278052+1054631642+1057075306
2043+1059144105+1062026565+1064713408+1064473583+1060778201+1056735862
2034+1055146980+1055294766+1055383786+1055502256+1056168936+1056778259
2026+1057277698+1058933395+1061888439+1063879555+1062903217+1059932743
2017+1057757616+1058073044+1060580840+1063682195+1065259135+1064418373
2009+1062848275+1062579537+1062780319+1061193182+1058005357+1055726719
2000+1055836334+1057202966+1057608287+1056174101+1054144345+1053506780
1992+1055105120+1058063518+1060747544+1061772317+1060473372+1057367188
1983+1054055526+1052227826+1052855596+1056105676+1060972409+1065024006
1975+1066255934+1064939078+1062143157+1057990397+1053149357+1050242210
1966+1051236058+1054646199+1057657191+1059444976+1060893451+1062478911
1958+1063535281+1063111848+1061048817+1058472663+1057235234+1058416916
1949+1061233365+1063736600+1064787536+1064900304+1064975840+1065078143
1941+1064999185+1065106385+1065744621+1066500858+1066665012+1066053542
1932+1064978859+1063844336+1063054290+1062705252+1062208429+1060985759
1924+1059533930+1058908775+1059203877+1059673934+1060047926+1060654364
1915+1061402484+1061620171+1061100137+1060685424+1061276903+1062470123
1907+1063189195+1063270434+1063243198+1063242728+1063106883+1062950243
1898+1063009411+1063314508+1063690714+1063862248+1063686958+1063286199
1890+1062878530+1062787564+1063504557+1065123357+1066780061+1067261589
1881+1066370446+1065101756+1064369737+1064172712+1064126089+1064238722
1873+1064793372+1065787219+1066718813+1066942940+1066553653+1066447861
1864+1067112260+1068055191+1068405100+1067855214+1066957028+1066530509
1856+1066941934+1067897477+1068773860+1069098211+1068818136+1068304005
1847+1068069211+1068373302+1069104852+1069932130+1070534275+1070796237
1839+1070783760+1070500196+1069796285+1068713619+1067582853+1066686613
1830+1066320871+1066920199+1068481375+1070368779+1071835300+1072456697
1822+1072353522+1072063116+1072154753+1072765887+1073459199+1073741823
1813+1073580956+1073217630+1072667810+1071758757+1070599212+1069442552
1805+1068245172+1066863915+1065478231+1064430180+1063831188+1063609342
1796+1063705339+1064172645+1065224117+1066840973+1068437032+1069640450
1788+1070594449+1071303190+1071563945+1071415690+1071150843+1070965758
1779+1070914909+1071045052+1071406365+1071910769+1072225862+1072107995
1771+1071914794+1072062781+1072402896+1072575637+1072394578+1071944042
1762+1071505985+1071240936+1071015468+1070768666+1070542996+1070218444
1754+1069680566+1068869253+1067594660+1066047974+1065029842+1064779016
1745+1064829798+1064872866+1064787804+1064419446+1063812740+1063113726
1737+1062187499+1060825093+1059116064+1057469289+1055974594+1054064179
1728+1050915330+1045703785+1037015687+1022884604+1002760853+977170974+944148874
1718+900725017+853410229+816924522+792705434+772974258+753870181+735471156
1708+719672436+709960235+709243377+715837318+727050253+744741945+769239498
1698+792542421+811338314+829255073+844834764+855396113+863102439+870751409
1689+878302637+884936359+892612364+904458972+917540863+926618920+932605417
1679+937726331+942980742+948786784+954356019+957846863+958925840+959343101
1669+960865637+963199082+965475975+967887976+970790829+973789142+976276679
1659+978229558+979862513+981588246+984849259+991047138+996336030+997821468
1649+998090608+1000025643+1004125205+1007562515+1008686908+1008093685
1640+1006630049+1005069813+1004208523+1004743852+1006425578+1007975886
1632+1009023870+1010119618+1011700919+1013499974+1014905851+1015935387
1623+1017081313+1018309418+1019070350+1019235577+1019255367+1019512231
1615+1019476543+1018380325+1016055333+1012373032+1006707129+997982134+985233247
1605+968516082+949791298+932594550+919708410+911260069+905878668+902796768
1595+901982638+902784425+903643769+903778339+904492179+908136577+915886105
1585+926776031+938565148+949113885+957229423+962957580+967543232+972695877
1575+978091969+981265438+981629033+980297753+978438188+976761897+975460269
1565+974665928+974392696+974361502+975078025+979625573+989742491+998270863
1555+1002576909+1005407848+1008031297+1010520310+1012856640+1014885591
1547+1016329303+1017228764+1017869549+1018457606+1019700737+1022760298
1538+1026190833+1027869741+1028132709+1028290826+1029232617+1030478163
1530+1031194618+1031381581+1031402176+1031295915+1030840348+1030344599
1521+1030649562+1031679031+1032497924+1033099800+1034008921+1035094807
1513+1035851916+1035905516+1034921731+1032981733+1031474895+1031430552
1504+1030402828+1025976299+1016342384+998477884+968419750+926608120+886094898
1494+862666864+859331320+872645320+898680569+928813435+952950948+969301500
1485+980692743+988985852+994865417+998357401+999211714+997338196+992663389
1475+984205456+969591705+948545953+925821293+905552238+889207858+878675288
1465+875341019+876000721+875660271+872761644+868374829+865260192+866169178
1455+869585558+873620854+878732376+885548835+894125642+903883527+913141771
1445+919809505+922516272+920778934+915755090+910879703+911035472+919075876
1435+930744645+940138063+946863959+952643301+957661778+960730396+960941240
1425+957740669+950771058+940769188+930005314+922685927+923210791+930217768
1415+938672080+946117047+952454527+958264191+963947335+969527975+975154836
1405+981039567+986630403+991046735+994284136+996925429+999278530+1001393483
1395+1003512729+1005729113+1007449277+1007863520+1006549012+1003719616
1387+1000544738+998382759+997112593+995369351+992185551+987895605+983477797
1377+979345833+975376212+971794135+969284796+968499512+970228666+975151817
1367+982587862+990756732+998519878+1005560330+1011480817+1015966916+1019239737
1357+1021690713+1023594285+1025180416+1026644923+1028043823+1029273605
1349+1030149787+1030434491+1029760499+1027522917+1022728634+1014040536
1340+1000915041+985750196+973515507+967790033+968602486+973495248+979480739
1330+984922180+990038532+995534378+1001235903+1006256526+1009856917+1011715946
1320+1011689783+1009759579+1006268199+1001955176+997677640+994150773+991840740
1310+991103757+992453551+996376280+1002663112+1010184287+1017511589+1023637285
1300+1028168935+1031037508+1031933681+1029577562+1020964195+1001749966
1292+969710175+929605024+892582042+867332681+852882413+843597201+839098289
1282+844325799+861208326+885032759+909118282+929595633+945370270+956175468
1272+961558278+960676728+952848578+939135025+923602092+912037839+908381299
1262+912317512+920342621+928526047+934116750+935266433+930105805+916738272
1252+894550014+865587024+834319569+805717021+783483885+769914026+766419493
1242+773160416+788320632+808565268+830431120+851303863+869701680+885287879
1232+898546871+910151172+920545415+929980023+938704347+946984643+954897453
1222+962218718+968699758+974392763+979572778+984449104+989062529+993301625
1213+996878671+999377143+1000388030+999488972+996047502+989190256+978083919
1203+962472496+943716921+925979745+915429532+916178255+926172812+938058531
1193+945004663+945846364+944687155+945787330+949002995+950026896+944387223
1183+930729417+911252153+890586565+874084135+865583066+865862269+873048629
1173+884172341+896166803+906204293+912636227+916423849+920851653+928728305
1163+939888780+951765978+961877463+969256353+974173466+977487006+980201085
1153+982934216+985543175+987439636+988211302+987696768+985508694+980856964
1143+973211014+963411536+954125050+948774373+949510552+955973479+965894847
1133+976707693+986628994+994759358+1000753503+1004501948+1005930230+1004979853
1123+1001672820+995982565+987539591+975524937+959093482+938571320+916960520
1113+899899081+892669050+896262732+906479203+916981518+922953994+922261018
1103+914543086+900331235+880974722+858755270+836622827+817708531+804836545
1094+799895483+803124431+812933769+826648798+841473661+854827778+864602367
1084+870316236+874129954+879610638+888817966+900867772+913144186+922940376
1074+927821130+925823104+916769130+903588559+891620663+885838839+888163966
1064+896977914+908822174+920499396+930107348+936745431+939299582+935516522
1054+923372396+904843698+887780581+881447663+888849563+904500296+920077036
1044+930668706+935396978+934630411+928285887+915624478+895485365+867674003
1034+835385331+805701189+786192329+780390916+786545660+800140876+816908019
1024+834060894+850093804+864082065+875245491+883253292+888676218+892706147
1014+896467003+900693756+905746177+911605819+917903384+924065037+929491720
1004+933692109+936339574+937203010+935927343+931731851+923273448+909032482
994+888370785+862816326+836566745+815397827+804212397+804620066+814325961
984+828996465+845029173+860767921+875673822+889277088+901150664+911206200
975+919615297+926673124+932748440+938099787+942775399+946864429+950662717
965+954401838+957974724+961134509+963846240+966285476+968613488+970874885
955+972953277+974488492+974696452+971926760+963891924+950166833+935184792
945+926530571+927981729+935222761+940568742+941270171+941179675+944878947
935+952593927+961156311+967878651+972370855+975585850+978283091+980521478
925+982214406+983703869+985473274+987460499+989073598+989876390+989969637
915+989716395+989233324+988054661+985268735+980367923+974264230+969168406
905+967025680+968032542+970603933+972403995+971468644+966872796+958372465
895+945695425+929740802+915051850+908705515+914523162+929336689+946171184
885+959995492+969694880+976207583+980632971+983844746+986494625+988802445
875+990680189+992212452+993740018+995467629+997274332+998931974+1000362672
866+1001698781+1003032543+1004089181+1004491952+1004453111+1004753848
857+1005903464+1007696951+1009614879+1011289225+1012502705+1012941970
849+1011995216+1008467342+1000303839+985591744+965527227+946205598+935284277
839+935967862+945154595+957243510+968335224+977112947+983812210+989283033
829+994176064+998338618+1001200684+1002804592+1003966820+1005336605+1006885773
819+1008476734+1010284242+1012372630+1014354958+1015818191+1016919172
810+1018332360+1020505676+1023039501+1024972053+1025625316+1025077979
802+1024053272+1023399943+1023254035+1022603188+1019807467+1013177971
793+1001135612+983456733+963704559+949270123+946752935+956703955+973593324
783+990717421+1004386899+1013989217+1019689735+1020530833+1013964261+997012437
773+968535603+931239724+891627103+856093450+825157389+793687408+760197330
764+733485541+725035992+736014938+756384686+776021274+792472519+808539038
754+826404277+844571997+857848632+860174899+850620010+837607484+833770555
744+844261868+862515925+878866678+890075453+898967688+908434161+918598641
734+928125355+936060639+942420793+947777775+952677581+957411421+961954542
724+965984203+969166460+971427723+972932951+973988180+974841219+975355349
714+975142895+974282142+973572663+973852067+975353941+977856571+981042585
704+984392687+987101466+988614006+989147054+989421159+989963063+990298012
694+988103364+980042499+965675282+950678549+943511644+947325697+956612721
684+962646042+960894751+953711679+947788308+948711985+956623790+967038023
674+975546270+980750234+983483767+985200443+987393885+990401925+992838613
664+994124409+994840060+995662910+997003783+998725088+1000163165+1000841047
654+1000974276+1000943819+1000769871+1000553861+1000895519+1002261481
646+1004192154+1005718111+1006562630+1007348048+1008458219+1009431807
637+1009878250+1010282363+1011352485+1012952234+1014136935+1014002835
629+1011548974+1004266752+988880664+966451710+945675635+936984988+943056748
619+957634140+972795228+984720727+993292569+999311803+1003091308+1004541729
609+1003977285+1002712419+1002423354+1003765501+1005715495+1006319384
601+1004457807+1001253076+999343266+1000305919+1003089229+1005142062+1004770417
591+1002014679+996830908+986782885+967881804+939107521+906325514+880414169
581+870428199+877692711+896171364+917810875+936912202+951627048+962999574
571+972200932+978837337+982189183+982922141+982077287+978981970+971505205
561+958417746+941136942+923607391+911054993+907863881+914965044+928842415
551+943488232+953974312+958873112+959205311+955360131+946719125+934782758
541+924614253+921514375+926790722+937517432+949559456+960042518+967984778
531+973671813+977514444+979280091+978092304+973328746+966157346+959521410
521+956007960+956352771+959896878+965833599+973259582+980483374+985856322
511+989325833+992103373+994700525+996476571+997259708+997618875+997240388
501+995279593+992716050+991728911+992520903+992640983+989607988+983771222
492+978313211+976474778+978893017+983559035+987619085+989445779+989854789
482+990806307+992636891+993258088+990047722+981868723+968964538+952955107
472+938727826+932724961+936979151+947593764+958357706+964792458+965037716
462+958706341+947546672+936789304+933192602+938553341+948133857+957629108
452+965493954+970655454+972789727+973646254+975695062+979761149+984860395
442+989584374+992925754+994506854+994575011+994154798+994995761+997745127
432+1000309877+1000324434+998913057+998865628+999631391+998033721+993755716
422+989960312+988831760+990722452+995057076+999234925+1000100106+995655732
412+985091969+968716260+947769658+925547524+908454689+902795359+909701643
402+924485318+940340455+951605044+957133292+962694477+971804466+980240732
392+984984635+987410119+987473312+982059711+971563970+963482310+964855986
382+973759558+984360285+993196773+997376434+993548427+982034286+971082845
##END=
