##TITLE=X8430
##JCAMP-DX=5.0
##DATA TYPE=LINK
##BLOCKS=1


$$ === CHEMSPECTRA SPECTRUM ORIG ===
##TITLE=X8430
##JCAMP-DX=5.00
##DATA TYPE=INFRARED SPECTRUM
##DATA CLASS=XYDATA
##ORIGIN=ComPlat
##OWNER=
##XUNITS=1/CM
##YUNITS=TRANSMITTANCE
##XFACTOR=1
##YFACTOR=8.7830565e-010
##FIRSTX=3997.453
##LASTX=373.96442
##MAXX=3997.453
##MAXY=0.9430735097822
##MINX=373.96442
##MINY=0.5758087032206436
##NPOINTS=2559
##XYDATA= (X++(Y..Y))
2559I76315424I75963418I75848186I75957514I76162325I76285564I76184448I75848322
2551I75406532I75054933I74938548I75023105I75143494I75224998I75409993I75885511
2543I76522950I76850594I76652908I76337480I76309249I76352138I76106609I75723182
2535I75564178I75677646I75926704I76287465I76741605I77143559I77377891I77427227
2527I77221466I76739773I76309859I76308842I76537880I76614497I76738076I77258313
2519I77832303I77871324I77349117I76564686I75773401I75299716I75456072I76103759
2511I76722468I77022286I77133244I77288854I77496380I77578427I77554810I77682461
2503I78103349I78669939I79085194I79126658I78809533I78307413I77625320I76592510
2495I75323807I74341894I74073088I74473345I75395946I76732376I77927243I78232357
2487I77597360I76877807I77229270I78698373I79611201I79015023I78014448I77905459
2479I78284475I78134837I77912246I78325261I78603975I77953710I76909024I76164564
2471I75726236I75714971I76643950I77922765I78266627I77852865I77851101I78432349
2463I78409547I77113564I75031792I72860304I71253575I71635713I75278339I79301202
2455I80495188I79561118I77962329I76512295I75653419I75550742I75884897I76241386
2447I76724979I77532415I78263370I78600107I78826906I79155768I79294891I78975662
2439I78356275I77530108I76355464I75314849I75675949I77356039I78133683I77590778
2431I77536691I78607165I79417789I79059609I77836307I76585452I76323839I77053640
2423I77431842I77194996I77557796I78524576I78583616I77992935I78269478I79461766
2415I80277279I80237647I79949293I79832978I79631221I79070331I78406697I78021573
2407I77931112I78078036I78529733I79074946I79285526I79084108I78753750I78713371
2399I79287019I80240225I80976541I81511846I82102799I82223189I81264281I79749778
2391I78941595I79205244I79356375I78302256I76309384I74986798I76230460I79078000
2383I80391017I80069210I80371880I82126551I82987396I81506485I78794196I76295405
2375I75135758I75976784I78300217I80574180I81720661I81616016I80665728I79563697
2367I79020588I79136091I79308939I79140909I78935284I79063002I79235035I78865249
2359I78076746I78036978I79730844I82014034I82870604I81921944I79952078I78099073
2351I77492783I78336187I79489658I80022995I80098595I80017023I79702952I79186988
2343I79080172I80231539I82235472I83098149I82016545I80008337I78192724I76959786
2335I76020151I75117639I75002067I77034367I80170666I81414870I80897345I80998800
2327I82673936I84214971I84352329I83542789I82635729I81994422I81348703I80492677
2319I79908849I79915432I79552975I78013905I76218583I76163750I78893005I82316704
2311I83980506I83977521I83288573I82726734I82685133I82847869I82548864I81641669
2303I80586124I79644251I78721650I78393396I79975152I82700946I83658699I82563930
2295I81004365I80018652I79971688I80869792I81993064I82410627I82175209I81819131
2287I81402587I80897616I81009862I82373709I84062146I84504546I83541635I82277140
2279I81684287I81727855I81799043I81671257I81567630I81635425I81762465I81904639
2271I82334824I83363426I84627107I85214463I84884580I84128788I83509264I83360576
2263I83701249I84324437I85016914I85569931I85668333I85111176I84195294I83748007
2255I84433154I85670301I86302446I86136182I85725338I85546043I85600537I85547197
2247I85205573I84887838I85066725I85601555I85800394I85497996I85367902I85913794
2239I86682141I87014467I86904257I86682888I86577292I86681734I86909551I86990172
2231I86822482I86694831I86958548I87584247I88159252I88298846I87969778I87518012
2223I87452796I88064854I89173196I90256632I90880295I90999599I90845210I90666594
2215I90621804I90675280I90559981I90118327I89639484I89550176I89800524I89989183
2207I90078423I90415429I91050835I91486517I91330907I90887557I90725703I90916534
2199I91095218I91137090I91247367I91456250I91523299I91300911I90914227I90664558
2191I90838424I91380108I91825494I91846328I91657125I91636766I91830041I92034309
2183I92181301I92434295I92891422I93333075I93489772I93449121I93467037I93522821
2175I93429645I93198978I92966478I92779040I92659940I92661365I92769268I92909813
2167I93001835I92918567I92523739I91772425I90788408I89908223I89499482I89561034
2159I89704022I89647764I89488896I89432976I89557234I89822172I90059354I89987080
2151I89463718I88716748I88131835I87800595I87462093I86932760I86352258I85842402
2143I85248666I84449034I83621849I83001512I82586732I82218710I81805558I81390643
2135I81038093I80664235I80058352I79118514I78009626I77034842I76352342I75858841
2127I75407890I75074003I75006954I75073188I74931083I74444297I73844185I73539412
2119I73838146I74696208I75715378I76562311I77350610I78438389I79914007I81469296
2111I82762498I83721065I84493009I85270993I86195019I87270176I88328231I89182154
2103I89819319I90362160I90935332I91639006I92511388I93443964I94279632I95026330
2095I95806011I96570558I97063313I97132126I96966065I96919782I97135248I97432896
2087I97602011I97683311I97843672I98053369I98096191I97902238I97727354I97937323
2079I98615887I99393125I99729115I99434386I98835968I98379245I98196628I98151972
2071I98171315I98369815I98870442I99576152A000199679A000522301A000552432
2064A000405101A000152718I99875697I99701088I99651005I99566447I99337070
2057I99111425I99173519I99670346A000438897A001030664A001023471A000461699
2050I99877329I99734816I99962158A000128015I99962701I99590132I99336052
2043I99414569I99774177A000193436A000515311A000762469A000998429A001181388
2036A001268253A001330687A001362922A001164558A000674993A000177895I99891648
2029I99679236I99456238I99500281I99996700A000678454A001240701A001698167
2022A002032732A001949261A001354640A000705871A000527255A000816827A001139924
2015A001131237A000801694A000472286A000446158A000696098A000911564A000836440
2008A000495902A000138670A000023710A000192621A000434893A000520129A000404354
2001A000185292I99997107I99982042A000183256A000417859A000401436A000086822
1994I99802001I99939424A000504249A001079051A001260720A001030393A000652462
1987A000360040A000252137A000341513A000518500A000583378A000499567A000521554
1980A000885505A001436147A001740242A001527219A000919436A000303917A000041829
1973A000228724A000646898A000954997A000970334A000799318A000679811A000694741
1966A000648323A000243111I99417148I98555625I98260352I98783917I99758229
1959A000593489A001037111A001243890A001440558A001648016A001700406A001483852
1952A001102396A000779774A000689109A000883333A001236697A001469807A001356408
1945A000869693A000129916I99403101I99057405I99211591I99485690I99397129
1938I98922222I98451523I98291908I98380877I98450505I98312471I97918522I97273214
1930I96468149I95739030I95279121I94999117I94630620I94056090I93401957I92816976
1922I92294632I91751523I91133289I90366910I89399995I88394939I87623947I87052946
1914I86334138I85348697I84455549I84052238I84086034I84113451I83765991I83028114
1906I82033101I80789646I79334252I77951606I76877467I75916389I74672860I73078213
1898I71491297I70342783I69746944I69412650I68996309I68522624I68296164I68462429
1890I68811721I68950773I68598630I67810128I66878909I65941650I64822042I63326405
1882I61445915I59228349I56754531I54329779I52437209I51382276I51080692I51230466
1874I51621086I52238438I53105594I54077124I54872956I55373040I55830370I56638010
1866I57832946I58966058I59556468I59553957I59279722I59069481I59088687I59375544
1858I59945934I60826188I62004226I63448355I65199023I67255414I69328363I70979950
1850I72079470I72853315I73493740I74046282I74614430I75317428I76052047I76588370
1842I76895383I77186177I77613783I78052044I78222720I77964229I77298423I76316646
1834I75115399I73795256I72422315I71034241I69754477I68790140I68201902I67776671
1826I67246795I66518148I65607016I64545296I63451477I62491009I61669525I60837114
1818I59889676I58783506I57435403I55838785I54159578I52505344I50717623I48582239
1810I46134142I43578481I40966630I38133069I34998535I31807539I28944322I26589197
1802I24690927I23231257I22367901I22288976I22992921I24249545I25801305I27606874
1794I29816907I32490582I35456476I38479578I41384871I43977720I46061121I47658078
1786I49054364I50475284I51771743I52539886I52592073I52264022I52151709I52564521
1778I53368496I54331882I55449793I56873699I58677978I60765654I62904432I64806570
1770I66272754I67335017I68191247I68958102I69581222I70024640I70382211I70712637
1762I70874695I70609689I69753187I68364434I66652517I64734567I62480965I59674414
1754I56285529I52568185I48986569I46059897I44134077I43266514I43391789I44474683
1746I46396501I48868894I51588173I54339008I56941495I59341138I61710039I64185825
1738I66563752I68523777I70045881I71334536I72476877I73451257I74351734I75328421
1730I76326282I77099312I77525833I77784459I78154517I78731694I79389899I79935723
1722I80267031I80453044I80668307I81021399I81515715I82141346I82823032I83290541
1714I83275476I82895238I82606141I82703592I83066932I83437940I83736810I84018306
1706I84295256I84539564I84762019I84974160I85130584I85168181I85067268I84843930
1698I84546214I84278630I84188236I84382325I84827372I85340350I85728595I85954647
1690I86126545I86345336I86611631I86846234I86945315I86873244I86733514I86671894
1682I86684584I86628122I86427925I86194205I86149211I86464979I87066518I87607185
1674I87806974I87770531I87770396I87835476I87826451I87796726I87972764I88389512
1666I88783525I88896111I88751358I88561613I88453982I88418421I88454657I88608913
1658I88862383I89133360I89377329I89598020I89775754I89860786I89834727I89741822
1650I89679659I89776500I90104551I90547155I90839442I90845481I90709891I90668697
1642I90832248I91162538I91476541I91540129I91371082I91301862I91532054I91856983
1634I92030848I92099254I92180962I92212450I92092604I91896208I91822169I92009403
1626I92430359I92905876I93233656I93344951I93331990I93306202I93258154I93123921
1618I92965596I92946527I93085103I93190902I93123921I92969125I92888436I92974622
1610I93282042I93796378I94332972I94681382I94836653I94862780I94628177I94001460
1602I93236845I92821794I92962407I93478981I94109431I94656747I94945098I94922432
1594I94769943I94722575I94809100I94858705I94731193I94509552I94456415I94714363
1586I95073699I95166468I94862305I94358556I93937601I93739508I93694922I93632420
1578I93510131I93516917I93874895I94575515I95346984I95842996I95891519I95614297
1570I95300159I95187641I95381527I95854940I96437207I96926025I97267785I97478228
1562I97386817I96779441I95862609I95220759I95155746I95386277I95549488I95672795
1554I95947913I96314239I96567843I96771365I97231681I97984963I98618195
1547I98777877I98562479I98233071I97895180I97626713I97541273I97623184
1540I97793928I98065313I98362622I98419152I98110171I97671432I97428756
1533I97469678I97598957I97529940I97221027I97023613I97338430I98204772
1526I99341956A000358954A000816148A000481719I99722126I99266492I99409955
1519I99735970I99705296I99273889I98894330I99074439I99927208A001059710
1512A001910171A002180199A001916211A001344531A000813027A000741363A001278568
1505A001995950A002272425A002013188A001627589A001378599A001230725A001154718
1498A001072196A000758940A000258041A000018213A000313825A000942917A001594947
1491A002092045A002335334A002381615A002434007A002579574A002700775A002635561
1484A002299570A001791411A001406966A001352879A001504621A001607366A001565087
1477A001421149A001239886A001071178A000903285A000690669A000521215A000633325
1470A001107350A001637766A001805458A001535838A001086923A000639908A000197100
1463I99915061A000183799A001129473A002253966A002902128A003011184A003092891
1456A003510182A004088377A004418192A004272015A003706986A002986007A002446630
1449A002349789A002704714A003155190A003228075A002852316A002459049A002456674
1442A002834740A003301299A003544657A003399226A002997611A002701117A002780246
1435A003256985A004003141A004812613A005443809A005773624A005903786A006026479
1428A006182636A006193765A005844609A005131231A004326373A003790729A003676854
1421A003759648A003576892A002776038A001350571I99615037I97939834I96356110
1414I94443114I91871302I89002384I86553676I84708543I82990925I81026624
1407I79130119I78093169I78411176I79662845I80787678I81084308I80878479
1400I81236932I83074193I86253246I89455846I91270577I91211468I89690517
1393I87620621I85902189I84786111I84102932I84017356I84742814I85888481
1386I86699107I86725777I86100825I85422260I85339875I85977585I86884170
1379I87652585I88313776I89135803I90258465I91501651I92494015I93129282
1372I93822166I95008754I96459127I97529669I98082550I98614259I99475714
1365A000546256A001677061A002860799A003901074A004465696A004576924A004638408
1358A004932052A005424739A005975514A006436308A006706404A006902325A007277202
1351A007904119A008636705A009259893A009512141A009260979A008824211A008753023
1344A009199834A009831434A010297997A010495614A010496429A010468605A010558727
1337A010749762A010931432A011097222A011308752A011505148A011524828A011294500
1330A010885014A010503554A010463447A010847621A011197252A010978936A010337222
1323A009940561A010172246A010791362A011224398A011097018A010674366A010558184
1316A010876936A011334064A011902351A012576097A012763196A012034684A011098783
1309A011028476A011924271A013073467A014035292A015001051A016271317A017722368
1302A018763933A018726133A017418816A015469852A013905605A013128300A012569175
1295A011665644A010820001A010956270A012325000A014079267A015057991A014949952
1288A014463848A014317874A014646197A015515185A017093412A018950285A020046683
1281A019850084A018936713A018193814A017727119A016814494A014929593A012570193
1274A010925935A010809210A011808157A012557706A012312788A012047443A013149541
1267A015291711A016715889A016525397A015589495A015254522A016180923A018137216
1260A020108167A021034636A020826092A020362111A020370730A020580427A020360754
1253A019879061A019799322A020179017A020579274A020810009A020770919A020255091
1246A019502488A019128019A019230357A019427635A019665360A020077357A020384167
1239A020213559A019707503A019271142A018957004A018526208A017951949A017543752
1232A017627631A018282918A019262252A020014516A020039761A019415963A018691591
1225A018193271A017811405A017498962A017523122A018052048A018742420A019022017
1218A018845776A018892601A019715101A020994257A022008202A022401876A022097306
1211A021004844A019338327A017867188A017321432A017616094A018076275A018411177
1204A018924090A019664613A020145424A020148139A019976513A019713203A019137316
1197A018506460A018529194A019497806A021028053A022541267A023643569A024277615
1190A024705289A025034901A024818960A023572381A021582698A019808619A019100738
1183A019671128A021092048A022578185A023240529A022520976A020890766A019736141
1176A019934505A021083973A022501567A023879801A024443202A023150882A020607844
1169A019199682A020493834A023416771A025401294A025033340A023355354A022323223
1162A022316301A022117326A021151225A020386339A020763862A021946853A022788425
1155A022539774A021551754A020785035A020830843A021783235A023514697A025455314
1148A026632197A026658393A026274626A026318059A026487377A025792662A024298110
1141A023416295A023969652A024953669A024960048A024227125A024195637A025329020
1134A026463897A026385718A025099846A023416295A022246402A022134020A022731013
1127A023413106A024407166A025908776A026747293A026023668A024804438A024337946
1120A024100085A023195536A022107757A021794975A022302253A022874476A022773970
1113A021871389A020720022A020037182A020139789A020752664A021047191A020346571
1106A019055812A018202908A018200261A018618841A018986321A019195204A019222281
1099A019081397A019025410A019361808A020056727A020695456A020934266A020985028
1092A021409580A022384028A023314569A023443441A022686087A021674925A021258449
1085A021780317A022641569A022935620A022445716A021682187A021208569A021261503
1078A021758736A022340256A022567462A022352675A022067718A022101378A022490503
1071A022959033A023190311A023186986A023261092A023653545A024330820A025081659
1064A025641666A025827611A025727919A025597962A025518291A025413917A025375371
1057A025626532A026101236A026399223A026410488A026388229A026408181A026238794
1050A025745225A025143140A024755576A024750283A025122445A025681637A026122477
1043A026300957A026319077A026332989A026497421A026993026A027799852A028672980
1036A029482588A030169025A030593713A030691096A030561749A030365692A030346894
1029A030782440A031574200A032304137A032840121A033263723A033497512A033476135
1022A033359885A033332808A033431277A033616747A033839203A033995696A033937265
1015A033574672A032997224A032419369A032007100A031815929A031829434A031908495
1008A031793738A031394431A030914163A030471084A029977515A029556152A029681020
1001A030399757A031084092A031376990A031426937A031480074A031634191A031870830
994A032130272A032317710A032332165A032117242A031746573A031534772A031843007
987A032549870A033279874A033944459A034448479A034573958A034371861A034239053
980A034475488A035000614A035631606A036133387A036151710A035605275A034911985
973A034743073A035381598A036267552A036788063A036946657A037052594A037325268
966A037761357A038080857A037927962A037351871A036948288A037451698A038620099
959A039504560A039872786A039895995A039770855A039751853A039947367A040109425
952A039934813A039480604A039161715A039418781A040163512A040936949A041492206
945A041824328A042072029A042422474A042983907A043655481A044190786A044596269
938A045246534A046258578A046980168A047208731A047547912A048113416A048518966
931A048749362A048987833A049151994A049136114A049291182A050174965A051477938
924A052351134A052661608A052567686A052302273A052270988A052698255A053260433
917A053624248A053953113A054565647A055306713A055856473A056240511A056669474
910A057264906A057953308A058525262A058744596A058574530A058505513A059421531
903A060729119A061195340A061163783A061493666A062643880A063975628A064870879
896A065390847A065625111A065582832A065549715A066103343A067185354A067878373
889A067869958A067464541A067052071A066840541A066644688A066167406A065344972
882A064256106A062923884A061195883A058718604A055348924A051490018A047152201
875A041695117A034497748A025139953A013424455I99536791I83923637I67003845
868I49033258I29803470I08617185H85146896H60305431H36208221H15064622
861G97732765G83711003G72587883G64944042G62060602G65247051G75046228
854G90190990H07544971H24594382H42316386H63698116H86210788I03016570
847I14215697I24150057I34580769I43006937I47478102I49009300I48786440
840I47317473I45343807I44880437I47861939I51332057I53240574I54878521
833I57651276I62449137I69203156I76649851I83727309I90587330I97448776
826A004036326A011401385A020732305A028621540A032788409A035065898A037637304
819A041154247A044326920A046263193A047344254A047900936A047824522A046857539
812A044294617A039349221A032487843A024137953A013908931A003173377I94572597
805I88837612I85048334I81873693I76330691I62080844I37706616I12017336
798H87076587H60142288H30657960H00605415G73316734G52541700G39430323
791G31344625G24454134G14889831G00497401F83779977F69166448F59342976
784F55590344F58038645F65388163F75958809F88975584G04336559G22519828
777G44311453G67133173G85672725G99306988H11360309H24722712H39221687
770H51323191H58753331H62786171H66218013H71831455H79116299H84249405
763H86537278H87503786H88776492H92160152H98813055I07449734I14949027
756I18772576I17579541I11194155I00434782H86728313H73503401H65490045
749H63629032H66405723H73265676H83351303H94320713I04561340I14148512
742I22975345I30124192I35322310I38978102I40625210I39569462I36551992
735I32979944I30306608I29867940I32107630I36361025I41784246I47620346
728I52605307I55589591I56427770I55511074I53450950I51290321I50268233
721I51108991I53446403I56477853I60061981I64578821I69836184I74744187
714I78546018I81303981I83304182I84818346I86155590I87709319I90022911
707I93425302I97417627A001229571A004749908A008145851A011254054A013906827
700A016380780A019099516A021983635A024477201A026289149A027603795A028660493
693A029439088A029769514A029524120A028586454A026788554A023924727A019857820
686A014678907A008593409A001579542I93449393I84316837I74665670I64916576
679I55272467I45752751I36080953I25721294I14307312I02242861H90876995
672H81826145H75799889H71897757H67971192H61825227H52558709H41014158
665H29169856H19479328H14290371H15052679H21864245H33485346H47633265
658H61831064H74319863H84075675H90239284H91973528H88927352H81681597
651H71697629H60855123H50870476H42695470H36130586H30061307H23242343
644H15026891H05611480G95809657G86550603G78430973G71578689G65764847
637G60663434G56203124G52723913G50736471G50599251G52490599G56518484
630G62661463G70621071G79824612G89560269G99149138H08122623H16245375
623H23347871H29268461H33982104H37635045H40475189H42922472H45570630
616H48818157H52546562H56374726H60140591H63992711H68152726H72720192
609H77643939H82816338H88149708H93492918H98539905I02953321I06609384
602I09713651I12672146I15778655I19016341I22216498I25324905I28395783
595I31438295I34379622I37115324I39548560I41611805I43244730I44377367
588I45024850I45394569I45830115I46638705I47893699I49296025I50263890
581I50281942I49230876I47452181I45561648I44116365I43252127I42478351
574I40826288I37366350I31744629I24310079I15821341I07120801H99057905
567H92639742H89087506H89446300H93932468I01721740I11387633I21450662
560I30648503I38081968I43330780I46339360I47107097I45630936I42278290
553I38123362I34807364I34031959I36896805I43223217I51414986I59377648
546I65768802I70331857I73330121I75081330I75884968I75991649I75647515
539I75327404I75770615I77551756I80581917I84084337I87057557I88773685
532I88943411I87618518I85106764I81976845I79023438I77025341I76298187
525I76407990I76489697I76000471I75141798I74557563I74776083I76011940
518I78289701I81479408I85183857I88756109I91453943I92584680I91779415
511I89500025I87252735I86857975I89166953I93487057I98257841A002095642
504A004188543A004119798A001714590I97020830I90276856I81984446I73172747
497I65533792I61008605I60876543I65029025I72136815I80565019I89110966
490I97047772A003920823A009598531A014342373A018503338A022181185A025339471
483A028041920A030318527A032030038A033160910A034025148A034947271A035950360
476A036890876A037685419A038360047A039059581A039976277A041080004A041890223
469A041537606A039010787A033416822A024371606A012647625A000602583I91498190
462I87768835I89657604I95340130A002090959A007469119A010186905A010625301
455A010602635A012171768A016164975A021722973A027239641A031687939A034968583
448A037212344A038173084A037370056A034558282A030039134A024842577A020613273
441A018841161A019927445A023074672A027001509A030580140A033119106A034573619
434A035490451A036458248A037601675A038667264A039408398A039750225A039737806
427A039493702A039201347A038999997A038830203A038419902A037497777A036029624
420A034188427A032100344A029685160A026781293A023419281A020006033A017274064
413A015939805A016256183A017898473A020335373A023203476A026248295A029085588
406A031252189A032434299A032518856A031497040A029511091A027044806A024932835
399A024031883A024816314A027227561A030756856A034618408A038047333A040640251
392A042405984A043450399A043706447A043054960A041678694A040211220A039351325
385A039146514A038693662A036698277A032323614A025546318A017036339A007941039
378I99582192I93059926I88985147I87366949I87569928I88558084I89462090
371I89951451I90063833I89879788I89401420I88546208I87184261I85357112
364I83527248I82429086I82491859I83418260I84402819I84754554I84348189
357I83665350I83498813I84474686I86722112I89994205I94050525I98807804
350A004155697A009800017A015358421A020493902A024868025A028141950A030210285
343A031278656A031568364A031161049A030207842A028952576A027393962A025106225
336A021335745A015082761A005355994I91844292I75480910I58315385I42891366
329I31558752I25763912I25401794I28712365I33129582I36735630I39202525
322I41495827I44860417I50010964I56839428I64586896I72403246I79865688
315I86927602I93472738I99107421A003365227A006005445A007184365A007395216
308A007113990A006447574A005234315A003450191A001336388I99124929I96760575
301I93944319I90599070I87538439I86559377I89364163I96075428A004944200
294A013683557A021065649A027252671A032890068A038208712A042910818A046620018
287A049321720A051299390A052614036A052873613A051714849A049257997A045785300
280A041184378A034992335A026804638A016333140A003109993I86352462I65267022
273I39700234I10732821H80688826H52397873H28063821H08381385G92613842
266G79706870G69506079G63157882G62585252G69351825G83470428H02946356
259H24561876H45536156H64702831H82235225H98678753I14416911I29474469
252I43280019I54844520I63558497I69679623I73679074I74917849I71214486
245I60857406I46312351I35203618I35741026I50341525I73755285I97466217
238A014924979A022410495A017324485I97877196I64625782I21375945H73712962
231H26512468G82636796G43475310G10549640F86691648F75785690F80900608
224G01604250G32815357G66929719G97717360H22818741H43159790H60635042
217H76599524H91694136I05854813I18437264I28704765I36189670I41061299
210I44820514I50581965I59495323I67714169I73024466I76483250I79602379
203I83391997I88131903I93421365I98578563A003045251A006456803A008491953
196A008740332A006772096A002512797I96387191I88917352I80581510I72314820
189I65831576I63087255I65279576I72107430I81628775I91332739A000042711
182A007900254A013349127A011288325I97134773I73879881I52298293I41538581
175I41168590I44486084I48245502I55933047I70883110I90253103A008103640
168A021365266A030480585A035885686A036266806A030093289A017733837A002296313
161I88907444I82339031I84090513I91727025A001229164A009678474A015951067
154A019837936A021551618A022044237A022696063A024234115A026457789A029209710
147A032963564A038071221A043860496A048859640A051991052A053384080A053660419
140A052883589A050827806A047712480A043911122A039490784A034933837A031769375
133A031491475A033982326A037752060A041668718A045779736A050430470A055381430
126A060102606A064362516A068194073A071442889A073484146A073741823A072811690
119A072367525A073068281A073044528A069604474A062234868A052853118A043364619
112A034191549A025214739A017172201A011807750A010537282A012368911A013419908
105A008752548I94931797I72444913I45807788I19922993H97105885H78293729
98H64808494H57681228H56426030H59156235H63514411H67798140H71757959
91H76507230H83552789H93612832I06005469I18608686I28505383I33388819
84I33180344I30571003I29210346I31399884I37548902I46388629I55279185
77I61654798I64901171I66572099I68834794I72485564I76473206I79572180
70I81900160I83994351I85523920I86186740I86437630I86588286I86484252
63I86479705I87547533I89870558I91643689I90430359I86246120I81554736
56I78888458I78935352I80335030I81417313I81747467I82131573I83338724
49I85024175I86392501I87495414I89070584I91488214I94102101I95742152
42I96215430I96881575I98867863A000926426A000467874I96896980I92749859
35I90438099I89284899I87339803I85221182I84406280I83251452I79768712
28I74943502I72516917I75144852I81381210I87252735I90157077I90699915
21I91471859I95298055A003378324A011882805A014205425A011680778A010062986
14A010143130A009188705A005898628A002033139A000444462A002051870A004124412
7A003948172A003473400A005800159A010013918A011697336A009052300A007402613
##END=


$$ === CHEMSPECTRA PEAK TABLE EDIT ===
##TITLE=X8430
##JCAMP-DX=5.00
##DATA TYPE=INFRAREDPEAKTABLE
##DATA CLASS=PEAKTABLE
##$CSTHRESHOLD=0.93
##MAXX=3997.453
##MAXY=0.9430735097822
##MINX=373.96442
##MINY=0.5758087032206436
##$CSSOLVENTNAME=- - -
##$CSSOLVENTVALUE=0
##$CSSOLVENTX=0
##NPOINTS=28
##PEAKTABLE= (XY..XY)
409.37771730260965, 0.8564752330800138
508.5349497498041, 0.7522038209560695
599.1929908444376, 0.8627939211428252
620.4409692259574, 0.8266336901995335
638.8558838232993, 0.8458849775094908
692.6840957232212, 0.5935463897161485
716.7651378889755, 0.8213946215898417
745.0957757310398, 0.6697829354382738
835.7538168256447, 0.8127856241903361
885.3324330492828, 0.8629281508387033
1026.9856222596022, 0.8675629486744177
1073.7311746989835, 0.843943296669368
1153.0569606567628, 0.8203655468702683
1174.3049390383107, 0.7808905824991258
1269.2125758092257, 0.6592555630390682
1311.708532572322, 0.7151958335898961
1395.2839142064108, 0.8346259580594164
1410.8657650195464, 0.816708265455861
1433.5302752931975, 0.7585302583096308
1483.1088915168098, 0.5758087032206436
1586.5157196403438, 0.6693221323790013
2367.0247921892237, 0.8616412266596256
2850.0621673964033, 0.8284763087020041
2893.974656051603, 0.8362802256718559
2920.888762001564, 0.8100516185535144
3008.7137393119624, 0.8423561439048677
3029.9617176935103, 0.8353395453895098
3377.012031258801, 0.8553328499051452
##END=


$$ === CHEMSPECTRA PEAK TABLE AUTO ===
##TITLE=X8430
##JCAMP-DX=5.00
##DATA TYPE=INFRAREDPEAKTABLE
##DATA CLASS=PEAKTABLE
##$CSTHRESHOLD=0.93
##MAXX=3997.453
##MAXY=0.9430735097822
##MINX=373.96442
##MINY=0.5758087032206436
##NPOINTS=130
##PEAKTABLE= (XY..XY)
3994.6199362157936, 0.8570929753060509
3983.287681078968, 0.8562940351111962
3969.1223621579356, 0.8574979295439569
3963.456234589523, 0.8568435294750057
3947.8743837763877, 0.8574975720735573
3933.709064855356, 0.8566112510061954
3920.960277826427, 0.8585919128076765
3903.9618951211883, 0.8555338967033472
3894.046171876466, 0.8579972972477096
3885.5469805238467, 0.8588998898055433
3881.297384847537, 0.8589058508659899
3871.381661602815, 0.8569759718188862
3864.299002142299, 0.8588521468670206
3855.799810789679, 0.8530575025051987
3843.0510237607505, 0.8568317285602923
3823.2195772713058, 0.8566245424055968
3816.13691781079, 0.8585759987876042
3807.6377264581706, 0.8575107440233903
3803.3881307818606, 0.858275887016833
3797.722003213448, 0.8589767204705827
3782.1401524003127, 0.8589224209803829
3772.2244291555903, 0.8596094834798461
3759.4756421266616, 0.8598099339085118
3752.392982666145, 0.8563364133588087
3746.7268550977324, 0.8608003245340365
3736.81113185301, 0.8564672457684327
3725.4788767161845, 0.8598793139067222
3719.8127491477717, 0.8598043909215546
3712.7300896872557, 0.8590154036863257
3702.8143664425334, 0.858537434143124
3691.4821113057073, 0.8599316468705718
3677.3167923846754, 0.8563498242077785
3671.6506648162626, 0.8615276801834992
3657.4853458952307, 0.8606594785616969
3650.4026864347147, 0.8573701369501875
3640.486963189992, 0.8630979044849014
3630.5712399452696, 0.8593284476294873
3620.655516700547, 0.8607146712887428
3610.739793455825, 0.8615279182043304
3600.8240702111025, 0.8622188557883216
3595.1579426426897, 0.8621163952861095
3579.576091829554, 0.8636911498880544
3568.2438366927286, 0.8640314327243396
3559.7446453401094, 0.865610657902043
3554.0785177716966, 0.8650325527316847
3546.9958583111807, 0.8654541956552463
3538.4966669585615, 0.8665164097252998
3531.414007498045, 0.8666196448930952
3521.4982842533227, 0.8672853698350974
3510.166029116497, 0.8700687274663926
3503.083369655981, 0.8691275105392944
3490.3345826270524, 0.870159982545122
3477.5857955981237, 0.8701062785461527
3469.086604245504, 0.8709601743255279
3457.7543491086785, 0.8725519759618336
3447.838625863956, 0.871858833830661
3433.6733069429242, 0.8690829857126733
3426.590647482408, 0.8690245731171145
3382.678158827209, 0.85635411648749
3375.595499366693, 0.8550651660572778
3333.0995426035965, 0.8756002771273683
3320.350755574668, 0.8763095721777501
3307.6019685457386, 0.8766825165662419
3151.7834604143864, 0.8767777073325888
3114.953631219703, 0.8768054231456802
3079.5403339171226, 0.8642986405305447
3052.626227967162, 0.8504599917145266
3029.9617176935103, 0.8353395453895098
3008.7137393119624, 0.8423561439048677
2920.888762001564, 0.8100516185535144
2893.974656051603, 0.8362802256718559
2850.0621673964033, 0.8284763087020041
2797.6504873885847, 0.8630285253649966
2774.985977114933, 0.8644180883423334
2756.5710625175916, 0.8665994991964011
2749.4884030570756, 0.8661404237643422
2740.9892117044565, 0.8675643197095374
2736.739616028147, 0.8675874454973019
2725.4073608913213, 0.8681334837283786
2709.825510078186, 0.8692412361897733
2699.909786833464, 0.8701099138532381
2691.410595480844, 0.8706660262501204
2678.6618084519155, 0.8711230148279548
2663.07995763878, 0.8721105448119776
2655.997298178264, 0.8720595231584634
2640.415447365129, 0.8720009911133361
2629.0831922283032, 0.8736704578050487
2622.0005327677873, 0.8734366879732447
2607.8352138467553, 0.8726055613895402
2595.0864268178266, 0.8740789279004717
2579.504576004691, 0.8740509143417649
2556.8400657310394, 0.8761461361840924
2545.507810594214, 0.8760473118672714
2538.425151133698, 0.8756914724813134
2364.1917284050037, 0.8590647565591049
2357.1090689444877, 0.8615111100691063
2340.110686239249, 0.8642680034728614
2330.1949629945266, 0.8654295793827937
1586.5157196403438, 0.6693221323790013
1559.6016136903827, 0.8298938263915691
1483.1088915168098, 0.5758087032206436
1433.5302752931975, 0.7585302583096308
1410.8657650195464, 0.816708265455861
1395.2839142064108, 0.8346259580594164
1311.708532572322, 0.7151958335898961
1269.2125758092257, 0.6592555630390682
1174.3049390383107, 0.7808905807425145
1153.0569606567628, 0.8203655468702683
1136.0585779515245, 0.8566355695330325
1117.6436633541825, 0.8574882137268566
1110.5610038936666, 0.8559594138331309
1093.5626211884282, 0.8667629351900588
1073.7311746989835, 0.843943296669368
1026.9856222595777, 0.8675629486744177
903.7473476465984, 0.8672099699299618
886.7489649413601, 0.8628730169581359
876.8332416966377, 0.8638125642261935
835.7538168256447, 0.8127856241903361
794.6743919546516, 0.86650067487958
745.0957757310398, 0.6697829354382738
716.7651378889755, 0.8213946215898417
692.6840957232212, 0.5935463897161485
638.8558838232993, 0.8458849775094908
620.4409692259574, 0.8266336901995335
599.1929908444095, 0.8627939211428252
508.5349497498041, 0.7522038209560695
488.7035032603594, 0.8161306969302549
461.7893973103983, 0.8664306985118333
451.8736740656759, 0.8597632633811877
410.79424919468283, 0.8541671029216811
##END=

##END=

