##TITLE=CZ- 062_F1
##JCAMP-DX=4.24
##DATA TYPE=INFRARED SPECTRUM
##DATE=29/8/2019
##SAMPLING PROCEDURE=Diamant-ATR
##ORIGIN=Marie
##XUNITS=1/CM
##YUNITS=TRANSMITTANCE
##RESOLUTION=4
##FIRSTX=3997.453
##LASTX=373.96442
##DELTAX=-1.4165319
##MAXY=0.82917809
##MINY=0.54427755
##XFACTOR=1
##YFACTOR=7.7223228e-010
##NPOINTS=2559
##FIRSTY=0.82696337
##XYDATA=(X++(Y..Y))
3997+1070873865+1071088053+1071547998+1072065136+1072489421+1072705230
3989+1072581040+1072054330+1071310577+1070720344+1070490333+1070461929
3980+1070341752+1070077935+1069917776+1070096150+1070501216+1070694101
3972+1070376717+1069801613+1069558712+1069895238+1070417857+1070588281
3963+1070335886+1070052464+1070131732+1070650029+1071355730+1071812819
3955+1071654435+1070826010+1069626866+1068609493+1068285162+1068569742
3946+1068801528+1068738391+1068953660+1069850085+1070893779+1071414082
3938+1071384674+1071014187+1070430515+1069977286+1070099006+1070533403
3929+1070365757+1069358726+1068414369+1068496262+1069346608+1069723502
3921+1069126014+1068411050+1068648625+1069756228+1070553007+1070282860
3912+1069314036+1068312408+1067355856+1066129388+1064892578+1064767384
3904+1066537542+1069194554+1071040893+1071753464+1071712324+1070765497
3895+1068789179+1066549583+1065589866+1066635798+1067885035+1067401086
3887+1065986442+1065625989+1066224635+1066149920+1065800504+1066490228
3878+1067200637+1066504970+1065318330+1064964129+1065097041+1065200314
3870+1066005893+1067199093+1067324828+1066937823+1067817653+1069668469
3861+1070285408+1068957365+1066484902+1063462265+1060823546+1061464953
3853+1067467002+1073150201+1073741823+1071328021+1068385502+1065826283
3844+1063812762+1062306962+1061286656+1061223750+1062931619+1065814397
3836+1067588723+1067401858+1066644520+1066597283+1066971861+1066956733
3827+1066618046+1066082692+1064655852+1062534117+1062148193+1064740678
3819+1066930490+1066835862+1066927480+1068477892+1069332406+1068209752
3810+1066032753+1064209724+1063874201+1064658554+1064533360+1063321480
3802+1063562451+1066001030+1067427098+1066721319+1066157947+1066831848
3793+1067447320+1067141591+1066481506+1065958501+1065409254+1064884011
3785+1064804433+1064989445+1064830599+1064657241+1065461508+1066975026
3776+1067729817+1067180338+1066002728+1065224627+1065667669+1067028129
3768+1067802679+1067437672+1066837096+1066376148+1065686656+1065260364
3759+1066175545+1067812636+1067946706+1065812390+1062788364+1061377116
3751+1063668658+1067418530+1067928413+1065486130+1064356606+1067320660
3742+1070738946+1070406433+1067165055+1063513285+1061521452+1062361764
3734+1065404468+1068428185+1069617527+1068594905+1066212208+1064012825
3725+1063205549+1063677148+1064729718+1066192603+1067742706+1068409429
3717+1067424010+1064877218+1061859213+1060449663+1062346327+1066078755
3708+1068600616+1069078082+1068075605+1066530441+1065851137+1066746250
3700+1067959364+1068135346+1067507756+1066633869+1065419905+1063857066
3691+1062988119+1064538300+1068339268+1071099862+1070834269+1068632880
3683+1066214215+1064504724+1063299946+1061851340+1060555252+1061362991
3674+1063971840+1064953863+1064377678+1065500023+1068827154+1070686769
3666+1069617836+1067521417+1066194764+1065751723+1065106766+1063745302
3657+1062737422+1063159624+1063687877+1062431462+1060236787+1060393627
3649+1064925845+1069642226+1069959765+1067241700+1064328974+1062605822
3640+1061973832+1061610369+1060994356+1060210004+1059348621+1058126244
3632+1056504899+1055521564+1056494710+1057946789+1056716462+1052959644
3623+1048505536+1044713598+1042706560+1043019777+1044018549+1043283594
3615+1040908462+1038669792+1037442321+1036671321+1035950183+1035529989
3606+1035203651+1034273342+1032671756+1031029108+1029781569+1028562742
3598+1026799994+1024687599+1022869432+1021243919+1018867088+1015335109
3589+1011495393+1008848493+1008010342+1007756867+1006824011+1005082026
3581+1002848682+1000457726+998206784+996359827+995196111+994764107+994535640
3571+993920940+993300142+994012481+996611450+999284207+1000229336+999891421
3561+999444983+999333142+999344643+999412952+999923607+1001210510+1002936981
3551+1004168852+1004395158+1004225351+1004697568+1006019667+1007294761
3543+1007769217+1007602266+1007262035+1006968887+1006768283+1006761105
3534+1007075248+1007644949+1008218587+1008661165+1009064919+1009446290
3526+1009634466+1009622889+1009639560+1009728400+1009634698+1009170817
3517+1008410314+1007548468+1006740960+1006050001+1005454597+1004940237
3509+1004579398+1004488937+1004705055+1005056014+1005129494+1004575153
3500+1003502437+1002304760+1001224172+1000350516+999785523+999505496+999274173
3490+998949225+998669893+998573798+998533970+998362466+998095020+997919656
3480+997889708+997829736+997549323+997076566+996646106+996454687+996411464
3471+996209780+995756936+995402272+995485554+995743429+995539738+994731226
3461+993927114+993717866+994020508+994453207+994952901+995593844+996130511
3451+996322856+996478383+997053719+997869949+998309362+998164101+997772542
3441+997506871+997461950+997545309+997713650+998049944+998572794+999086923
3431+999392266+999537219+999677233+999802504+999854912+1000049186+1000743773
3421+1001846436+1002664827+1002663129+1002093350+1001610250+1001590645
3412+1002008370+1002687134+1003440304+1004129256+1004760474+1005447882
3404+1006179054+1006739493+1006992505+1007088601+1007229926+1007419338
3395+1007630670+1007974683+1008498768+1009075416+1009593095+1010052191
3387+1010504494+1011031898+1011611942+1011992618+1011997327+1011881163
3378+1012053749+1012552980+1013084938+1013480897+1013849532+1014260155
3370+1014534239+1014564958+1014671165+1015287486+1016363752+1017429675
3361+1018184079+1018700369+1019146883+1019573484+1019971449+1020359535
3353+1020728864+1021010049+1021211424+1021486974+1021902229+1022267776
3344+1022399762+1022400843+1022510523+1022807144+1023153395+1023372909
3336+1023452718+1023579533+1023930107+1024446859+1024900012+1025162595
3327+1025360651+1025704664+1026216554+1026736548+1027165233+1027563276
3319+1028033486+1028587133+1029043527+1029089606+1028640468+1028070457
3310+1027844537+1028035647+1028401349+1028787042+1029270065+1029989659
3302+1030888477+1031599195+1031706019+1031184018+1030449295+1029948134
3293+1029840769+1030053954+1030458094+1030984881+1031679622+1032573577
3285+1033440517+1033859631+1033659182+1033100904+1032532206+1032086309
3276+1031792929+1031741601+1032036602+1032675538+1033460277+1034059771
3268+1034328220+1034497641+1034818190+1035121604+1035074058+1034768560
3259+1034664438+1034950639+1035338184+1035524123+1035516404+1035389358
3251+1035067497+1034577527+1034272647+1034539321+1035349376+1036272198
3242+1036909359+1037189155+1037222498+1037049682+1036665764+1036198332
3234+1035875623+1035826224+1036049752+1036536248+1037225509+1037852558
3225+1038079559+1037839283+1037367606+1036864978+1036348534+1035900322
3217+1035787477+1036165220+1036811798+1037335420+1037568287+1037615524
3208+1037610661+1037608346+1037636132+1037684913+1037719337+1037790733
3200+1037997280+1038254614+1038311037+1038059337+1037612899+1037083643
3191+1036587344+1036433592+1036901872+1037757235+1038306020+1038081720
3183+1037307788+1036647008+1036630105+1037284632+1038148794+1038677896
3174+1038677433+1038294133+1037759319+1037327470+1037279384+1037716945
3166+1038412921+1038983085+1039173037+1039038504+1038931989+1039162540
3157+1039581036+1039709318+1039346472+1038833424+1038643472+1038897487
3149+1039346240+1039695424+1039818457+1039697354+1039336129+1038824625
3140+1038395554+1038327323+1038759326+1039531561+1040201603+1040370406
3132+1040074556+1039749685+1039779170+1040163628+1040593856+1040761579
3123+1040605743+1040273230+1039890779+1039458853+1038960933+1038512489
3115+1038369543+1038717338+1039414240+1040060817+1040358983+1040258951
3106+1039803715+1039081496+1038279700+1037576391+1037070985+1036908742
3098+1037225277+1037862747+1038361361+1038344149+1037788418+1036932978
3089+1036045892+1035312868+1034877313+1034830385+1035023193+1035042721
3081+1034602535+1033843422+1033050039+1032255035+1031300721+1030060901
3072+1028484168+1026692013+1025124234+1024319736+1024462991+1025288560
3064+1026380495+1027429360+1028266816+1028806647+1028970742+1028699977
3055+1028068296+1027244271+1026258311+1024987539+1023434966+1021809993
3047+1020283894+1018878589+1017569919+1016268737+1014746651+1012788085
3038+1010378991+1007676286+1004902185+1002342272+1000339170+999120730+998580358
3029+998363237+998254561+998295238+998443201+998423133+997994525+997080811
3019+995624718+993635279+991294030+988765685+986083743+983361433+980855703
3009+978781514+977351587+976890253+977505494+978705256+979666979+979914125
2999+979528509+978700779+977312918+975116391+972185450+968949397+965814225
2989+962904279+960060479+956969303+953393251+949329159+944883696+940040115
2979+934608847+928383116+921370022+913899762+906415377+899145257+892100440
2969+885347382+879064379+873307855+867872651+862382260+856397886+849514539
2959+841610037+833118390+824916649+817841884+812380129+808803305+807368207
2949+808143143+810724205+814324493+818152862+821573695+823958167+824628055
2939+823049547+819001432+812553872+803996694+793785909+782507733+770917499
2929+759987814+750755037+744032544+740275262+739635863+741983672+746841842
2919+753492167+761333918+770103199+779649114+789588132+799320758+808331088
2910+816345270+823266591+829118979+834041598+838207574+841695790+844445809
2900+846303803+847104442+846771930+845457317+843633130+842006845+841280921
2890+841996579+844506708+848858931+854627342+861015933+867198441+872493863
2880+876314514+878167800+877816069+875451279+871680875+867236648+862708520
2870+858652610+855801015+854829952+855834205+858112625+860457578+861675478
2860+860995016+858149673+853314273+847227089+841284086+837169515+836235732
2850+839155713+845855668+855557497+867035504+879050872+890635240+901156386
2840+910357054+918344143+925382631+931663550+937251194+942123488+946211971
2830+949524977+952260331+954674983+956855918+958763388+960437064+961992957
2820+963458080+964803875+966099578+967447071+968789547+969956428+970899319
2810+971743335+972611433+973506778+974374181+975197281+976024780+976902989
2800+977755264+978400144+978803280+979206108+979830534+980572898+981209519
2791+981760078+982368681+982967481+983374786+983630808+983943947+984353644
2781+984701671+984885757+984934460+984892626+984816522+984810347+984918483
2771+985040589+985085279+985145638+985410073+985915557+986479547+986911242
2761+987233643+987611926+988083680+988478403+988654308+988708646+988847347
2751+989129766+989477561+989874909+990379158+990920532+991266784+991254434
2741+990970780+990647915+990427012+990299966+990257437+990354227+990594889
2731+990885259+991111256+991163510+990960205+990589255+990310849+990277351
2721+990367194+990387571+990298808+990188588+990146986+990205569+990332847
2711+990467303+990584933+990740229+990982898+991247719+991419378+991523269
2701+991688908+991897538+991964998+991825525+991663128+991700794+991947863
2691+992209983+992323290+992321515+992326069+992355939+992343590+992267100
2681+992160662+992036162+991855010+991587718+991312323+991198552+991323901
2672+991574443+991800054+991975958+992128398+992205506+992128861+991939990
2662+991802061+991827069+991954887+992053066+992084557+992123690+992219708
2652+992303531+992279526+992198714+992229125+992415758+992622767+992748347
2642+992804075+992766794+992559399+992217470+991915831+991814488+991929570
2632+992138587+992324139+992533079+992914603+993466398+993964163+994231532
2622+994344067+994438387+994447263+994231454+993891841+993746270+994025525
2612+994717256+995591838+996262729+996328490+995652737+994566977+993730911
2602+993649017+994252449+995002994+995401963+995359974+995157750+995124406
2592+995286649+995312197+994859508+993973580+993123620+992837187+993219252
2582+993873394+994422101+994918786+995558957+996282719+996902514+997301251
2572+997346636+996977769+996467500+996240731+996422887+996819772+997236879
2563+997587993+997813604+997886621+997828809+997658771+997381137+997046927
2553+996770373+996680685+996810201+996980162+996938250+996723059+996712253
2543+997128048+997681695+997869254+997478622+996738650+996117698+995987564
2533+996367854+996939177+997287203+997170500+996707931+996324168+996383600
2523+996860603+997434704+997797472+997789677+997392869+996748607+996149190
2513+995875415+995961476+996177516+996338601+996538124+996911776+997264897
2503+997223912+996804875+996501461+996595241+996668875+996184849+995318295
2493+994760557+994872861+995457073+996168177+996759490+997060125+997006559
2483+996696893+996354270+996180295+996144018+995988799+995560578+995012025
2473+994639608+994665696+995086971+995589213+995787656+995630970+995364760
2463+995220578+995359048+995802784+996214565+996159146+995729150+995457073
2453+995556333+995653200+995321613+994646092+994178042+994331486+994899798
2444+995330258+995387298+995296451+995331570+995546607+995849558+996122638
2434+996240499+996069689+995607738+995125873+994949891+995019898+994938005
2424+994525143+994029770+993713235+993531311+993296977+992946095+992570127
2414+992309011+992241474+992337338+992475267+992511776+992346909+991976807
2404+991525507+991218466+991278516+991768871+992498886+993097917+993239552
2394+992882726+992322364+991927641+991787936+991697630+991436745+990904478
2384+990086164+989175614+988585381+988436492+988218367+987495145+986763587
2374+986934706+988157391+989720462+990802440+991140278+991461367+992729591
2364+994257080+994074152+992062946+990564787+991218852+993207829+994874173
2354+995486789+995172029+994152031+992539253+990535226+988529654+987105516
2344+986857290+987800952+989149757+990158255+990836478+991468082+991819813
2334+991553062+991034920+990887343+991020178+990830998+990136489+989303509
2325+988698149+988328665+987941197+987380063+986756255+986286662+986172660
2315+986524082+987170737+987718132+987943281+987917655+987732257+987455472
2305+987313761+987563763+988192511+988944445+989553203+989837706+989736285
2295+989384399+988997471+988603674+988055507+987341084+986705235+986403597
2285+986422276+986478621+986377045+986332587+986662552+987159854+987248077
2275+986794693+986246757+986032415+986353041+987283736+988493917+989193753
2265+988923451+988146817+987639018+987549869+987467282+987224226+987144108
2255+987463731+987982491+988403225+988564156+988320715+987672593+986943891
2245+986425286+986060356+985744593+985544529+985464875+985428675+985526391
2235+985838449+986068615+985880592+985612838+986123725+987671281+989403387
2225+990314091+990278586+989792090+989223623+988715438+988373663+988271085
2215+988532973+989297643+990308765+990867429+990566563+989754501+988933717
2206+988011589+986681540+985379585+985090605+985996833+987085988+987422206
2196+987092395+986661857+986415638+986374961+986464187+986517522+986523619
2186+986912091+988337772+991004741+994132889+996215723+996078643+993760858
2176+990433110+987538832+985847480+985127345+984657444+984012333+983559643
2166+984322075+986921507+990345119+992490009+992595290+992312021+993179811
2156+994194560+993610579+991574906+989718455+989161181+989583459+989841874
2146+989110007+987632843+986487188+986332587+986532496+985998531+984717416
2136+983770126+983969804+985156212+986714652+988085455+988727247+988155925
2126+986434702+984498443+983452125+983402958+983517886+983330481+983207912
2116+983392615+983460461+982917928+981732446+980395064+979783683+980406950
2106+981545581+981922707+981296197+980530832+980297425+980628008+981455661
2096+982662292+983730222+984071147+983725050+983362436+983552079+984163846
2087+984578252+984412073+983811883+983077084+982324145+981552374+980702800
2077+979731428+978983661+979132011+980143750+980763236+979877925+978102596
2067+977185331+978003028+979702021+980904947+981340733+981829313+982901951
2057+984103874+984589598+983794594+981850153+980025117+980062011+982058861
2047+983863906+983955061+983511248+984268972+985970667+987157076+987382147
2037+987279336+987004404+986232015+985530096+985845164+986653290+986717431
2027+986261500+986385922+987010424+987222220+986816999+986025777+984614297
2017+982492331+980672852+980589338+982477820+985048231+986909389+987909551
2007+988709340+989611940+990512688+991255360+991299124+989914582+987390019
1997+985166864+984152500+983804165+983340824+982816971+982335491+981381486
1987+979874992+978716602+978569873+979056138+979644750+980449479+981574912
1977+982388363+982396776+982285321+982932053+984092142+985069302+985828647
1968+986330889+985713641+983713087+981841894+981606480+982566506+983210999
1958+983010396+982565502+982429580+982582946+982571137+981913290+980853156
1948+980504435+981598839+983323766+983987016+982800993+980672621+978999253
1938+978328671+978357229+978525338+978414500+977858152+977023783+976384770
1928+976296007+976578272+976675448+976151594+975114924+974248679+974184615
1918+974736487+974957467+974267357+973035101+971933519+971342205+971213307
1908+971184825+970903178+970276745+969418295+968489993+967598353+966660094
1898+965459020+963982628+962543285+961416232+960612660+960118986+959994023
1888+960142527+960361963+960557164+960669314+960683747+960803229+961263483
1878+961994037+962715716+963191638+963228301+962800928+962363135+962750604
1868+964322473+966216821+967343335+967578748+967415966+967272865+967285292
1858+967474394+967901304+968551818+969128698+969157874+968493158+967586776
1849+967071644+967245387+968048032+969040861+969455884+969170455+968914973
1839+969134718+969449478+969249955+968508131+967738058+967504497+967938816
1829+968393280+968230575+967748941+967550962+967661568+967769086+967823116
1819+967905626+967959887+967886176+967688660+967436883+967185800+966933483
1809+966642264+966278647+965828890+965391329+965238503+965563297+966086533
1799+966227627+965773008+965021228+964430841+964344780+964653751+964745292
1789+964334437+963764581+963417249+963303016+963121014+962687003+962124017
1779+961575155+960949340+960136506+959373534+959185975+959665524+960064802
1769+959955354+959609257+959071818+958225486+957429710+957235745+957487985
1759+957591567+957540316+957534373+957352217+956854992+956388641+956333145
1749+956586620+956757430+956675151+956290925+955540688+954583287+953889241
1740+953675670+953477922+953008484+952893170+953786353+954735032+954726233
1730+954292763+953885536+953288897+952359051+951281782+950166923+949034544
1720+948237842+948471249+949769730+950770123+950603944+949659742+948487921
1710+947436586+946751184+946531207+946404624+945709960+944464505+943511735
1700+943477774+943732175+943662786+943392871+942709785+941497751+940212391
1690+939125242+937896922+936333466+935265304+935848282+937042949+936838409
1680+935431020+933742987+932454772+931952839+931862687+931357126+930521059
1670+930308492+930935619+931269290+930880201+930607198+931284572+932610454
1660+933512976+933533199+932810517+931826256+932046387+935152383+938194547
1650+938387818+937697477+938279373+940174185+941313202+941097393+940390534
1640+939684292+939110886+939186759+940719264+942879669+943673592+943174206
1630+942532723+942436319+942753317+942958937+943031414+943327650+943655531
1621+943514514+943126429+943262428+944043771+944329046+943535971+942245441
1611+941099245+940304859+939591207+938431042+936279822+932582281+926759995
1601+918391149+907434526+894366588+880454016+868089772+860275190+858979411
1591+863964472+873114893+883720479+893802521+902532669+909759257+915431804
1581+919455220+922092472+924385249+927592897+931105426+932967279+933340082
1571+933777566+935099588+936437897+936842654+936590028+936012840+935064547
1561+934239749+935298725+938569125+940219647+939918780+939597382+939883429
1551+940548223+941234782+941598323+941518899+941282868+941276539+941788969
1541+943460099+946300733+947982978+947637652+946605614+946106536+946306059
1531+946368965+946041315+945928394+946347121+946797727+946868814+947044410
1521+947722787+948185974+947903631+947442298+947283142+947137649+946575126
1511+945468912+943743830+940646324+933040296+917798910+898705689+879956945
1502+864181594+855700366+858627139+871422151+885334338+893300742+895609882
1492+894890210+892833619+890563381+888942653+888225451+888366931+889401440
1482+891201314+893018091+893651856+892144667+887870401+879730639+866201753
1472+849140887+834457547+825042923+820255069+819207439+820441548+821216484
1462+820096454+817949634+816457265+817156405+819146231+819674176+818839190
1452+818300517+819596373+823996914+831568749+840270417+847716904+853134741
1442+856485799+857416186+855313284+849664124+842068901+837464824+838909339
1432+845789829+856402285+867740433+876528856+882007052+885182824+886645940
1422+886315743+883915680+878669502+869800729+858084375+845068228+832404276
1412+822774151+819141523+822359051+830531925+840952191+851366127+859828753
1402+865449818+868918815+871304830+872954117+873619296+872992323+870690285
1392+866394175+860069184+851646231+841257148+830475889+822092069+817589490
1383+816558145+818014084+821024139+824823641+829023115+833502771+837681328
1373+840221790+840104778+837335154+832689474+827596662+823828805+823156139
1363+826910874+834554877+843647795+852231369+859621203+865600174+870120660
1353+873442079+875986478+878011578+879602744+880929706+882258752+883692384
1343+885121462+886444719+887664008+888769373+889685943+890359535+890777569
1333+890940660+890883466+890628525+890053034+888938948+887265426+885339200
1323+883550518+882142821+881263994+881017697+881308838+881827520+882309926
1313+882677171+882903246+882890973+882538007+881876919+881133551+880627064
1303+880558370+880875677+881367344+881871516+882354693+882839877+883341347
1293+883860107+884403874+885012631+885709996+886379421+886776151+886755774
1283+886398408+885835499+885061566+884010077+882719623+881306445+879814153
1273+878190184+876405052+874550608+872814566+871360944+870207262+869220530
1264+868211878+867010110+865500220+863663297+861539015+859121662+856392560
1254+853485392+850731668+848522868+847136474+846611617+846723921+847117949
1244+847527338+847883855+848223545+848508512+848587858+848346655+847846497
1234+847260433+846682472+846038673+845202607+844189170+843182910+842337968
1224+841618450+840901789+840179725+839580693+839218310+839067105+839009293
1214+838952099+838829838+838523955+837915892+837084148+836416962+836500785
1204+837822962+840465000+844052089+848001330+851787865+855000222+857286361
1194+858387557+858292697+857312990+855854041+854084038+851964927+849642743
1184+847641417+846553033+846532271+847121191+847644736+847809680+847842561
1174+848090942+848645129+849320960+849870130+850191219+850348753+850310470
1164+849713754+848048722+845048623+840820745+835811293+830974272+827826673
1154+827738064+830797441+835480941+839577991+841500512+841010774+839164280
1145+837672374+838047030+841030533+846484879+853533787+860885182+867337683
1135+872177946+875196337+876479767+876225443+874629105+871862105+868139093
1125+863831560+859479260+855578028+852285476+849426240+846818086+844447816
1115+842290885+840141132+837687271+834700371+831294975+828200788+826597118
1105+827340331+830313569+834612920+839231972+843466256+846927534+849528124
1095+851514013+853317052+855189248+856936405+858093020+858479021+858566086
1085+859228718+861149695+864417779+868495301+872484524+875602175+877612841
1075+878895036+880106221+881716297+883722949+885743186+887394479+888535966
1065+889132682+889065222+888241274+886817445+885148168+883485451+881759906
1055+879642108+876829028+873304304+869287836+864941479+860218768+855021988
1045+849360942+843303628+836884548+830108875+822986950+815567941+808006062
1035+800567216+793494073+786880487+780736726+775128937+770201918+766135511
1026+763120825+761261904+760423677+760265525+760486428+760987821+761770707
1016+762768707+763864192+765002977+766165150+767245352+768082268+768558344
1006+768572006+768030168+767018815+765887593+765135813+765330473+767030470
996+770542921+775780455+782434099+790105580+798158431+805599593+811307568
986+814573105+815564467+815116023+813830664+811524766+807754594+802804188
976+798102935+795751961+797465080+803593481+812931074+823381673+832901037
966+840130403+844485482+845840154+844256552+840054531+833937630+826794943
956+819324991+811866077+804544244+797603781+791663325+787645930+786339190
946+787898401+791636156+796201563+800094150+802390941+803336995+804343872
936+807240234+813139473+821686848+831317976+840321127+847669512+852979754
926+856146649+857319087+856916568+855203218+851882417+846514441+839490309
916+832304707+826543937+822675972+820048368+817854620+815563233+812241968
907+805957885+794525185+777333877+756754231+737807122+726044148+724899651
897+734144391+750311456+768662775+785382638+798750439+808829856+816234509
887+821112979+823001229+821287802+815847041+807595979+798571679+791174822
877+787050063+786441691+788212003+790336748+790889932+789190399+786206355
867+783880543+784149378+788261788+796243089+806667985+817422076+827094806
857+835491902+842862593+849151771+854141000+857848035+860492311+862172703
847+862662441+861483751+858184021+852549140+844667793+835063603+824854515
837+815513757+808226965+803510507+801479928+802228621+805557604+810438543
827+815428622+819808477+823701296+827040545+829271342+830191771+830241633
817+829747418+828407103+825612085+821054627+815130534+808864590+803311602
807+798853018+794830065+789702443+781767839+770131449+755409516+739994078
798+727742061+722748972+727560445+741823050+762171605+783731808+802510809
788+816846817+827000254+833963950+838734978+842080248+844524769+846507263
778+848343182+849954493+851007758+851466390+851654413+851668306+851098913
768+849488528+846784202+843279314+839456116+835943124+833113373+830530381
758+827313934+823385919+820049371+819123925+821621318+827199777+834610451
748+842541350+850107165+856677449+861498956+863790112+863301609+860659880
738+856982870+853062187+848791935+843156976+834766673+822730156+807288861
728+789732005+771910020+755704131+742188057+730860406+720296423+710534698
718+704810669+707826204+721947716+745048528+771741911+796725649+816855153
708+830945250+839136957+842419861+841911984+838527737+833714952+830299753
698+831511478+838373290+848593261+858602208+866153744+870819801+873131179
688+873754601+873035778+871385257+869911412+869813619+871212517+873272736
679+875172410+876365379+876185847+873786555+868771546+860961441+848292780
669+827700090+805619198+792923290+788744579+789956073+796084474+806330996
659+818154560+828670689+835894498+839120671+838810388+835837536+830532697
649+822752462+812918416+802243209+792107061+783928243+778924580+777236007
639+777784714+779333120+781235958+783358388+785985297+789586743+794214130
629+799506079+805342953+811860134+818924093+826232574+833675433+841054847
619+847715669+852789956+855681533+856231321+854771215+852442007+851124539
609+852283546+855743821+859923845+863254217+865209387+866089603+866038816
599+864353639+859727486+851237846+839441914+826971619+817899464+815493766
589+820041112+829201412+839856706+849202327+855637383+859498170+862151323
579+864278229+865676664+866299160+866604426+867242128+868983032+872292334
569+876317524+879082441+879572719+878979013+879175526+880517848+881720928
560+881778662+881272021+881260906+881560769+881050963+879366095+877359906
550+875938701+875076855+874133810+872838957+871674546+871323818+871971708
540+873158502+874156734+874499435+874184906+873225730+871064785+866869711
530+860481505+852566429+843676353+833691488+822437085+810303701+798107489
520+787252441+780136383+778914392+783243228+790663086+798749513+805397137
510+808499968+807330386+803616482+799945029+797466083+795489842+792108913
500+785317725+775119984+764882955+760083446+764619755+777887910+795585628
490+812939410+827252417+838149608+846615707+853769278+859620354+863396315
480+865364606+866922737+868534743+869057053+867885695+866816762+868310212
470+871956425+875072764+876245125+876133902+875755078+875599088+876415009
460+879350735+884477277+889570552+891941208+891589553+890274478+889149508
450+888345937+887409761+885733924+883126850+880505652+879826040+882444382
441+887420644+892512144+896320368+898378580+898222975+895960455+893620519
431+894194774+898379043+903337630+906034933+906780538+908135210+911050945
421+913965523+914671996+912470375+909010100+906073139+904733055+905345131
411+906299059+904332003+897730767+888592697+881021324+877697127+878845946
401+883403944+889961879+897253533+904492856+910358134+912734502+910456005
391+903987836+895450726+888338758+886037337+889633612+896207292+900664178
381+900693663+898182222+896899563+898800627+901688962+903008668
##END=
