##TITLE=D. Knoll DMKc92
##JCAMP-DX=4.24
##DATA TYPE=INFRARED SPECTRUM
##DATE=18/7/2018
##SAMPLING PROCEDURE=Diamant-ATR
##ORIGIN=Angelika Moesle
##XUNITS=1/CM
##YUNITS=TRANSMITTANCE
##RESOLUTION=4
##FIRSTX=3997.453
##LASTX=373.96442
##DELTAX=-1.4165319
##MAXY=0.93365669
##MINY=0.77653188
##XFACTOR=1
##YFACTOR=8.6953556e-010
##NPOINTS=2559
##FIRSTY=0.9000001
##XYDATA=(X++(Y..Y))
3997+1035035416+1035548838+1035875673+1035741183+1035418118+1035476246
3989+1036114836+1036831982+1036949267+1036411168+1035804315+1035602442
3980+1035703756+1035811650+1035919407+1036174884+1036447567+1036342894
3972+1035754755+1035126927+1034952885+1035193007+1035474258+1035701631
3963+1036034704+1036356741+1036280036+1035765860+1035247091+1035067291
3955+1035183479+1035392755+1035582358+1035817888+1036257141+1036797160
3946+1036991630+1036652524+1036126969+1035764078+1035495577+1035207471
3938+1035026916+1034991271+1034934651+1034863087+1035107254+1035755235
3929+1036216424+1036019829+1035610531+1035808977+1036580961+1037002186
3921+1036773442+1036619964+1037135580+1038003119+1038473768+1038219182
3912+1037411141+1036389781+1035390082+1034478398+1033823630+1033847005
3904+1034737988+1035927838+1036808402+1037448568+1037866230+1037706171
3895+1036947759+1036172416+1036090913+1036600154+1036571158+1035640623
3887+1034854656+1035150302+1035922697+1036166316+1036333709+1036933158
3878+1037073270+1036277706+1035432238+1035171003+1035037472+1034876180
3870+1035559874+1036992109+1037991809+1038576315+1039440633+1040238253
3861+1040040082+1038811776+1036954477+1034723593+1032824342+1033155839
3853+1036913965+1040297136+1040453904+1038841320+1036946045+1035514222
3844+1034977356+1035256825+1035722127+1036147396+1037217083+1039102213
3836+1040546444+1040744752+1040123162+1039214905+1038212738+1037380569
3827+1037036597+1036891824+1036245625+1035380142+1035694913+1037182192
3819+1037496963+1036390192+1035918927+1036697492+1037348283+1037262941
3810+1036969831+1037149975+1038235153+1039432887+1039122297+1037612809
3802+1037147370+1038611000+1039856854+1039780355+1039300727+1038918299
3793+1038413857+1037886245+1037655034+1037666344+1037653595+1037580317
3785+1037481403+1037147918+1036534348+1036233150+1036895594+1038080715
3776+1038638008+1038217742+1037362267+1036872288+1037313118+1038407413
3768+1039326843+1039998885+1040652967+1040652418+1039469765+1037906741
3759+1037301602+1037723445+1037874181+1037155047+1036167412+1035954572
3751+1037249369+1038909868+1039022286+1037960414+1037474891+1038448885
3742+1039168635+1038129384+1036092627+1034571759+1034848212+1037064564
3734+1039711053+1041319045+1041607562+1040789719+1039376541+1038141791
3725+1037659970+1037939027+1038721705+1039670336+1040202540+1040007590
3717+1039383738+1038681741+1038079550+1038078110+1039366738+1041356883
3708+1042434864+1041972030+1040385699+1038728422+1038296709+1039311694
3700+1040216524+1039854112+1038707378+1037532539+1036518719+1035699026
3691+1035542326+1036783382+1039042371+1040520464+1040502368+1039554010
3683+1038269838+1037118649+1036350023+1035809182+1035562616+1036350572
3674+1037619458+1037377485+1036077683+1036100030+1038225282+1040121174
3666+1040392074+1039780423+1039178712+1038791966+1038277653+1037547003
3657+1037252042+1037754360+1037948144+1036861321+1035216930+1034696790
3649+1036526808+1039378391+1041014899+1041289364+1040901795+1040349643
3640+1039690832+1038759680+1037786509+1037454875+1038016692+1038649044
3632+1038363337+1037548854+1037996744+1040006974+1041030048+1040190681
3623+1038515307+1037085266+1036877566+1038330297+1040215564+1040940730
3615+1040622532+1039982708+1039201470+1038459441+1038402204+1039297574
3606+1040266221+1040328394+1039584377+1038777297+1038473973+1038602294
3598+1038742817+1038836522+1039153144+1039599183+1039613784+1039011935
3589+1038413446+1038751454+1040001901+1040824473+1040529718+1039606107
3581+1038819933+1038776063+1039566281+1040625205+1041231509+1041048007
3572+1040059001+1038379583+1036465595+1035375550+1036128957+1038012510
3564+1039295517+1039525495+1039149442+1038595508+1038043494+1037451105
3555+1036821631+1036497881+1036852478+1037564140+1037854165+1037578398
3547+1037333477+1037571954+1038079276+1038453820+1038539436+1038297600
3538+1037819274+1037440480+1037476536+1037787125+1037899681+1037621788
3530+1037285356+1037301602+1037626998+1037984474+1038386575+1038921521
3521+1039311077+1039229986+1038842006+1038589202+1038614359+1038696822
3513+1038716975+1038814518+1038987327+1038910416+1038431816+1037901189
3504+1037734549+1037892620+1037944579+1037665865+1037321138+1037254030
3496+1037454052+1037633030+1037603006+1037324223+1036756648+1036037172
3488+1035605938+1035784779+1036402599+1037031730+1037361376+1037331421
3479+1037130644+1037013222+1037060726+1037186991+1037277336+1037261570
3471+1037198781+1037278228+1037515814+1037580934+1037210777+1036631823
3462+1036301834+1036405410+1036739443+1036978811+1036986489+1036938505
3454+1037068266+1037257869+1037120842+1036621335+1036319108+1036614069
3445+1036981210+1036704689+1036085155+1036063563+1036832873+1037621926
3437+1037791992+1037432048+1036904368+1036406781+1036039982+1035919475
3428+1036054034+1036267561+1036404930+1036554158+1036885518+1037329981
3420+1037633716+1037640296+1037344033+1036902175+1036662601+1036828075
3411+1037135374+1037214821+1037090475+1037015210+1037109806+1037341223
3403+1037551664+1037485379+1037088488+1036649919+1036427894+1036376894
3394+1036412470+1036633537+1037074915+1037462689+1037447335+1037028782
3386+1036585279+1036403353+1036336382+1036139171+1035902407+1035852299
3377+1035933665+1035926536+1035820013+1035789646+1035887875+1035958822
3369+1035859770+1035678804+1035672498+1035946278+1036268383+1036299572
3360+1036000773+1035758594+1036024833+1036752672+1037315312+1037208240
3352+1036675419+1036359894+1036511248+1036828692+1036920134+1036686387
3343+1036324318+1036099070+1036126352+1036353039+1036692762+1037078685
3335+1037405658+1037563317+1037568321+1037580454+1037719606+1037909826
3326+1038008055+1038026014+1038034240+1037938890+1037644066+1037364460
3318+1037452681+1037908592+1038340922+1038428389+1038174626+1037690405
3309+1037025698+1036367640+1036115864+1036485885+1037204333+1037818657
3301+1038162355+1038333588+1038407893+1038404603+1038397268+1038445526
3292+1038496663+1038487957+1038474522+1038512977+1038464582+1038119033
3284+1037542753+1037116249+1037099181+1037315312+1037426085+1037398803
3275+1037474342+1037740376+1037995922+1038009083+1037714054+1037261433
3267+1037017404+1037275349+1037878020+1038408030+1038710463+1038898558
3258+1039000625+1038954835+1038789841+1038615730+1038561440+1038664193
3250+1038704431+1038420917+1037964527+1037762723+1037946430+1038311447
3241+1038740761+1039249864+1039738952+1040010812+1040006494+1039892910
3233+1039852124+1039812024+1039558192+1039135733+1038859622+1038873126
3224+1038991645+1038998363+1038870247+1038730753+1038699015+1038757281
3216+1038784357+1038720745+1038603871+1038498925+1038507150+1038696205
3207+1038931392+1038998911+1038947158+1039057725+1039469286+1040021917
3199+1040454110+1040601419+1040439098+1040042824+1039561619+1039228272
3190+1039252469+1039597264+1039970986+1040149553+1040207750+1040338813
3182+1040546170+1040651596+1040579415+1040508194+1040641245+1040922633
3173+1041146030+1041257969+1041346258+1041414052+1041369153+1041228630
3165+1041137942+1041195590+1041338581+1041394516+1041242545+1040984806
3156+1040899670+1041132595+1041514817+1041785512+1041874349+1041881684
3148+1041920208+1042069642+1042335195+1042573673+1042596294+1042407787
3139+1042205023+1042107823+1042037356+1041873527+1041601393+1041288678
3131+1041043620+1040955948+1040967189+1040906799+1040762986+1040765385
3122+1041051366+1041427281+1041611469+1041568558+1041487741+1041516393
3114+1041610578+1041680154+1041803814+1042153338+1042696442+1043137546
3105+1043193687+1042824489+1042211056+1041609755+1041169474+1040835372
3097+1040489344+1040160520+1039981131+1039965434+1039981063+1039914434
3088+1039744436+1039475112+1039123188+1038792994+1038643834+1038698124
3080+1038748507+1038593109+1038317410+1038170033+1038172226+1038085788
3071+1037814545+1037579015+1037573737+1037675119+1037642901+1037442948
3063+1037194051+1036879828+1036321439+1035454928+1034458861+1033504404
3054+1032554675+1031560254+1030681336+1030122398+1029856090+1029639000
3046+1029256435+1028704626+1028179277+1027875474+1027807886+1027874034
3037+1028021275+1028213140+1028350441+1028409049+1028560676+1028970386
3029+1029557360+1030125209+1030619986+1031100368+1031567794+1032001770
3020+1032470362+1033004074+1033421392+1033432840+1032918321+1032058390
3012+1031216488+1030653163+1030325573+1030067834+1029923610+1030065846
3003+1030414754+1030667901+1030755093+1030962381+1031525295+1032314827
2995+1032989473+1033328579+1033402884+1033498988+1033844880+1034303738
2986+1034412934+1033890396+1033006062+1032242098+1031698995+1031092279
2978+1030246469+1029298524+1028411517+1027528143+1026492661+1025308157
2969+1024176641+1023290525+1022690116+1022387478+1022506271+1023139515
2961+1024113783+1025034104+1025576110+1025706831+1025622654+1025466023
2952+1025137542+1024442674+1023376210+1022126585+1020807865+1019337997
2944+1017624648+1015757683+1013937126+1012276147+1010745409+1009270468
2935+1007799229+1006278910+1004662145+1002993420+1001459871+1000294835
2927+999642192+999516065+999840775+1000499861+1001417440+1002669395+1004438131
2917+1006779377+1009477825+1012174696+1014606494+1016712964+1018576775
2908+1020265173+1021709473+1022747011+1023313831+1023571296+1023781669
2900+1024018364+1024087392+1023797641+1023210119+1022535815+1021921628
2891+1021461673+1021308880+1021624200+1022422711+1023529551+1024726051
2883+1025957098+1027312355+1028749525+1030007512+1030907886+1031567863
2874+1032168958+1032686424+1032965482+1032921885+1032566466+1031933976
2866+1031061844+1029982081+1028715183+1027345874+1026062251+1024975633
2857+1023904575+1022539997+1020911029+1019515673+1018901966+1019240660
2849+1020328237+1021832584+1023499458+1025233920+1027010402+1028723271
2840+1030223232+1031474227+1032523006+1033347087+1033889299+1034221207
2832+1034542558+1035001965+1035560354+1036054034+1036401708+1036685633
2823+1036983678+1037231204+1037351779+1037404150+1037491137+1037629329
2815+1037789388+1037953011+1038091477+1038185182+1038303769+1038567130
2806+1038980609+1039358787+1039488616+1039387234+1039312448+1039454137
2798+1039710848+1039881120+1039968244+1040127412+1040367192+1040508537
2789+1040473029+1040450683+1040680797+1041113333+1041403221+1041284702
2781+1040889799+1040606697+1040634185+1040790405+1040828586+1040815082
2772+1040995088+1041345778+1041534970+1041379024+1041096265+1041010374
2764+1041192848+1041473003+1041667404+1041734718+1041758778+1041808338
2755+1041851180+1041851797+1041864821+1041934192+1041990606+1041951054
2747+1041843160+1041749730+1041712029+1041729714+1041773379+1041769471
2738+1041659384+1041511115+1041504603+1041751855+1042147649+1042432807
2730+1042422594+1042179112+1041953042+1041954962+1042182471+1042449464
2721+1042581899+1042610689+1042723312+1042995515+1043260109+1043336883
2713+1043274916+1043255791+1043340721+1043409749+1043301581+1042998668
2704+1042690478+1042598898+1042720365+1042834702+1042775546+1042609455
2696+1042528226+1042634200+1042852868+1043026910+1043059882+1042986398
2687+1042938415+1043017999+1043187243+1043351758+1043511611+1043693536
2679+1043813289+1043809245+1043804035+1043943050+1044181116+1044354679
2670+1044348715+1044180156+1044031956+1044082133+1044222039+1044174193
2662+1043936195+1043794027+1043866002+1043973965+1043997340+1044040045
2653+1044201406+1044434468+1044661704+1044838077+1044890996+1044777961
2645+1044604946+1044514600+1044500617+1044491568+1044531120+1044688574
2636+1044892298+1045022744+1045082449+1045141195+1045184791+1045098764
2628+1044810521+1044458323+1044346247+1044617902+1045060857+1045353624
2619+1045396466+1045290560+1045186779+1045260262+1045612186+1046078310
2611+1046358739+1046416730+1046511120+1046787025+1047085344+1047189399
2602+1047055731+1046802311+1046593377+1046486649+1046375670+1046173454
2594+1045959585+1045878631+1046084205+1046760359+1047840602+1048776964
2585+1049019828+1048642473+1048130628+1047797966+1047718862+1047904626
2577+1048252917+1048552470+1048639731+1048440532+1048011492+1047666765
2568+1047730241+1048029794+1048035689+1047639826+1047380922+1047723386
2560+1048457874+1049003857+1049075352+1048830774+1048508188+1048208566
2551+1048060572+1048290207+1048931470+1049644777+1050005955+1049917734
2543+1049664450+1049587060+1049700781+1049702357+1049420215+1049051497
2534+1048811992+1048672703+1048654880+1048989667+1049695228+1050360895
2526+1050626928+1050619251+1050691295+1050955272+1051269083+1051509754
2517+1051608120+1051436819+1050962332+1050437051+1050166905+1050192131
2509+1050395649+1050702605+1050984610+1051015114+1050727214+1050379266
2500+1050330528+1050638376+1050933954+1050860813+1050573050+1050517115
2492+1050794048+1051086472+1051130960+1050963772+1050803233+1050859168
2483+1051137197+1051370534+1051267027+1050827499+1050376250+1050274525
2475+1050543437+1050785822+1050605816+1050080672+1049666850+1049666164
2466+1049937065+1050170812+1050334298+1050631521+1051061178+1051338316
2458+1051312748+1051131439+1050961304+1050834217+1050721730+1050575723
2449+1050422999+1050469886+1050836067+1051213834+1051155020+1050718645
2441+1050483184+1050838535+1051557052+1052161163+1052456055+1052523369
2432+1052396281+1052000418+1051398021+1050909071+1050872878+1051265244
2424+1051696821+1051904657+1052030374+1052241226+1052381818+1052270907
2415+1052042986+1051929060+1051942975+1051986572+1052051623+1052155679
2407+1052227037+1052222581+1052277214+1052511510+1052703443+1052469490
2398+1051871823+1051470476+1051578028+1051849888+1051853109+1051659051
2390+1051602773+1051768453+1051983144+1052078631+1051960044+1051614152
2381+1051197108+1050972546+1051049868+1051271688+1051429211+1051506258
2373+1051665289+1052101046+1052943703+1054112098+1055155668+1055506769
2364+1055121600+1054660685+1054774954+1055327449+1055480036+1054593371
2356+1053042137+1051970463+1052063345+1052806539+1053244970+1053014239
2347+1052389564+1051820549+1051556983+1051616894+1052008507+1052652375
2339+1053241748+1053535064+1053553640+1053373703+1053055710+1052767193
2330+1052629138+1052514320+1052233480+1051799779+1051451626+1051500226
2322+1051991370+1052514594+1052666702+1052565594+1052581291+1052833684
2313+1053183551+1053476181+1053632196+1053613619+1053374731+1052931090
2305+1052501091+1052355632+1052474151+1052616456+1052703306+1052781930
2296+1052733399+1052450023+1052210997+1052426511+1053003065+1053366025
2288+1053225982+1052964199+1053057766+1053438891+1053672159+1053523685
2279+1053190543+1053121241+1053575713+1054284701+1054822321+1055237514
2271+1055766839+1056093674+1055700896+1054861461+1054482256+1054931106
2262+1055641877+1055928132+1055719953+1055415669+1055419988+1055959595
2254+1056974786+1058103355+1059075499+1059917058+1060409368+1059941736
2245+1058454319+1056833578+1055812286+1055189531+1054560194+1054128207
2237+1054365656+1055215579+1055984067+1056144331+1055993389+1056108207
2228+1056475485+1056796220+1057166171+1057761440+1058365002+1058682515
2220+1058579556+1057944051+1056897944+1055898108+1055201732+1054721967
2211+1054616472+1055394351+1057317319+1059939885+1061949291+1061656524
2203+1058684434+1055213180+1054370523+1057035999+1060983318+1063439107
2194+1063697120+1062712981+1061168602+1059209098+1057496297+1057022016
2186+1057824778+1058910847+1059401923+1059106825+1058331276+1057815661
2177+1058438416+1060242112+1061944013+1062148217+1060966181+1059701407
2169+1058990225+1058051602+1056121916+1054070421+1053761477+1055894818
2160+1059208824+1061990214+1063696915+1064413443+1063878634+1062425149
2152+1061597025+1062476355+1064192994+1065155746+1065009671+1064440040
2143+1063838603+1063072171+1061969650+1060668204+1059878123+1060480178
2135+1062231982+1063545013+1063310923+1062191813+1061488240+1061488788
2126+1061483236+1060929233+1060063545+1059431124+1059237134+1059343246
2118+1059597558+1059813620+1059624497+1058789312+1057549284+1056357857
2109+1055417657+1054718334+1054293338+1054228218+1054565678+1055256913
2101+1056062143+1056596403+1056709850+1056767841+1057355432+1058692660
2092+1060382703+1061665436+1061971021+1061422365+1060777263+1060647502
2084+1060855682+1060813319+1060389215+1059936869+1059592691+1059168106
2075+1058736188+1058665652+1059032588+1059553550+1060006513+1060174935
2067+1059681391+1058510597+1057400742+1057133748+1057787967+1059001878
2058+1060329304+1061109719+1060741756+1059495216+1058523004+1058734885
2050+1060016315+1061632053+1062947551+1063483937+1062759936+1060869254
2041+1059008665+1058632269+1060056416+1062267627+1063834216+1063970557
2033+1063096163+1062202644+1061573445+1060763965+1059762415+1059247142
2024+1059704766+1060974612+1062535443+1063900158+1064923781+1065878307
2016+1067139379+1068966997+1071338473+1073431576+1073741823+1071616982
2007+1068248138+1065388260+1063784450+1063343757+1063718096+1064231655
1999+1064119237+1063385845+1062938434+1063435200+1064371904+1064802452
1990+1064694352+1064577478+1064280735+1063317023+1061979178+1061006967
1982+1060678897+1060795565+1060967072+1060863702+1060880085+1061946961
1973+1064046508+1066011633+1067018118+1067225749+1067031965+1066498595
1965+1065459138+1064041984+1062983265+1062972366+1063676556+1064112382
1956+1063809127+1062906560+1061658307+1060506500+1060052166+1060400731
1948+1061012999+1061499687+1062071032+1062924245+1063627956+1063677447
1939+1063261020+1062828073+1062415210+1061736382+1060700970+1059703327
1931+1059362713+1059841313+1060530286+1060723111+1060363030+1059836378
1922+1059456212+1059441269+1059922885+1060609459+1060809686+1060175483
1914+1059070906+1058193770+1058003618+1058212141+1058152504+1057828274
1905+1057789407+1058104932+1058427380+1058796509+1059441543+1060024336
1897+1059962848+1059369705+1059045886+1059547449+1060693498+1061767640
1888+1062082137+1061686137+1061167505+1060840875+1060628035+1060604317
1880+1061144062+1062257687+1063190964+1063121525+1062084947+1060889339
1871+1060299280+1060550233+1061249557+1061683258+1061580505+1061178130
1863+1060732844+1060403953+1060369473+1060753683+1061413112+1061991860
1854+1062237877+1062177144+1061996384+1061811922+1061595243+1061398237
1846+1061565424+1062395194+1063446990+1063959726+1063787535+1063231956
1837+1062705441+1062476834+1062377235+1062077681+1061638496+1061420103
1829+1061477135+1061597779+1061891780+1062524749+1063247653+1063738386
1820+1063938065+1063811663+1063308661+1062626748+1062132314+1062022158
1812+1062226018+1062505624+1062627502+1062513507+1062228281+1061908506
1803+1061709649+1061719931+1061889312+1062079464+1062165491+1062089129
1795+1061963892+1062132931+1062758428+1063289399+1063208170+1062727856
1786+1062275030+1062047315+1062005295+1062087484+1062291413+1062553608
1778+1062688098+1062489036+1061956215+1061524022+1061771136+1062496439
1769+1063033236+1063208718+1063024188+1062495274+1061949497+1061782309
1761+1061782652+1061454377+1060973858+1060810235+1060885020+1060855750
1752+1060819283+1061187590+1061951622+1062497879+1062516112+1062200656
1744+1061781898+1061474256+1061561449+1061996041+1062178309+1061805684
1735+1061437514+1061914332+1062892370+1063362608+1063299132+1062974696
1727+1062573007+1062349953+1062376549+1062284832+1061784846+1061242359
1718+1061482070+1062695639+1063648109+1063730846+1063475643+1063203508
1710+1062921229+1062738275+1062871463+1063128380+1062946455+1062414319
1701+1062390327+1063307906+1064272372+1064774690+1065094053+1064872027
1693+1063926686+1062875508+1062318284+1062160007+1061947578+1061893631
1684+1062819641+1064213284+1064633961+1064180793+1063514852+1063153057
1676+1063380293+1063879114+1064030947+1063918666+1064107310+1064496112
1667+1064330706+1063610065+1062939394+1062743759+1062859947+1062818407
1659+1062460040+1061815144+1061017660+1060771025+1062151576+1063638923
1650+1063629395+1063288233+1063918598+1065359676+1065979552+1065515416
1642+1064733972+1064083386+1063714943+1063894126+1064968611+1066236126
1633+1066493728+1065940343+1065272346+1064901640+1064824592+1064840633
1625+1065100565+1065905110+1066827693+1067148016+1067000844+1067126424
1616+1067761998+1067878049+1066663864+1064229667+1060909766+1057367633
1608+1054744176+1053941620+1054909033+1056849138+1058814263+1060111802
1599+1060451525+1059787777+1057914301+1054087215+1046996438+1035176076
1591+1017906653+996700537+976095036+961930207+958142742+964746694+977894139
1581+992012904+1003070125+1009407563+1009774773+1004531973+998284880+995136896
1571+997487191+1006227842+1017056799+1024790485+1029169997+1031263717
1562+1031413288+1030463903+1030995216+1035256414+1039207845+1041159740
1554+1042802485+1044651696+1046434004+1047770615+1048251546+1047720301
1545+1046363194+1044407255+1042198854+1040914819+1041948655+1043694976
1537+1044589249+1045655851+1048260388+1051982253+1054581581+1055486822
1528+1055876378+1056600173+1057492458+1058161141+1058955609+1060220313
1520+1061220835+1061357177+1060954596+1060293865+1059431946+1058620068
1511+1058169847+1058237640+1059299787+1062411029+1066005806+1067247205
1503+1067008179+1066589078+1066585719+1067275035+1068495321+1069408513
1494+1069428323+1068905304+1068526716+1068768620+1069101488+1068155461
1486+1065627354+1062120455+1058015477+1053470355+1048852915+1044756642
1477+1041697908+1039949119+1039248905+1037894403+1032531301+1021578615
1469+1006190278+987541196+967849779+953133277+948846031+952846542+960680720
1459+971418234+985791791+998692807+1004182654+1005311840+1006032344+1008263229
1449+1012956894+1019828113+1026895173+1032365347+1036027781+1037899886
1441+1037122282+1031614133+1017828372+995504586+974529819+963846114+963606746
1431+971965793+985578059+998829628+1008707486+1015846110+1021098028+1024457069
1421+1026310667+1027386592+1027440881+1025757076+1022795679+1019782940
1412+1018040938+1018441257+1020769479+1024119404+1027839143+1031435909
1404+1034090418+1035258676+1035014440+1033288204+1029607674+1023647796
1395+1015809505+1007717041+1001478379+998076084+997787498+1000969961+1006913799
1385+1013226492+1018291480+1022351490+1026018174+1029352608+1032115628
1377+1034316077+1036233767+1037944168+1039201744+1040054271+1040955948
1368+1042108645+1043203215+1043977735+1044622769+1045394410+1046153233
1360+1046655276+1046990748+1047394837+1047980371+1048705057+1049446743
1351+1050077245+1050519103+1050811322+1051123899+1051607846+1052218880
1343+1052803043+1053344981+1053982063+1054710794+1055282413+1055551531
1334+1055646401+1055782879+1056078114+1056467191+1056736857+1056645141
1326+1055993938+1054688447+1052916010+1051266821+1050461866+1050780270
1317+1051762147+1052669307+1053153733+1053323663+1053383231+1053393513
1309+1053304469+1053062290+1052641202+1052005148+1051032319+1049477452
1300+1047036401+1043528679+1039169389+1034756016+1031423502+1029980025
1292+1030419621+1032047971+1033994657+1035651523+1036807716+1037538297
1283+1037988656+1038182508+1037973849+1037198575+1035868339+1034193171
1275+1032481261+1031059034+1030169970+1029851018+1029983246+1030494064
1266+1031390256+1032609171+1033972790+1035270809+1036313967+1036996154
1258+1037339578+1037391331+1037154225+1036727858+1036347281+1036142461
1249+1036028740+1035941274+1035950322+1036024559+1035929758+1035504351
1241+1034856301+1034190909+1033601878+1033105662+1032737766+1032537401
1232+1032525885+1032733791+1033171467+1033765502+1034403749+1035019581
1224+1035558709+1035924411+1036051567+1035996934+1035903915+1035899871
1215+1036002487+1036072748+1035903504+1035396045+1034618989+1033720397
1207+1032844221+1032065930+1031342341+1030590853+1029844643+1029256847
1198+1028939814+1028813686+1028565269+1027735842+1025931667+1023064523
1190+1019512177+1016124756+1013942472+1013646621+1015150008+1017762703
1181+1020731023+1023582675+1026091109+1028138560+1029667379+1030647542
1173+1031032574+1030814867+1030137273+1029317854+1028731634+1028590426
1164+1028755009+1028804912+1028332892+1027125905+1025097236+1022298572
1156+1019172112+1016639618+1015653834+1016545639+1018846510+1021733944
1147+1024524657+1026832315+1028532023+1029700007+1030480971+1030976022
1139+1031232939+1031209290+1030762017+1029885497+1028950438+1028489318
1130+1028716417+1029378450+1030051588+1030467536+1030564805+1030382605
1122+1030014984+1029570109+1028971483+1027832220+1025745149+1022783204
1113+1019651946+1017321462+1016394628+1016594719+1016898728+1016446108
1105+1015400207+1014713085+1014957663+1015564310+1015381699+1013938085
1096+1011978718+1010751304+1010964213+1012493923+1014826532+1017484400
1088+1020060353+1022186359+1023710037+1024781917+1025581251+1026081033
1079+1026244245+1026246164+1026300179+1026426444+1026525359+1026532145
1071+1026446529+1026308131+1026095428+1025611001+1024640640+1023263860
1062+1021875015+1020936392+1020802518+1021614740+1023197026+1025125615
1054+1026953645+1028355033+1029181993+1029493062+1029352196+1028513241
1045+1026612277+1023891620+1021379553+1019865609+1018648613+1015433110
1037+1007665287+994757553+979832461+968705528+965774018+970697661+979576710
1027+988786982+996940043+1004031232+1010195930+1015394655+1019198983+1020168932
1017+1016233062+1007309113+997575137+993114465+996346626+1004094638+1011571477
1007+1016698021+1020139525+1022990081+1025584679+1027785334+1029495735
999+1030782512+1031697144+1032099313+1031629008+1029879671+1026961939
990+1024049211+1022834889+1024045783+1026786799+1029556194+1031574032
982+1032980973+1034149917+1035169221+1035965197+1036631206+1037398803
973+1038340305+1039294009+1040051392+1040462679+1040424223+1039914023
965+1039035996+1037930527+1036622295+1035023077+1033160431+1031381825
956+1030231252+1030082503+1030911382+1032371447+1034024338+1035558229
948+1036877018+1038021490+1039052104+1040035832+1041025318+1042016037
939+1043014846+1044099750+1045248746+1046246115+1046967785+1047608226
931+1048409274+1049317942+1050074640+1050503200+1050658118+1050774580
922+1050977276+1050957534+1050100482+1047949388+1044313893+1039012689
914+1031925271+1023383202+1014317634+1006077312+1000201199+998016927+999903496
904+1004784160+1010514883+1014965272+1016942667+1016482986+1014600804
895+1012709779+1011978718+1012988220+1015741369+1019755384+1024242584
887+1028545939+1032473926+1036093792+1039332533+1042024400+1044197430
878+1045994545+1047362140+1048102592+1048160994+1047580807+1046294921
870+1044325752+1042094867+1040190133+1038851739+1037740445+1035835710
861+1031402869+1022578040+1008588350+990703986+972163278+956962693+948093103
851+946420334+950842277+959032011+968164412+975869994+981104501+984071518
841+985430339+985773694+985544265+985124959+985105286+986371293+989516672
832+994130616+999011348+1003192757+1006613286+1009780737+1013043675+1016327863
822+1019375082+1022035554+1024400106+1026696454+1028946188+1030825012
813+1032067027+1032842918+1033542036+1034462563+1035808154+1037542684
805+1039188309+1040271910+1040913654+1041483902+1041927200+1041961062
796+1041631622+1041140958+1040247439+1038054873+1033348252+1025243106
788+1013699745+999517162+984003039+968431543+953143217+937439423+921597300
778+909023599+904818542+911366628+926021368+943280645+958386292+969207777
768+976382183+982376129+989583849+998526236+1007816366+1015791135+1021873233
758+1026448037+1030015190+1032734750+1034472845+1034932869+1033712377
749+1030397137+1024714535+1016499369+1005444616+991212473+974198391+955991030
739+938521517+922801752+909128340+898516748+893042119+894258772+901630664
730+912894555+925761435+938855138+951264530+962146269+971111277+978413593
720+984392733+988931960+991425999+990846977+985997640+976532987+964043189
710+951700151+942608261+938436792+939262312+944150926+951762598+960790190
700+970203706+979307249+987681582+994980265+1000684666+1004125348+1005017907
690+1004319338+1004259290+1006682999+1011357951+1016543171+1020814103
681+1023650743+1024805086+1023945978+1020642528+1014151269+1004058034+991873958
671+980814818+974318966+975658045+984121970+993252589+999737200+1003689179
662+1004254217+999565556+989076322+975264718+963178597+957584695+960049121
652+968709367+980232437+991635892+1001088823+1008076368+1012830629+1015558278
642+1016476474+1016291053+1016083696+1016581489+1017708002+1018977437
633+1020266270+1021979345+1024420122+1027226670+1029537686+1030667009
625+1030532519+1029204750+1026124560+1020470405+1012850713+1006287547
616+1004421268+1008044699+1014113842+1018731899+1020618879+1021464072
608+1023392593+1026823610+1030746182+1034179255+1036800450+1038540807
599+1039269126+1039082540+1038578851+1038493235+1039001790+1039506575
591+1039402589+1039006794+1039276324+1040733168+1042923609+1044725110
582+1045075389+1043589207+1040518476+1035940314+1029554686+1022113904
574+1016267198+1014532874+1016922240+1021298529+1025686129+1029639068
565+1033395824+1036783587+1039192696+1039922866+1038745353+1036584182
557+1035106843+1035268410+1036761584+1038821853+1040740845+1041752335
548+1041445172+1040327708+1039283727+1038562948+1037781230+1036668359
540+1035414348+1034474079+1034250888+1034639485+1034628654+1033005925
531+1029973444+1027346560+1026633390+1027643577+1029226343+1030648502
523+1031837393+1032982070+1034371326+1035934830+1036877772+1036598646
514+1035450335+1033872984+1031771792+1029141344+1026455303+1024146754
506+1022354301+1021149438+1020040542+1017190536+1010634087+1000644291+989804161
496+981243584+977048192+977682189+982102966+988146541+993819958+998378516
486+1001776082+1003936430+1005003512+1005205111+1003823258+999399534+991647477
476+982373113+974086521+968712794+967252043+969275228+973309327+977739152
466+981198822+983369110+985169515+987299017+989115668+989512079+988642689
456+988184585+989223288+990971391+991642198+990310728+988101368+986684967
446+986256750+985780069+984683855+983446638+982969546+983988302+986370882
436+988543432+988882058+988077102+988204121+989939131+992119016+993425878
426+993423067+992085976+989682626+987522072+987946587+992279623+996854770
416+997305676+995252468+993268081+991549522+988636314+983967120+979372986
407+976805533+975468031+973143510+969608781+966817451+966425358+967373030
397+966683783+965068319+966349750+971897793+979695023+987600422+995946307
387+1005656840+1014516628+1018807233+1019844839+1021443165+1024375018
378+1028822049+1036817724+1047347950+1050763818
##END=
