##TITLE=JPK-009
##JCAMP-DX=4.24
##DATA TYPE=INFRARED SPECTRUM
##DATE=19/10/2018
##SAMPLING PROCEDURE=Diamant-ATR
##ORIGIN=Angelika Moesle
##XUNITS=1/CM
##YUNITS=TRANSMITTANCE
##RESOLUTION=4
##FIRSTX=3997.453
##LASTX=373.96442
##DELTAX=-1.4165319
##MAXY=0.91115975
##MINY=0.26773828
##XFACTOR=1
##YFACTOR=8.4858365e-010
##NPOINTS=2559
##FIRSTY=0.7301724
##XYDATA=(X++(Y..Y))
3997+860460129+860026888+859730193+859504090+859273703+859107023+859135329
3988+859346963+859506689+859457451+859383418+859490112+859628837+859581495
3978+859443192+859405122+859424157+859294915+858958746+858717822+859050339
3968+859977509+860846801+861076346+860769326+860378931+860224192+860477549
3958+861122634+861779099+861957017+861551872+860902712+860480639+860598643
3948+861196878+861897313+862379792+862524698+862243456+861539650+860729500
3938+860278839+860399090+860924346+861566130+862117164+862363145+862153619
3928+861705136+861497787+861741309+862116602+862279349+862350291+862568457
3918+862867470+863056978+863156929+863282729+863397432+863344190+863018486
3908+862499763+862020935+861816607+861960740+862334347+862802919+863278866
3898+863596773+863595720+863312863+863017784+863099824+863605202+863884828
3888+863490851+862876952+862751363+863134523+863570644+863990750+864300088
3878+864110720+863617494+863468796+863793024+864165648+864572479+865383542
3869+866239208+866552900+866620401+866990215+867551013+867734340+867339801
3859+866589776+865871360+865743944+866792700+868417847+868780426+868000339
3849+867131258+866438549+865815238+865295812+865093099+865388880+866223263
3839+867312899+867924480+867693811+867217302+867167923+867540266+867811112
3829+867663186+867318307+867075698+866952777+867055469+867686576+868394316
3819+868220401+867578336+867596880+868315717+868832334+868847576+868691432
3809+868740811+869183394+869603219+869303364+868422342+867722820+867494750
3799+867352655+867316060+867770794+868551935+868987424+868774245+868213729
3789+867771567+867650965+867828321+868300686+868992903+869622254+869939951
3779+869911714+869638761+869271475+868967967+868886278+869201727+869944446
3769+870721162+871064706+871081915+871059157+870913620+870571410+870351488
3759+870647971+871472521+872503927+873374624+873694498+873286121+872630500
3750+872285059+871878438+871264610+871328318+872639350+873764527+873428428
3740+872140785+870964965+870869228+872155957+873777592+874419938+874057850
3730+873430676+873150277+873449289+874087842+874586407+874768680+874767908
3720+874645338+874365572+873966116+873628191+873606838+873940549+874241317
3710+874332208+874640141+875168628+875484849+875541603+875676604+875937055
3700+875937266+875511681+874866946+874242300+873783843+873617163+874030667
3690+875324771+876881083+877353518+876628710+875594423+874947512+874913656
3680+875194335+875243293+875105341+875690652+877107677+877978163+877994881
3670+878028245+878423205+878567759+878251679+877887554+877743983+877683155
3660+877539584+877468290+877614671+877647684+877180797+876404784+875636287
3650+875021896+875078158+876250466+877627314+878317845+878387172+878198577
3640+877979919+877915509+878228991+878911725+879497037+879410992+878621704
3631+877796101+877855243+878823433+879536652+879419070+878759866+878190780
3621+878399253+879420826+880302832+880540243+880777866+881449221+882002292
3611+881759261+880927126+880273120+880201124+880453707+880629378+880575995
3601+880383748+880189323+879986891+879712112+879440002+879316168+879353044
3591+879527029+879990333+880805611+881441143+881345828+880866509+880569463
3581+880518820+880488125+880462136+880666465+881187787+881804917+882150990
3571+882001941+881475069+880960982+880811160+881003407+881309654+881607683
3561+881844673+881980026+881963519+881783143+881616674+881743598+882130551
3551+882409474+882538716+882985162+883971896+884931658+885087661+884441311
3541+883599342+883026815+882849318+883002933+883255306+883268020+883000264
3531+882950253+883665509+884992486+886151027+886640811+886570009+886185234
3521+885710410+885442865+885460777+885493017+885395734+885368270+885493579
3512+885587841+885669882+885993057+886484597+886756356+886687099+886471603
3502+886181300+885764776+885472647+885741246+886597333+887589404+888371599
3492+888912378+889167279+889072455+888764803+888395270+887980642+887716820
3482+887951984+888575717+888965971+888762836+888263078+888012882+888184900
3472+888385717+888236878+888020258+888333177+889185752+889987263+890374567
3462+890484142+890470936+890313950+890119736+890188220+890610082+891018599
3452+891006518+890704906+890628134+890979545+891424376+891607001+891588106
3442+891681104+892091307+892745383+893381548+893749396+893679858+893171460
3432+892626326+892668119+893342565+893873580+893627599+892967904+892790618
3422+893499341+894658584+895531388+895862149+895984156+896194526+896428987
3412+896640691+897016406+897608179+898159564+898452676+898512170+898451061
3403+898389390+898499316+898902564+899504803+900008706+900154103+900001191
3393+899952233+900382314+901222667+902039560+902531171+902770900+902938985
3383+903063380+903147879+903308027+903586880+903815512+903790787+903468736
3373+902933436+902344824+901959065+902042299+902647348+903525701+904317167
3363+904809480+905061221+905366274+906043038+907118906+908197303+908710829
3353+908377539+907495183+906730829+906486253+906599059+906821439+907207479
3343+907754228+908147995+908217181+908217392+908488659+909171464+910187137
3333+911175275+911661899+911500417+910944747+910316730+909871267+909803625
3323+910080723+910433960+910676429+910822388+910844936+910559971+909810368
3313+908606944+907054004+905160611+902781717+899893723+896946798+894692299
3303+893568176+893412594+893749115+894166201+894536015+895068927+896012814
3293+897259507+898561689+900019664+901834880+903742743+905320969+906660519
3284+908147152+909793300+911244321+912238360+912768462+912957689+912929242
3274+912746969+912491224+912357908+912560973+913187726+914185066+915317267
3264+916160640+916430994+916278152+916002600+915637843+915129725+914734624
3254+914862110+915557839+916360333+916697134+916432821+916059845+916247246
3244+917145266+918302543+919305081+920204225+921184778+922070717+922477407
3234+922465537+922729921+923886706+925724680+927433201+928485047+929001734
3224+929284029+929325120+928950880+928287883+927860332+928117200+928980381
3214+930001392+930862255+931547026+932062308+932283846+932179609+931948379
3204+931767932+931606379+931461614+931538317+931906867+932207424+932072423
3194+931657865+931361241+931245556+931160284+931177212+931424528+931658287
3184+931473977+930889157+930314944+929965218+929590838+928854581+927790794
3174+926735646+925844088+924849839+923359202+921288101+918925292+916594794
3165+914323720+911882945+909129671+906183448+903165861+899918026+896193542
3155+892113994+888242919+885159868+883062005+881805479+881162852+880893973
3145+880719707+880512498+880509338+881108346+882446701+884316565+886397359
3135+888372863+889843762+890356866+889709323+888156172+886171326+884054569
3125+881872067+879653883+877471802+875446779+873830553+872969689+873091275
3115+874141717+875705192+877053452+877595003+877377891+876881363+876343816
3105+875595056+874477886+873104972+871658587+870101292+868213729+865872835
3095+863062246+859602497+855263692+850269547+845290785+840795345+836693811
3085+832662097+828572434+824595788+821092631+818493183+817200413+817407903
3075+818890602+821085115+823501306+826050391+829096004+833298543+839179681
3065+846561148+854517672+861956736+868066997+872311680+874476551+874853952
3055+874012404+872243195+869508606+866005378+862419267+859431954+857217001
3046+855537207+854013277+852144819+849422381+845699723+841420623+837467156
3036+834786370+833966035+834955017+837079570+839299300+840607593+840427708
3026+838722277+835721407+831562979+826214121+819671672+812140102+804005730
3016+795720834+787790019+780849308+775606302+772508641+771376019+771388030
3006+771536869+771165720+770133470+768644449+767125717+766133505+766053360
2996+766880649+768426213+770546623+772942163+774908115+775585862+774447621
2986+771452791+766930730+761551107+756271787+751994092+749148171+747617638
2976+746975011+746796039+746935536+747588770+749011905+751166311+753635393
2966+755791836+757051383+757171915+756382837+755067941+753250196+750480065
2956+746288625+740725675+734414878+728060181+721959262+716088801+710577618
2946+705897165+702602411+701064643+701403973+703459411+706818716+711067613
2936+716059651+721818079+728205508+734899675+741729968+748795706+756155680
2927+763604789+770820700+777506228+783320146+787881190+790890489+792144135
2917+791548499+789314089+786006832+782246174+778456226+774930803+771929160
2907+769617416+768065881+767325761+767329554+767687357+767768133+767063976
2897+765348922+762515013+758492078+753397841+747569102+741340065+734882958
2887+728320070+721851162+715645164+709673557+703843484+698293107+693367657
2877+689268090+685897055+683076280+680781113+679175072+678523876+679052362
2867+680817076+683729584+687682349+692619810+698571890+705667831+713977733
2857+723207289+732622139+741340346+748523174+753205524+754339410+751419878
2847+744926879+735885145+725184198+713506632+701595377+690220687+679903533
2837+670817056+662933231+656161940+650378436+645460712+641357704+638034923
2827+635364954+633195236+631451173+629993760+628496591+626721552+624860961
2817+623411696+622706204+622626200+622744344+622717934+622543106+622428193
2808+622495132+622719479+623108048+623722438+624438748+624889900+624866580
2798+624651997+624766277+625496634+626822136+628649083+630963285+633807871
2788+637171039+640918703+644894085+648999551+653073269+656843831+660142449
2778+663019135+665622375+668094758+670483204+672630024+674301459+675442370
2768+676078956+676047419+675132330+673400208+671143743+668609338+665993524
2758+663564198+661526461+659828827+658278065+656793890+655410159+654133545
2748+652989754+652165345+651934396+652410624+653419694+654624242+655757989
2738+656728708+657542650+658244911+658936917+659707803+660512825+661234051
2728+661878715+662635834+663720272+665204797+667022261+669092660+671365069
2718+673749371+676172516+678735509+681633407+684901119+688382151+691864026
2708+695056932+697583681+699229268+700121458+700524075+700571206+700278375
2698+699624017+698510641+696811883+694535750+691783601+688515327+684572677
2689+680003274+675174193+670496269+666224965+662608581+660037651+658869136
2679+659120174+660410064+662196833+664067680+665893502+667797783+669976000
2669+672493478+675244855+678054812+680751612+683217323+685466974+687618851
2659+689734204+691801020+693864957+695992601+698122704+700155314+702128430
2649+704127043+706093206+707874847+709416970+710847129+712388479+714145115
2639+715954291+717534765+718779139+719834216+720931368+722176725+723454253
2629+724577534+725581195+726710587+728011715+729129026+729694389+729773128
2619+729761679+729966639+730426361+731027968+731641516+732216150+732854001
2609+733722310+734839761+736016424+737039191+737900756+738841202+740099273
2599+741572420+742843977+743631721+744073320+744476148+744928143+745292198
2589+745536282+745894226+746589042+747513262+748370543+749063813+749767338
2580+750648431+751639028+752469617+752924071+753101287+753362580+753950701
2570+754715195+755301630+755631618+756073921+757008466+758343450+759670849
2560+760726277+761436686+761725514+761587281+761263685+761197799+761861639
2550+763513828+765898411+768261641+769898868+770671159+770872256+770724541
2540+770267208+769711889+769508684+769844573+770395958+770848445+771333243
2530+772020894+772631140+772737273+772328616+771770628+771424274+771538554
2520+772252335+773487929+775024292+776754167+778673057+780661275+782507257
2510+784067923+785271347+786135582+786843532+787586884+788368165+789123809
2500+789848055+790410679+790528120+790102816+789423594+788993162+789220951
2490+790127470+791295424+792356471+793414639+794636045+795686206+796107014
2480+796041621+796070841+796452947+796922924+797131818+796966684+796464818
2470+795674546+794705583+793812058+793303800+793328455+793770054+794411277
2461+795180547+796117270+797088902+797801066+798227705+798749870+799686101
2451+800954709+802279157+803440438+804333541+805038682+805738344+806416162
2441+806856638+807000279+807042282+807220552+807698817+808475252+809311390
2431+809982605+810530198+810966740+810999613+810488405+809882232+809734868
2421+810030369+810351858+810518538+810775968+811440721+812500223+813595618
2411+814434356+815105430+815796172+816367435+816520910+816230256+815689969
2401+815002810+814189920+813338961+812574818+812012195+811772324+811917862
2391+812426682+813282909+814453251+815751851+816888687+817673621+818112622
2381+818390562+818782924+819421407+820116012+820596033+820974487+821758999
2371+823241979+824962863+826003892+825977833+825501043+825408396+825775401
2361+826180476+826598756+827355594+828367474+829078725+829097550+828448671
2351+827321527+825914687+824478417+823333994+822794409+822961089+823657380
2342+824752353+826311966+828240058+830012498+831030769+831313908+831589179
2332+832380855+833195150+833133970+832180882+831186773+830759432+830779731
2322+830890359+830979213+831152566+831603718+832458611+833528299+834465021
2312+835284724+836286419+837384975+838112452+838326684+838419401+838833116
2302+839693487+840737186+841400393+841305499+840833626+840855892+841749276
2292+842964712+843698370+843779498+843725764+844044935+844739119+845527635
2282+846282014+847042925+847776584+848314202+848489311+848280065+847897186
2272+847711682+847936872+848361965+848574090+848515370+848605488+849118241
2262+849631977+849493113+848813469+848546275+849354318+850773380+851826631
2252+852145381+852066501+852011784+852306793+853247097+854838318+856683878
2242+858331080+859457732+859799029+859355954+858618081+858226000+858483360
2232+859245045+860064466+860584595+860988054+861730773+862668269+863048760
2223+862678734+862488384+863442175+865315128+867031306+867892169+867997670
2213+867762084+867468481+867105831+866470438+865596300+864780460+864011963
2203+863165850+862969037+864561943+867751829+870815916+872222053+871699186
2193+869979285+868416933+868369521+870062169+872152796+873006214+872515095
2183+872177942+873091135+874526843+875163851+875002580+875139548+876052951
2173+876844277+876330751+874578540+872941804+872525561+873139952+874051669
2163+875103374+876665375+878964897+881551561+883308197+883636570+883405480
2153+883848273+884801854+884864648+883538093+882095992+881674692+881812082
2143+881667387+881365565+881402511+881915475+882942316+884405208+885857563
2133+886996859+888009370+889015209+889778509+890056098+889708199+888632260
2123+887039916+885596410+884953502+885203838+885832768+886172169+885918532
2113+885199764+884238458+883274411+882793547+883302648+884641144+885934898
2104+886537769+886698830+887006622+887586314+888329033+889498532+891366850
2094+893458953+894893327+895322564+895051929+894507217+894024105+893945857
2084+894458962+895288006+895894881+896120211+896316743+896657549+896769933
2074+896394991+895965613+896132714+897120361+898729422+900403877+901181717
2064+900412376+898826845+898110045+899137869+901180663+902955140+903865382
2054+904028339+903796055+903585405+903666322+903913286+904133278+904463828
2044+904977424+905435179+905930092+907038481+908891346+910775047+911985706
2034+912666192+913592379+915174258+916832487+917705010+917905335+918521131
2024+920135881+921887039+922483097+921841031+921047247+920942519+921631224
2014+923210785+925653386+927913854+928528737+927230629+925024947+922970353
2004+921792355+922013822+923474115+925159949+926144997+926428837+926516567
1994+926466556+925830461+924595078+923644588+923675002+924147578+923977315
1985+923024227+922288531+922479444+923177210+924019249+925828916+929233807
1975+932901257+934896849+935177670+935406653+936563789+937634178+936912180
1965+933975580+929621322+924876389+920997798+919112342+918969825+919256896
1955+919493325+920485677+922773469+925611944+927798590+928946525+929518210
1945+929696339+928805132+926426519+923518717+921293580+919848740+918696591
1935+917649380+916702051+915695088+914616200+914005321+914717064+917264815
1925+921369158+925931326+929688823+932321916+934413527+936347941+937986925
1915+939303998+940578856+941954720+943224592+943987190+943888713+942827384
1905+941151524+939713989+939400156+940348117+941917985+943547205+945160762
1895+946728171+948011037+948847035+949220994+949101586+948570008+947970017
1885+947776997+948417798+949994198+952050478+953891964+955218520+956301974
1875+957441761+958378975+958500069+957515864+955679225+953476423+951288513
1866+949396735+948121736+947732184+948256035+949461988+951009098+952539911
1856+953808168+954852779+955827642+956581600+956688646+955986806+954789352
1846+953472279+952133291+950798588+949749270+949399825+949971299+951250232
1836+952713405+954069321+955496741+957342020+959656152+962020155+964116683
1826+965971795+967418110+968252001+968805072+969512882+970251247+970455014
1816+969618243+967583737+964671229+961831700+960489973+961593094+964749687
1806+968695217+972421878+975709890+978682313+981180193+982897284+983858801
1796+984401968+984936636+985655544+986180519+986003022+985370861+984831908
1786+984587894+984574408+984767779+985318111+986315240+987581319+988923327
1776+990421479+992344233+994966087+998156325+1001121162+1003390551+1005198251
1766+1006683550+1007891399+1009206014+1010987304+1013008535+1015083640
1758+1017558481+1020291666+1022421909+1023674432+1024675916+1026153347
1749+1028376167+1031134708+1034253793+1037721900+1041344887+1044884148
1741+1048452699+1052056370+1055164356+1057631682+1060122328+1063108447
1732+1065988575+1068307764+1070256858+1071838807+1072979155+1073654163
1724+1073741823+1073165573+1071811272+1068960576+1063071922+1053225096
1715+1041666095+1031254187+1021879374+1011525133+997739379+976780701+942772456
1706+895077567+844677026+798527420+749482304+694971801+652310251+631427783
1696+626219195+631018002+641383693+652442443+659096784+657667046+647883646
1686+629052542+600945102+575360092+562294510+556951201+554059414+551904306
1676+550154624+548913305+548552060+549435540+551855032+555714202+560275808
1666+565140220+570632051+577015231+583504367+588834822+592795348+595852340
1656+598093141+598283422+593701446+585709908+577462099+565838618+545793483
1646+519715457+498030425+482075726+466924574+451030105+436012445+423470995
1636+414841395+412174798+414487947+419005232+424913166+432545566+441840165
1626+452342086+464501464+478853564+493310884+504907358+513150110+517981543
1616+517925632+513711399+509144279+506768932+507540239+511407381+517121488
1606+523177805+528988316+534682474+540381233+545976248+551304490+556380641
1596+561449065+566631945+571613342+576013747+579778408+582928398+585387857
1587+587147864+588304228+589086141+589884947+590972406+592454051+594866660
1577+599291860+605448760+611358697+616852600+623647562+632891237+643123401
1567+652655130+661857503+670711906+678358952+686080522+699231234+719133430
1557+735603482+748711980+762616299+774040930+773594835+752493429+712018946
1547+664016755+621203486+592110858+577300687+565806764+548358548+534025659
1537+529038748+530125679+535488023+544525402+555200641+566274352+578627418
1527+593040767+608104049+621804391+634457803+646704525+656915406+664873896
1517+673031939+682380762+691660751+700094978+707570497+713170112+714056753
1507+704059121+683247104+663939140+649565547+637274012+624890602+610073653
1497+591434656+574101388+566040874+569172040+582344351+604538448+631336260
1487+655177454+671899808+679845163+677491064+666061306+651506844+640103777
1477+632887022+626673789+618887317+611573983+610460957+616825909+626801486
1468+637832561+649154361+659470462+666970143+671629524+675079158+679542990
1458+687322438+697237397+705418760+712182395+719396199+727574611+736137518
1448+744445172+752834585+762515083+773935851+785338216+792953372+791299778
1438+771617645+727963460+673019085+625177674+588839985+563259961+548095920
1428+539793042+533458820+527933695+525577594+528780054+538397441+554136046
1418+572334216+587553782+599078541+609035363+618557329+627625052+635935796
1408+643415389+650400983+657221161+663573329+669102704+674250254+679653829
1398+685277256+690809581+696410320+702106164+707354227+711925316+716174775
1388+720274552+723478276+724413453+722187753+716294675+705512249+687794873
1378+662187632+631086837+601140019+582021843+579652713+590293113+605990593
1368+621197375+633910351+645010332+656438686+668583770+679039017+684969604
1358+685782493+682818148+678493743+675489361+675600059+679365353+686410721
1349+695529016+705014036+713506351+720208526+724205893+724025657+718579165
1339+709219384+699495548+691576182+685063093+679546361+676595713+678416127
1329+684310330+689319366+687808851+678958522+668064695+661880191+663205903
1319+670001919+678453495+686083753+692327892+697495600+701951636+705900396
1309+709489528+712889713+716181799+719289364+722125380+724715977+727179018
1299+729699376+732497673+735689807+739203360+742909371+746756635+750708486
1289+754662375+758541738+762390056+766285013+770181866+773841518+776763860
1279+778126589+777009911+773086507+767405062+762352688+759792715+757876423
1269+750259792+731171960+702567290+674751558+658274061+655526618+660566489
1259+665422823+665718745+661975155+657791933+657182599+662273887+672286831
1249+684453619+696126549+706089694+714115193+720028501+723601758+724966594
1239+724887504+724707338+725770914+728623648+732860674+737720731+742628480
1230+747282242+751527978+755319822+758767139+762035062+765162856+768123900
1220+770992578+773876287+776805793+779806382+782959954+786370395+790104151
1210+794072017+797445651+797032569+786594601+761635255+727666345+700270016
1200+692449126+703330731+721786612+738199698+749807094+757805200+763673413
1190+768132750+771391612+773508721+774552489+774569347+773754491+772767055
1180+772618356+774053222+777024521+780804635+784576602+787882946+790627580
1170+792826729+794378826+795085723+794948403+794331343+793732265+793487127
1160+793739640+794587860+796184981+798646758+801863687+805525657+809367512
1150+813146292+815647614+813103375+800226038+776334622+750646043+737017486
1140+741383263+757410872+775030263+789224884+800113653+808529196+812440098
1130+806455004+787373284+761989055+744796513+744117501+753683999+761013068
1120+761134021+759170177+761932090+770603447+781357777+790336084+796524101
1111+800806572+804108913+806880238+809343490+811587593+813628912+815557917
1101+817535740+819622575+821694097+823592689+825326215+827035931+828824877
1091+830668471+832379310+833710150+834652001+835526209+836676181+838195897
1081+839925491+841580700+842975810+844146362+845160700+845992905+846682242
1071+847367575+848161429+849167549+850468046+852015155+853712298+855526601
1061+857397518+859211610+860884450+862383164+863801242+865358256+867132382
1051+868971620+870738862+872399972+873985292+875662416+877629281+879920163
1041+882479925+885212056+887956690+890702869+893674309+897093459+900734287
1031+902929362+900174543+888934574+867157668+833712960+790811328+749637815
1021+727228959+731897260+755358103+782645981+805387284+822991714+836686015
1011+847005979+854717645+860945067+866452035+871507711+876179594+880517064
1001+884594505+888488478+892246608+895874933+899341917+902594106+905570883
992+908178830+910241713+911408121+910816067+906758083+897774929+885494632
982+875665577+873998778+880351227+888142546+889349904+879409447+858927208
972+832360486+803704681+772559425+736888947+700615176+675059561+670495848
962+687105396+713560998+732898604+732286953+710566731+675941848+637391734
952+602911054+584118933+592549437+627713976+675026337+718289846+750577699
942+773351804+790245052+802788609+809040685+805956510+794740844+782744598
932+777800534+780396470+781579033+769349801+740569671+708105235+691926820
922+700259831+723156505+745803406+762054097+772961058+779146125+779057271
912+771283232+755518110+732218609+702235616+666618732+626945057+585784819
902+546362604+511489878+482577135+459521262+441566017+428034498+418234802
892+411419611+407295145+406218082+408652781+414475093+422797357+432572328
882+443298912+454851661+466876810+478838708+490446139+501724601+512827216
873+523815164+534608090+545160970+555135283+563188246+567830980+569740739
863+571947755+576841492+584099442+592255974+601009934+610964298+622048826
853+633328060+643977521+653745398+662697505+670940608+678572131+685839528
843+693216289+701008240+709018989+716908433+724619116+732257522+739917351
833+747646156+755258362+762350159+768695514+774383983+779594889+784532561
823+789492429+794765779+800457619+806441237+812574186+818883718+825317084
813+831600909+837700915+843932691+850267651+856090770+860888172+864879288
803+869166677+875405337+884820748+897311274+911571570+925924302+939050220
793+950194382+958793041+963534673+960304398+940279212+893240787+817032329
783+723537628+633735594+568413270+542772138+562582916+619979060+695696118
773+769586721+828349281+862782058+862912985+822950694+752305958+675792025
764+617669142+585748329+570813622+556926793+530261032+484083646+423065674
754+363490997+324445515+315511951+332441408+363448116+398049117+430851690
744+460296959+486411369+509677647+530614867+549672882+567409890+584459844
734+601197124+617032134+627822356+623195637+592303667+538681738+485406725
724+457456904+461154767+485365774+516639956+547248121+573782498+595421627
714+613289528+628781907+642460896+654364283+664494599+673179373+681074155
704+688628905+695931282+702987186+709698422+715890583+721588956+727028283
694+732594885+738805239+746013494+753493297+756661199+745394467+712256568
684+666916128+635058216+635380688+662002057+694819310+720363687+737305401
674+748758900+756809616+762821471+768684205+776381473+785071233+791735478
664+796406308+800675223+805115525+809418296+813367268+817136495+821032014
654+825238556+829604192+833870930+838121653+842564202+847055217+851261900
645+855147796+859165603+863984639+869785141+875967539+882007139+888246220
635+895226195+902646997+909711681+916270355+922995007+930491809+938743270
625+947466255+956465282+965360144+973271854+978562062+977457325+961525664
615+917867476+836943375+724959921+607141478+512477139+453684691+425719277
605+420536818+435163592+466380845+506105338+545103373+578371638+605785843
595+629288971+650525589+670100957+687768393+703279526+717212362+730449821
585+743030816+754402907+764452236+773390928+781319144+788472191+795110798
575+801240235+807036312+813004547+819583521+827029680+835166791+843339935
565+851269837+859190327+867140670+874112286+874065085+853318251+803509624
555+742033687+705678789+715100171+756070619+800267620+832501177+853175172
545+866714663+876502629+885338910+894436976+902853362+907261423+898582761
535+863600847+801972629+740755105+716816840+740622211+789042962+833102433
526+860336647+872593624+873525008+862180662+833257663+781050687+706592051
516+620348102+535977246+465445492+418995222+402433016+413188820+441504663
506+476455741+511984966+546690098+578534525+603547711+618791510+621550192
496+609061703+586064586+570342451+581651502+621455719+671151539+711870107
486+735696831+738587073+715919592+673387705+632603182+613420807+611127747
476+597290718+546170040+460981590+377716244+332920481+331486634+356718898
466+391602265+426967761+460087046+489833294+515303286+537411445+558013759
456+577366572+594842638+610646883+625043375+637687515+648368163+657678284
446+666653220+675702329+684024241+690510428+695384532+700462755+707349100
436+715311593+721812109+726190318+730478409+735849322+741208154+745649088
426+749857105+754827298+761023674+768991366+779212572+789781819+796545102
416+800383727+805799383+814338057+825317295+838015239+850150069+852106046
407+824264536+748133623+627922097+497526101+401944636+376202604+426412688
397+510380786+578677394+623955144+656911191+683676834+704751057+718647720
387+726426606+733348843+743644434+754651909+762396237+767839287+774227418
377+782972668+791689682+796798529
##END=
