##TITLE=X8793
##JCAMP-DX=5.0
##DATA TYPE=LINK
##BLOCKS=1


$$ === CHEMSPECTRA SPECTRUM ORIG ===
##TITLE=X8793
##JCAMP-DX=5.00
##DATA TYPE=INFRARED SPECTRUM
##DATA CLASS=XYDATA
##ORIGIN=ComPlat
##OWNER=
##XUNITS=1/CM
##YUNITS=TRANSMITTANCE
##XFACTOR=1
##YFACTOR=9.2542818e-010
##FIRSTX=3997.453
##LASTX=373.96442
##MAXX=3997.453
##MAXY=0.9936709410487722
##MINX=373.96442
##MINY=0.3941957956666274
##NPOINTS=2559
##XYDATA= (X++(Y..Y))
2559H41864401H42012346H41867235H41510481H41254718H41308112H41651276H42117266
2551H42531536H42812610H42910897H42721731H42240284H41737132H41590669H41897507
2543H42292841H42318990H42013247H41820153H41906331H42026451H42038109H42036820
2535H42077268H42167375H42341597H42519362H42575526H42588858H42671171H42638581
2527H42216904H41556855H41272881H41746084H42548153H42992372H42939300H42633493
2519H42144768H41505007H41047068H41046682H41334455H41607350H41856608H42206470
2511H42554593H42709107H42678514H42628791H42667242H42736867H42718962H42605926
2503H42606442H42968348H43533525H43827482H43716378H43528566H43492369H43386289
2495H42897307H42068316H41286922H40911490H40997346H41383018H41785953H41922819
2487H41765342H41626673H41985745H42956562H43848994H44008209H43606048H43165951
2479H42854732H42612432H42766301H43531335H44159696H43878815H42900269H41929839
2471H41542749H41924236H42690429H42955209H42433443H41889327H42186311H43363167
2463H44575190H45090709H44823739H44110231H43432534H43294830H43903354H44569909
2455H44767898H44822258H45053417H45375970H45351302H44590326H43347838H42550729
2447H42924164H44002220H44583949H44377201H44013555H43989402H44248386H44472589
2439H44442961H44047434H43379591H43031790H43761399H45060244H45289728H44596380
2431H44670320H45979470H47057847H46873705H45742256H44577766H44276789H44749863
2423H44868567H44346865H44139150H44738206H45358194H45686479H46239805H47013534
2415H47421299H47302725H47018816H46891289H47008961H47362624H47764527H47763948
2407H47161736H46471158H46461046H47226273H48114969H48588237H48550172H48238696
2399H48062220H48137254H48117546H47845874H47474049H46933025H46164706H45694659
2391H46244700H47573945H48498775H48418523H47716093H47285850H47887675H48689743
2383H48081735H46351295H45218558H45950744H47389031H47764978H46957178H45576471
2375H44517545H44844156H46557850H48173902H48679502H48325260H47756090H47399143
2367H47292226H47280246H47508507H48338400H49638725H50639362H50594341H49375749
2359H47580064H46276775H46314067H47381238H48571104H49520022H50129318H50385017
2351H50568321H51039141H51677614H52045961H52036235H51868711H51624348H51048351
2343H50040822H49252859H49436936H50024720H50177173H50114569H50358545H50936797
2335H51271459H50695977H49305416H48339108H48729225H49292856H49011137H48623081
2327H49341098H51052409H52772608H53952813H54426081H54186742H53355883H52310612
2319H51753164H51978977H52038103H50936475H48986727H47485385H47867708H49967333
2311H52011760H53091555H53378877H53294181H53112487H52866063H52471567H51936210
2303H51395057H50936861H50561172H50577145H51738672H53763455H54882022H54557279
2295H53509624H52420169H51747882H51803853H52367548H52700407H52460875H51989797
2287H51810873H52050083H52385518H52482194H52266879H51820985H51240479H50703255
2279H50403244H50348691H50505201H51039978H51987157H52836758H53002092H52523350
2271H51936597H51815382H52248394H52650298H52673098H52608497H52777567H53088205
2263H53268547H53353436H53624850H54100887H54316137H53711671H52240021H50686895
2255H50224320H50957729H51848680H52401749H52854921H53391952H53832564H53910820
2247H53675861H53544340H53825029H54222875H54178240H53634640H53096192H53088012
2239H53564886H53906504H53658213H53098382H52920359H53350216H53812147H53690546
2231H53107012H52637352H52606951H52854470H53068883H53224299H53506855H53904186
2223H54199752H54350531H54500021H54637789H54576408H54263774H53853175H53513875
2215H53358395H53418294H53568622H53631033H53530042H53266679H52955976H52922935
2207H53404898H54157952H54670765H54751404H54623941H54517218H54466400H54436322
2199H54440766H54550452H54799001H55116402H55418796H55650084H55659294H55286824
2191H54728475H54504916H54820642H55223963H55212369H54883246H54656531H54640687
2183H54688864H54832493H55156979H55487454H55690016H55957952H56315350H56298153
2175H55613178H54648996H53935681H53585690H53529848H53778140H54187644H54414681
2167H54329405H54242390H54578856H55345886H56009156H56019461H55469871H55030740
2159H55150023H55563906H55767177H55678294H55552957H55505617H55459888H55388009
2151H55313232H55282960H55463108H55928453H56365975H56429674H56301245H56421236
2143H56848774H57270000H57401392H57117225H56479203H55769302H55279224H55137270
2135H55435413H56205599H57115679H57543089H57195609H56448545H55884527H55703155
2127H55759770H55964006H56336669H56750037H56957172H56916273H56869707H57086116
2119H57594228H58106720H58197792H57689423H56875117H56272777H56177904H56501875
2111H56918785H57080642H56850256H56484291H56465871H56989376H57715121H58159598
2103H58186456H58002637H57848960H57798980H57784939H57759885H57761624H57775600
2095H57717891H57644917H57721884H57867188H57753315H57282688H56792095H56686531
2087H57042834H57612649H58123723H58499091H58764064H58888113H58868727H58856425
2079H59015705H59325892H59604326H59685995H59579916H59482467H59572831H59792847
2071H59877479H59613214H59053834H58482732H58116252H57887734H57637703H57431534
2063H57484284H57852760H58387859H58914134H59308438H59467266H59354682H59111994
2055H59015190H59242033H59730114H60297868H60788203H61085702H61167757H61168659
2047H61200798H61124797H60730107H60113855H59646062H59521949H59578563H59652954
2039H59891713H60498111H61329871H61995846H62297660H62390279H62507951H62672964
2031H62748772H62730802H62817430H63089939H63286511H63098956H62580281H62110492
2023H62025667H62339461H62773247H63049169H63120919H63083949H63002731H62968853
2015H63154153H63572932H63916611H63840481H63371787H62889051H62723395H62891563
2007H63200012H63490039H63750310H64038213H64360959H64670631H64923689H65065772
1999H65044840H64944364H64977083H65206889H65427099H65431414H65239157H65008320
1991H64897153H65003297H65260025H65480622H65646278H65972374H66513076H66914078
1983H66791704H66208943H65589857H65295192H65400563H65722988H65934760H65821853
1975H65530602H65386329H65458852H65501554H65297382H64873000H64416350H64126515
1967H64100881H64279355H64539240H64855223H65291521H65804656H66135519H66067762
1959H65784948H65718865H65958913H66096230H65766463H65080908H64420665H64066681
1951H64092186H64405916H64816450H65121356H65182221H65013409H64836223H64876285
1943H65040846H65044195H64890905H64881824H65088572H65211462H65065450H64878925
1935H64967937H65342467H65754032H65985384H66001293H65882976H65696838H65448225
1927H65116139H64721062H64408943H64420472H64781283H65058172H64726086H63754883
1919H62455524H60784081H58267288H54743288H50904271H47942357H46659872H46915828
1911H47934306H49103498H50291304H51491282H52591751H53537964H54363670H55035377
1903H55531638H56022424H56668690H57276248H57444545H57111042H56667660H56454857
1895H56395087H56237481H55930836H55634561H55563069H55850198H56374154H56779021
1887H56846842H56737671H56772387H57130558H57760013H58396361H58706935H58562919
1879H58133449H57695735H57436623H57340011H57134937H56512373H55547804H54768085
1871H54636114H55077178H55635463H55994922H56211461H56459559H56708237H56766397
1863H56603574H56483454H56706691H57275217H57871761H58161982H58055516H57690646
1855H57290546H57040322H56905131H56570404H55835771H55063845H54856324H55248438
1847H55596110H55350846H54669348H54154087H54200783H54727187H55384402H55833710
1839H55853676H55408426H54687833H53963763H53414494H53155125H53255150H53586205
1831H53868375H54002536H54152413H54453840H54876548H55369588H55886331H56283275
1823H56421236H56387809H56446291H56708172H56964128H56917433H56527380H56035177
1815H55665735H55385497H54915192H53880419H52001262H49301809H46132180H42866004
1807H39665589H36758099H34767517H34349060H35475807H37392579H39334791H41078692
1799H42795092H44626458H46491188H48181760H49585525H50789947H51940461H53059544
1791H54098182H55083490H56104673H57194579H58272956H59142588H59590865H59635564
1783H59600204H59792654H60206731H60637103H60915022H60956822H60773711H60513633
1775H60374642H60445941H60671303H60926744H61130143H61284722H61370255H61251294
1767H60837475H60288979H59902083H59797871H59830139H59789369H59597563H59273207
1759H58816299H58256983H57768451H57588109H57784617H58177890H58551519H58911429
1751H59425724H60098140H60721799H61218961H61744785H62373404H62957001H63334688
1743H63447208H63334495H63237046H63545559H64436960H65652204H66731032H67422190
1735H67832016H68198817H68604972H68984333H69310751H69620229H69923203H70211942
1727H70447932H70511116H70339663H70106829H70056462H70210590H70441749H70755607
1719H71258567H71879907H72349439H72470268H72292631H72043567H71957840H72101985
1711H72332371H72496417H72596829H72645778H72557475H72343384H72184491H72179081
1703H72244454H72312018H72391561H72443087H72372626H72182301H72043180H72178565
1695H72627036H73156338H73507617H73657043H73739162H73841055H74005424H74306143
1687H74757705H75220860H75523576H75654774H75755894H75930182H76118896H76155093
1679H75896432H75332994H74619744H73981850H73540980H73239617H72937481H72549230
1671H72088201H71654094H71396850H71426220H71708647H72099666H72519024H73024366
1663H73645707H74232396H74592048H74758156H74982681H75439524H76041220H76573807
1655H76890693H76945504H76782230H76568139H76528528H76767932H77188385H77605617
1647H77906788H78075729H78125323H78117272H78218843H78582102H79148116H79722890
1639H80234866H80740466H81212832H81502280H81509042H81290958H81003765H80772863
1631H80648170H80672452H80876044H81122597H81137410H80839139H80477232H80317115
1623H80342234H80346807H80193323H79949540H79840498H80020582H80345905H80493914
1615H80368576H80256765H80469632H80939743H81338620H81533904H81708577H82001310
1607H82259134H82280195H82151637H82176499H82492676H82933739H83317094H83694522
1599H84182732H84732967H85226973H85587012H85664945H85332795H84812124H84565378
1591H84711455H84872474H84695804H84254096H83845043H83618908H83509995H83410227
1583H83283537H83139329H83015730H83010578H83231882H83660451H84104091H84320500
1575H84223953H84004903H83994533H84333511H84821334H85153033H85243848H85269933
1567H85467922H85916071H86441186H86739329H86657016H86340775H86060022H85936681
1559H85912078H85929274H86049845H86389467H86987427H87737841H88428291
1552H88834832H88806492H88351581H87753814H87525682H88023167H89041580
1545H89985345H90512264H90758366H90877391H90764871H90462284H90380035
1538H90743617H91127357H90941026H90213735H89542672H89371025H89622795
1531H90011624H90411338H90810021H91099984H91100371H90797590H90440063
1524H90311763H90464216H90754437H91019797H91110676H90970976H90853625
1517H91177531H91987586H92797898H93068475H92631533H91737104H90931043
1510H90750057H91272919H92051993H92581489H92770203H92947839H93462585
1503H94251321H94908923H95287511H95738043H96505717H97218774H97348362
1496H96911872H96356614H95973646H95718269H95414910H94914849H94198185
1489H93459236H92996789H92921239H92984938H92801698H92322570H91959568
1482H92068224H92503942H92953507H93440815H94134099H94858363H95217951
1475H95119343H94842648H94646076H94620377H94890309H95538637H96273077
1468H96616692H96534958H96437896H96502239H96437703H95979185H95229351
1461H94489178H94041159H94081027H94609750H95330922H95840902H96006107
1454H96009714H96014029H96024785H96091383H96299935H96532575H96592410
1447H96598529H96914963H97624220H98334379H98648431H98659058H98754703
1440H99008534H99081572H98739374H98132912H97495405H96855258H96172987
1433H95568071H95243907H95222459H95309732H95383221H95541728H95843542
1426H96120366H96268118H96510033H97104708H97918306H98526958H98674258
1419H98465577H98171750H97987737H97919594H97801213H97545128H97416635
1412H97723537H98171685H98112946H97564772H97293036H97774548H98777246
1405H99938838I01109060I02135911I02705661I02550632I01914349I01515408
1398I01654206I01822053I01572151I01110799I00920925I01281029I02083097
1391I02914664I03282818I02841304I01675139I00435485H99924990I00441411
1384I01594565I02704888I03304781I03390185I03315151I03433467I03820944
1377I04341100I04849856I05210667I05259295I05039150I04926952I05203389
1370I05581398I05513641I04988010I04618310I04863768I05499922I05930874
1363I05772495I05134344I04488980I04227163I04309862I04452590I04491234
1356I04392433I04194444I04131453I04466051I05060598I05485108I05608191
1349I05730695I06118558I06688952I07181992I07440460I07481616I07442650
1342I07508152I07735640I07909927I07820851I07716511I08144049I09267962
1335I10567837I11188276I10549159I08925442I07467576I07243373I08249291
1328I09691507I10966843I11825847I11900689I10912289I09323675I08119059
1321I07787424I08000356I08367093I09031071I10267633I11785915I12825132
1314I12954656I12509985I12099837I11972117I12115295I12681052I13836139
1307I15291172I16414183I16877532I16846294I16530181I16073209I15843982
1300I16097426I16325429I15868135I15161777I15243510I16027093I16422234
1293I16220316I16378952I17255861I17972784I17828188I17155837I16602125
1286I16604057I17498228I19089483I20249078I19933867I18468400I17090592
1279I16526768I16664729I17265588I18213604I19246960I20149826I21058747
1272I21974752I22375175I22085791I21974688I23094157I25585895I28696205
1265I31241015I32102660I31041609I29024104I27232412I25845651I24313007
1258I22508112I21105442I20971925I22283200I24350621I26179541I27013942
1251I26723141I25958816I25574689I25732036I25871865I25581129I25156876
1244I25075400I25149920I24751881I23811272I22954715I22675701I23013390
1237I23953741I25424490I26859750I27400130I26719470I25372513I24174466
1230I23431718I23082564I23347794I24439117I25662412I25872509I25008288
1223I24167768I24052350I24294715I24384886I24408524I24728372I25442717
1216I26270935I26785681I26751738I26336566I26061159I26451276I27496741
1209I28450232I28479215I27621499I26780593I26683595I27222107I27921123
1202I28605004I29372292I30203279I30811545I30808582I30004388I28689571
1195I27716693I28048650I29783792I31719628I32449367I31904929I31217055
1188I31157607I31573165I32175828I32886115I33496893I33854484I34208597
1181I34786076I35549951I36726807I38563198I40263881I40387222I38721576
1174I36863093I36507241I37788309I39686918I41383608I42543912I42951161
1167I42565424I41512745I39836279I37979149I37252566I38422724I40006251
1160I39758346I37873070I36707485I37639656I39843171I41747704I42472806
1153I41864153I40250356I38532668I37773689I38314777I39704437I41593835
1146I44013114I46514127I47899471I47370620I45479354I43359248I41666808
1139I40623984I40241918I40257569I40379493I40608076I41133642I42174663
1132I43799345I45397235I45807962I44615390I42759226I41427921I41027305
1125I41379357I42193534I43096851I43640259I43606960I43282539I43156300
1118I43333356I43574370I43783437I43964422I43905038I43463975I42955090
1111I42811590I43193978I44004162I44780403I44843136I44148370I43508287
1104I43634655I44240216I44365553I43617136I42718907I42578627I43126930
1097I43571085I43626540I43860211I44724368I45804355I46411075I46415197
1090I46224422I46159177I46142173I45908245I45169811I43529349I40324231
1083I34963326I27913974I21224532I17423902I17529659I20458596I24480854
1076I28631990I32635891I36172966I38822438I40503027I41559763I42519308
1069I43788718I45378428I46827213I47556565I47484944I47155241I47194465
1062I47694204I48156007I48130695I47781863I47623356I47927553I48504195
1055I48979008I49256089I49510757I49811412I49969791I49835694I49572975
1048I49453563I49604664I50021510I50550168I50927339I51028910I50954583
1041I50876457I50990974I51419542I51937251I52274682I52569734I53055883
1034I53719346I54371988I54837784I55007305I54913012I54791797I54887571
1027I55182108I55546075I55897354I56119947I56127998I56031773I56057923
1020I56286248I56601072I56950613I57411771I57933538I58249135I58198897
1013I57955951I57782502I57767237I57871191I58121350I58604343I59240304
1006I59789122I60121207I60297040I60498958I60932035I61559044I62088925
999I62362722I62448771I62488575I62569406I62694744I62801596I62719540
992I62218707I61229663I59925150I58479263I56651310I53887707I50263618
985I46835650I44899106I44927381I46541179I49110721I51738167I53570306
978I54478454I54799784I54809703I54610103I54267133I53869802I53486705
971I53116361I52595690I51587260I49848897I47505425I44966219I42668347
964I40864289I39732454I39932955I42344441I46046786I49263883I51891328
957I54144951I55769763I56690212I57102808I57072858I56582136I55851561
950I55657307I57225569I60549325I64161048I67220218I69667515I71608374
943I73200596I74612540I75802600I76580902I76967992I77136224I77219632
936I77385482I77858299I78688771I79561945I80201320I80789877I81640895
929I82639084I83254950I83164651I82682238I82639600I83292822I84332039
922I85547218I86947183I88738874I90850672I92677852I93869651I94730459
915I95733930I96758720I97291629I97203004I96969140I97181428I97597566
908I97515768I96680079I95355342I94697998I97137631A001828310A005209389
901A007473125A010146235A013702245A016906846A018771319A019141148A017956820
894A015181882A010687001A004051855I94879305I82690546I65481598I39370869
887I01695685H57994908H22154375H05608826H10802722H29253321H48492849
880H64403017H80006734H97249754I12932757I24761929I33752977I40072333
873I41460060I34567927I17184241H89535007H55003238H20150203G91827201
866G73198322G63954151G63393869G71340419G86837283H07710833H31315396
859H54917575H76248742H94417106I09909978I23837872I37031584I49251388
852I59678727I68070141I74324251I77542121I77802457I76721633I75743409
845I75565966I75272396I72875852I67419237I59271735I48734838I33890423
838I12022419H93430188H94291769I08464670I27236985I44610946I54897619
831I55088008I46463889I32955482I17494299I00589419H77458124H30580312
824G50031731F75080754F32791470F11940785F01776938F00131000F06457248
817F18379617F34124515F52137271F69586138F85555690G04330324G29767155
810G56912270G80476320H03289893H27567258H50831233H71431050H89437687
803I04237146I15767208I23975189I21874470I02397535H65427743H11375177
796G45390967F82267101F40823554F28488589F35065382F48719029F66053121
789F87602501G11138856G31818410G48211378G61871852G74364035G86275649
782G96999456H05904843H13523365H20883162H28753324H37806527H47329647
775H54725254H58765932H59747054H57567499H52135552H45038732H38272258
768H32386946H27715975H25631873H25522766H22501597H13929842H00701672
761G85566070G72022624G61978382G54066676G44411069G28375564G02822026
754F67957720F24985006E75546282E31337007E10660029E13466528E28387169
747E49817168E75581384F01597111F24180684F42721518F58219735F72279987
740F87946502G08619873G32518714G53156854G68827684G81646929G92543478
733H01178482H06967827H08701294H04636270G95098014G85352430G82295643
726G88605273H02266262H18496601H32847074H43274671H48893400H49945757
719H48425801H46636556H45887560H45891811H45413455H44283488H43803329
712H45673083H51030059H59762318H70897047H83604416H96742415I08081380
705I16027093I20823917I23386375I24778352I26174324I27734921I27863929
698I24709501I17423773I03803618H78925588H39060221G87106250G31376444
691F78385767F30835797E92341862E69205737E65655909E79137073F01839928
684F26216803F48064518F66361054F82480676F98674109G16078793G34087491
677G51148624G65862098G77658679G86987096G94909493H02271157H09274264
670H15734351H21315981H25557031H28302149H30211385H31973578H32225025
663H26689446H11518677G88931498G68406007G60147337G66837423G83021131
656H01505415H18233496H32187862H43497521H52544605H59914900H66352572
649H72553418H78953154H85603887H92121360H97746981I01297968I00513675
642H91963626H74039366H51367362H33822270H28560488H34082348H43603536
635H52573588H61174069H70998811H81874298H92062234H99789283I03615097
628I02079232H94657991H83825656H74827523H71632260H72528234H69798445
621H54895677H25965311G90921951G62242131G48181815G48478090G56213641
614G61998992G58689921G46292739G32983029G28766003G37063510G53338548
607G70950044G86194044G98346607H07739301H15024063H21200949H27187575
600H33111274H38222471H41640842H42982775H42121066H38937396H33977299
593H28924262H25579767H24432473H24770356H26050200H28579037H32829555
586H38613683H45166515H51763727H58079411H64149960H70120548H75939714
579H81301199H85891531H89577903H92381761H94457490H96067166H97422818
572H98558324H99372373H99764229H99764229H99582728H99543826H99859101
565I00201621H99380874H95106783H83159617H57654836H16640953G70372436
558G39674982G40058272G68055436H06150558H38805103H60948836H74737932
551H83743666H90431304H95937384I00567456I04434620I07711165I10547549
544I13027436I15164739I16968475I18473167I19271692I17896911I12422648
537I02491828H90623496H80952625H76570007H78044620H83812646H91332753
530H98315508I03699149I07675161I10818319I13384770I15211177I15882176
523I15166478I13644977I12760273I13881932I17216960I21746041I26237830
516I30124702I33402986I36175155I38528739I40494267I41977382I42958375
509I43649211I44252968I44776087I45160086I45335146I45092780I44185984
502I42794071I41852109I42554732I45313505I49427800I53812930I57712941
495I60845214I63327613I65532609I67812768I69628162I67938878I58013596
488I39533885I21608080I16797280I28621234I48333643I64030944I67981451
481I53883006I12583152H36110609G27427161F05695563E00450710D37366100
474D25960441D58158786E16521028E83811006F47904594G00948408G34371400
467G36016693F97888594F30540939E64620557E30292895E34426513E60759512
460E89677576F13423578F34750558F57823177F83124753G08374480G31176201
453G50273066G65498646G77497467G87359500G96015436H03882830H11088048
446H17759262H23994502H29772447H35047497H39841357H44202012H48205140
439H52059680H56029123H60133242H64128254H67894684H71569720H75206562
432H78644448H81789860H84700183H87396996H89851184H92040722H93907062
425H95465019H96946394H98597227I00474387I02601836I05036187I07659446
418I10189507I12448991I14437835I16222635I17896074I19568483I21330418
411I23112256I24323055I23810821I20981780I17242272I15446458I17202597
404I21349998I25629177I28978954I31563311I33588351I35001133I35812347
397I36184495I36357558I36444959I36307062I35910054I35613843I35832958
390I36698468I38122392I39962582I42194758I44871282I47763958I49413437
383I44028572I19553218H67319717H00179068G52386796G50142448G86473509
376H32731076H67920319H89243176I02218675I11349488I18666905I24769400
369I29676553I33448072I36224105I38151890I39427290I40213515I40765359
362I41542566I42787759I44233517I45378106I45731703I44851895I42044559
355I35412118I21215837H94836658H53409728G99875386G46284237G10985437
348G08209854G38336270G88265330H40614893H82325667I06103164I06281509
341H76070075H11692256G21302896F29266633E67741042E58593483E99543087
334F67029090G33822003G85725736H23887778H54956156H82185902I04908467
327I22239017I34850226I44173876I51237075I56206576I58662052I58273610
320I55231637I49989113I42680907I32374976I14577213H77538698H05969637
313F98686089E84784914E12059350E11221696E73431973F62284695G39082690
306G77051637G68341857G30069678F96488307F93532319G20920251G60969372
299G98566365H28724921H51872189H69465136H83150858H94363197I03960515
292I12373956I19777099I26291030I32106783I37252502I41533034I44804942
285I47092959I48578199I49449441I49540836I48617552I47389814I47571186
278I50559765I56477603I64465503I73544919I83169546I93039888A002679844
271A011420604A018197512A020852846A015532066I95545731I50771022H73276587
264G69422810F65060471E92159460E67133485E83132600F21198095F64742426
257G04797408G38024923G64161608G84451624H00262154H12475775H21736692
250H28755579H34451984H39790475H45356004H51312615H57619347H64125098
243H70941423H78558657H87087259H95969395I04560988I12409316I19324056
236I23325252I15814355H86049008H40493420H07890273H08579821H27786695
229H37367911H32434994H24123381H10239413G81820186G50631688G43252634
222G68304951H08008783H41751945H63777297H78622807H90618408I00673020
215I08434656I14207835I18826120I22832855I26378431I29518304I32178855
208I33993733I34708271I34262764I30462198I14256592H71227393H00487710
201G32338952G09907704G45679063H09312072H62594515H92683124I08307065
194I19500984I29735100I38909775I46166133I51150576I54448311I56786438
187I58490020I59757626I60768762I61692110I62779053I64185716I65903403
180I67948281I70234302I72423131I74354587I76348390I78732053I81211103
173I82815626I82578734I79776422I72145856I54785421I25029091H90261719
166H66512947H65082776H82467235I05836001I25513501I39287333I48382980
159I54282977I58329194I60953225I60763287I53782143I32444536H90010851
152H33011829G87251102G80941537H16699113H68959729I11273616I36464732
145I50675956I59387282I63825999I64612739I63905607I64321101I66730011
138I69581788I71191786I71897307I73068560I75231240I77824162I80077271
131I81806873I83452746I85377697I87380260I88999210I90044804I90764237
124I91510399I92243423I92544722I91765776I88282224I79054864I61949032
117I39765881I20743149I12861715I17216123I27401032I33608897I26482385
110I02300086H70621833H53025150H62723331H89938135I16210977I30878014
103I30463615I14571674H89809384H70821432H69986645H87713237I13913299
96I37757522I54443867I64343515I69937125I73964535I77840136I81133169
89I83286188I84812842I86506119I88571672I90591431I91950304I92594380
82I93285860I94690076I96634542I98570636A000317371A001877775A002755394
75A002114087I99933631I97560080I96436296I96552680I96710801I96359844
68I96307158I97445048I99714967A002547099A005736050A008989860A011298359
61A012321088A013768714A016902339A020117632A021995501A023346130A024833689
54A025417351A024442090A023000454A022201026A021759705A021010773A019421128
47A013471344I92474582I43571793H71820716H09911578G92707074H26447080
40H86495933I42643615I81272032A002990224A012648600A015804446A015745642
33A011345119A003336351I97681424I95399397I92838163I89195847I88807662
26I95940743A009374760A023818753A034749889A040632496A042161469A041356760
19A041216609A044605031A050806907A055836950A058530993A060183822A059410994
12A050821849A029201943I94759636I57577621I37454291I46044789I73787736
5A005021770A032001100A054164026A069359012A073741823
##END=


$$ === CHEMSPECTRA PEAK TABLE EDIT ===
##TITLE=X8793
##JCAMP-DX=5.00
##DATA TYPE=INFRAREDPEAKTABLE
##DATA CLASS=PEAKTABLE
##$CSTHRESHOLD=0.93
##MAXX=3997.453
##MAXY=0.9936709410487722
##MINX=373.96442
##MINY=0.3941957956666274
##$CSSOLVENTNAME=- - -
##$CSSOLVENTVALUE=0
##$CSSOLVENTX=0
##NPOINTS=49
##PEAKTABLE= (XY..XY)
383.88014324475216, 0.8675466183533204
412.21078108681604, 0.9154297123527685
432.0422275762312, 0.7335934647649454
471.7051205551502, 0.9223842625557722
514.201077318246, 0.8058826929207538
525.5333324550716, 0.789413512058727
535.4490556997939, 0.8447879555041288
585.0276719233775, 0.7227053052723127
607.6921821970568, 0.8018954994886465
655.8542665285377, 0.6569685944806988
688.4345000469116, 0.6878269323628261
701.1832870758403, 0.7476444249820932
742.2627119468334, 0.5248413088406073
767.7602860047177, 0.8769090780804215
800.3405195230648, 0.6418143517433494
811.6727746598904, 0.4730989637057933
848.5026038545734, 0.516938150332551
865.5009865598122, 0.6553973562452857
907.9969433229085, 0.6942029603933847
946.2433044097202, 0.8488051300329835
1028.4021541516809, 0.4907479886867811
1043.984004964816, 0.3941957956666274
1060.9823876700789, 0.8484300382593505
1082.2303660516268, 0.8716164830610317
1109.1444720015875, 0.8457320930656438
1128.9759184910322, 0.8112025862205973
1162.9726839014852, 0.6845160723837928
1209.718236340891, 0.7629530430212892
1236.6323422908522, 0.6744205958021645
1246.5480655355746, 0.6923885353645467
1276.2952352697416, 0.7667732244297518
1306.0424050039092, 0.7034617666117567
1345.705297982799, 0.5234739183721157
1383.951659069607, 0.7813237317038919
1402.3665736669273, 0.7239584331234198
1434.9468071853007, 0.4725791812362172
1495.8576785457385, 0.581621051069038
1532.687507740422, 0.5553781390915801
1556.7685499061968, 0.8276028041746505
1596.4314428850662, 0.7064661988118285
1624.7620807271305, 0.7455331096371167
1718.2531856059609, 0.8843922023207113
1736.6681002033024, 0.8696548945921537
1766.4152699374695, 0.8744362599492072
1902.402331579376, 0.8490099319163584
2735.323084136054, 0.8064423807788796
2859.977890641135, 0.7936362029015116
2927.97142146208, 0.7721301320805108
3082.3733977013367, 0.783522904423993
##END=


$$ === CHEMSPECTRA PEAK TABLE AUTO ===
##TITLE=X8793
##JCAMP-DX=5.00
##DATA TYPE=INFRAREDPEAKTABLE
##DATA CLASS=PEAKTABLE
##$CSTHRESHOLD=0.93
##MAXX=3997.453
##MAXY=0.9936709410487722
##MINX=373.96442
##MINY=0.3941957956666274
##NPOINTS=229
##PEAKTABLE= (XY..XY)
3991.786872431587, 0.7785208225951533
3977.6215535105553, 0.7788317211176524
3970.5388940500393, 0.7790440920781115
3964.872766481626, 0.7792446018255876
3949.290915668491, 0.7785376311471867
3936.542128639562, 0.7783283002182988
3925.2098735027366, 0.7797924284707304
3919.543745934324, 0.7797712685553947
3902.545363229085, 0.7782031897317883
3894.046171876466, 0.7788650402338452
3882.7139167396404, 0.7797772893911338
3872.798193494918, 0.7787873745992668
3865.715534034402, 0.7791081076470349
3854.383278897576, 0.7804087997303094
3840.217959976544, 0.7797201876961433
3831.718768623925, 0.7810515762321484
3823.2195772713058, 0.7801653751018423
3817.553449702893, 0.7816132907779885
3807.6377264581706, 0.781317532260514
3801.9715988897574, 0.7811901572512471
3789.2228118608286, 0.7837370642371241
3779.3070886161063, 0.7833389052406763
3770.807897263487, 0.7848206767813596
3760.8921740187648, 0.7826296691140906
3752.392982666145, 0.784102202105253
3745.310323205629, 0.7821890718321645
3736.81113185301, 0.7815403346474181
3724.0623448240813, 0.7840970160057323
3712.7300896872557, 0.7831683756645196
3690.065579413604, 0.7859225276641667
3684.3994518451914, 0.7867199783811545
3675.900260492572, 0.7850769167392635
3670.2341329241594, 0.7853397133558226
3657.4853458952307, 0.7882363803697615
3650.4026864347147, 0.7842868574171493
3631.9877718373727, 0.787133277382627
3620.655516700547, 0.7882314922581148
3612.156325347928, 0.7882897859046012
3599.4075383189993, 0.7869366414775124
3588.0752831821737, 0.7882939586602647
3582.4091556137605, 0.7890279296312455
3566.8273048006254, 0.7868215450493377
3554.0785177716966, 0.7898939851155012
3545.5793264190775, 0.7894716863249782
3538.4966669585615, 0.7893165355143167
3529.997475605942, 0.7890264989192792
3510.166029116497, 0.7897219063725711
3500.250305871775, 0.7893189194173084
3488.9180507349492, 0.790719450394354
3474.7527318139173, 0.7907829292149329
3466.2535404612977, 0.7909085755243597
3447.838625863956, 0.7898805738103166
3440.75596640344, 0.7905399802565503
3432.256775050821, 0.7912695415622533
3418.0914561297886, 0.7915029530578128
3411.0087966692727, 0.7924453026920841
3398.260009640344, 0.7913681274262686
3386.9277545035184, 0.791891813351908
3377.012031258796, 0.7929713734461433
3365.6797761219705, 0.7923311594549347
3357.180584769351, 0.7925976522316448
3344.431797740422, 0.7937951692525593
3338.7656701720093, 0.7936887746255611
3330.26647881939, 0.7928018572138437
3318.934223682564, 0.7948099382690565
3310.435032329945, 0.7953892951777201
3296.269713408913, 0.7934913039842282
3283.5209263799843, 0.7949568638740543
3265.106011782643, 0.7954258329331229
3248.107629077404, 0.7983953959248004
3238.1919058326816, 0.7977428441250961
3228.2761825879593, 0.7986156950284776
3218.360459343237, 0.7983885412782711
3202.7786085301013, 0.8004438885777776
3192.862885285379, 0.8004001981879716
3177.281034472244, 0.8007685546953106
3168.7818431196247, 0.8008528954433513
3158.8661198749023, 0.7996633056402266
3146.1173328459736, 0.8011606336286158
3137.618141493354, 0.7996316559964706
3127.7024182486316, 0.8003438118489642
3120.6197587881156, 0.8003860122994003
3114.953631219703, 0.8003833294831065
3099.3717804065673, 0.7999483948962137
3082.373397701329, 0.783522904423993
3051.2096960750587, 0.7917621738198845
3044.1270366145427, 0.7928491836109688
3022.8790582329943, 0.7909043435412926
3010.1302712040656, 0.7926139240353337
2991.715356606724, 0.7911081320808103
2984.6326971462076, 0.7904582621719717
2970.4673782251757, 0.7895337945864226
2953.4689955199374, 0.7925254114570577
2927.97142146208, 0.7721301320805108
2898.2242517279124, 0.7954982523153488
2886.8919965910864, 0.7962149390642116
2871.310145777951, 0.7956811789274049
2859.9778906411257, 0.7936362029015116
2838.7299122595778, 0.7988638883883563
2813.2323382017203, 0.8051747681258992
2799.067019280688, 0.8069343569079312
2786.318232251759, 0.8071390995639026
2776.4025090070363, 0.8070133329488124
2736.739616028147, 0.806415200953233
2711.2420419702894, 0.811164200385119
2701.326318725567, 0.812634468853525
2682.911404128225, 0.8149766331834306
2672.9956808835027, 0.8146702655573007
2665.9130214229863, 0.8142291907544337
2658.8303619624703, 0.8146144159666378
2646.0815749335416, 0.8163679839129306
2627.6666603362, 0.8186017278535521
2610.6682776309617, 0.8171628721192881
2600.7525543862394, 0.8180734518041399
2580.921107896794, 0.8198480019835581
2565.339257083659, 0.8213412765965188
2552.59047005473, 0.8239827752983864
2544.0912787021107, 0.8230490090104845
2531.342491673182, 0.8239195944656814
2522.843300320563, 0.8244210488301525
2511.511045183737, 0.8243252040844063
2478.9308116653638, 0.8263344770911151
2473.2646840969505, 0.8254445196478263
2457.6828332838154, 0.8279069072780239
2449.183641931196, 0.8295888905783093
2440.6844505785766, 0.8273708826184607
2399.605025707584, 0.8284640909274946
2374.1074516497265, 0.8304946432297743
2367.02479218921, 0.8303802612321545
2354.2760051602813, 0.8342877632673975
2347.1933456997654, 0.8337376119466665
2335.8610905629394, 0.8328159456322183
2327.36189921032, 0.8359532961563552
2316.0296440734946, 0.8374449022223074
2308.9469846129787, 0.8371592762179758
2299.0312613682563, 0.8367972977616533
2290.532070015637, 0.8367087250305456
2274.950219202502, 0.839773000043877
2267.867559741986, 0.8400264387306801
2256.53530460516, 0.8395885834924511
2243.7865175762313, 0.8400920636192084
2229.621198655199, 0.8439646964460571
2215.455879734167, 0.8475478294262128
2209.789752165754, 0.8469164976946759
2204.1236245973414, 0.847896099514905
2195.6244332447222, 0.8482494363228825
2184.2921781078967, 0.8481796988315222
2170.1268591868647, 0.8532213575219079
2151.7119445895232, 0.8522933723838465
2141.7962213448004, 0.856552899895336
2134.7135618842844, 0.8560908437847721
2127.6309024237685, 0.8538700947066542
2113.465583502736, 0.8542466171922536
2103.5498602580137, 0.855144084485223
2089.384541336982, 0.8570030929420607
2079.4688180922594, 0.8575791127567072
2065.3034991712275, 0.8585351707586087
2055.387775926505, 0.8617194895391653
2034.1397975449568, 0.8666701915954514
2019.9744786239248, 0.8673599363537099
2012.8918191634086, 0.8668555030359273
2001.559564026583, 0.867842198263156
1984.5611813213445, 0.8701263669344492
1967.5627986161062, 0.8708531861964549
1957.6470753713836, 0.872823418164534
1946.3148202345583, 0.8725044138166063
1937.8156288819387, 0.8731491568533277
1929.3164375293195, 0.8722888232915089
1902.4023315793588, 0.8490099319163584
1879.7378213057073, 0.8765241508560914
1871.238629953088, 0.8769573576685721
1857.0733110320562, 0.8786510828016054
1847.1575877873338, 0.8799678690063583
1830.159205082095, 0.8835912349766395
1820.2434818373727, 0.8847387437095632
1804.6616310242375, 0.8863447910005386
1766.4152699374508, 0.8744362599492072
1736.6681002032838, 0.8696548945921537
1718.2531856059418, 0.8843922023207113
1682.839888303362, 0.909362376623928
1663.0084418139168, 0.9226233367463652
1654.5092504612976, 0.9205215579387837
1624.7620807271305, 0.7455331096371167
1596.4314428850662, 0.7064661988118285
1558.1850817982795, 0.8268054728378978
1532.687507740422, 0.5553781390915801
1495.8576785457385, 0.581621051069038
1434.9468071853007, 0.4725791812362172
1402.3665736669273, 0.7239584331234198
1388.2012547458949, 0.7828081851354408
1382.535127177482, 0.7808793790344113
1345.705297982799, 0.5234739183721157
1306.0424050039092, 0.7034617666117567
1276.2952352697416, 0.7667732244297518
1256.463788780297, 0.8066330560010868
1246.5480655355746, 0.6923885353645467
1236.6323422908522, 0.6744205958021645
1209.718236340891, 0.7629530430212892
1175.721470930414, 0.8324632057254168
1162.9726839014852, 0.6845160723837928
1128.9759184910085, 0.8112025862205973
1110.5610038936666, 0.8446940782186931
1082.2303660516027, 0.8716164830610317
1060.9823876700543, 0.8484300382593505
1043.984004964816, 0.3941957956666274
1028.4021541516809, 0.4907479886867811
947.6598363017979, 0.8471799495143865
927.8283898123532, 0.8658434159102958
907.9969433229085, 0.6942029603933847
865.5009865598122, 0.6553973562452857
848.5026038545734, 0.516938150332551
811.6727746598904, 0.4730989637057933
800.3405195230648, 0.6418143517433494
769.1768178967941, 0.8767412313205586
742.2627119468334, 0.5248413088406073
701.1832870758403, 0.7476444249820932
688.4345000469116, 0.6878269323628261
655.8542665285377, 0.6569685944806988
606.2756503049254, 0.8005719789430277
585.0276719233775, 0.7227053052723127
572.2788848944483, 0.8920254115778053
535.4490556997653, 0.8447879555041288
525.5333324550429, 0.789413512058727
512.7845454261137, 0.8051101575066562
474.5381843393275, 0.9221302278932213
468.8720567709147, 0.9220107199489125
432.0422275762312, 0.7335934647649454
410.79424919468283, 0.9150704750147152
383.88014324472215, 0.8675466183533204
##END=

##END=

