##TITLE=X7544
##JCAMP-DX=4.24
##DATA TYPE=INFRARED SPECTRUM
##DATE=29/10/2018
##SAMPLING PROCEDURE=Diamant-ATR
##ORIGIN=ComPlat
##XUNITS=1/CM
##YUNITS=TRANSMITTANCE
##RESOLUTION=4
##FIRSTX=3997.453
##LASTX=373.96442
##DELTAX=-1.4165319
##MAXY=0.90749276
##MINY=0.45808783
##XFACTOR=1
##YFACTOR=8.4516849e-010
##NPOINTS=2559
##FIRSTY=0.84204853
##XYDATA=(X++(Y..Y))
3997+996308469+996785352+996899107+996486048+995939346+995648012+995543707
3988+995445467+995515638+995955779+996541269+996885849+996905102+996714758
3978+996369331+995976513+995824181+996158605+996894805+997671415+998197947
3968+998462201+998539707+998406416+998116704+997915781+997937714+998026433
3958+997968462+997610694+996845862+995836240+995080012+995018585+995677844
3948+996595995+997096151+997013286+997068012+997958871+999158061+999615550
3938+999208274+998364807+997153558+995739905+995071126+995814942+997020197
3928+997378459+996993045+996895511+997439462+997820503+997361745+996460942
3918+996044991+996484990+997254689+997825299+998331872+999023713+999456307
3908+998758895+996787468+994615047+993679194+994380978+996129409+998386670
3898+1000358943+1000935265+999886574+998270093+997713730+998802056+999811395
3888+999088172+997333323+996098025+995318171+994065806+993314585+994534720
3878+996375396+996708904+995869810+995082974+994523013+994325899+995559152
3869+997897797+999268572+999202068+999034150+999527395+999963304+999514771
3859+997951748+995414013+992857378+992847716+997371054+1002341584+1003727098
3849+1002733909+1001105439+999463359+997908799+996540634+995633202+995714516
3839+997234308+999562798+1001151985+1001461445+1001104875+1000516564+999639810
3829+998683646+998245833+998194280+997452721+995958458+995568108+997145236
3819+998356344+998426868+999460397+1001692269+1002599278+1001171379+998477504
3809+996016782+995330160+996519618+997144108+995816705+994484014+995468881
3799+997975374+1000552461+1003108250+1005025585+1005431662+1004805057
3791+1004121186+1003531535+1002786872+1002123735+1001859341+1001561730
3782+1000629473+999415403+998896276+999257147+999705115+999736922+999424077
3772+999086408+999222661+999930369+1000556199+1000947677+1001657783+1002333756
3762+1001933603+1000567624+999460115+999069553+998506842+997141357+995288340
3752+994116866+995268593+997831998+998267061+996208819+994791075+996366299
3742+998419957+997854919+995104131+991825612+989803760+990561752+993691818
3733+996992763+999084434+999821762+999586141+999220475+999458493+1000010696
3723+1000227557+1000240957+1000313526+1000167823+999531344+998465939+997337061
3713+997104614+998881325+1001989458+1004369078+1005123966+1004486359+1003197604
3703+1002402658+1002759227+1003494862+1003598109+1003044990+1002206953
3694+1001333232+1000673903+1000643860+1001775488+1003891137+1005483921
3686+1005502680+1004188043+1002045665+999425347+996634219+994033577+992548906
3676+993914109+997549903+999603772+999319138+999457153+1001813289+1004634318
3666+1005947475+1005722785+1004579662+1003063538+1001428157+999843977+999109681
3656+999949834+1000945632+999890241+996972946+994936778+996537178+1000125650
3646+1002252371+1002858666+1003075809+1003289214+1003417427+1003409881
3638+1003178774+1002471277+1001137528+999212435+996841701+994908709+995522691
3628+999027803+1001768435+1001806518+1000292086+998840632+998653250+1000014081
3618+1001601576+1002015481+1001731481+1001882332+1002470995+1002789199
3609+1003132933+1004467882+1006314129+1007000962+1006068282+1004470421
3601+1003090125+1002020347+1001179842+1000787376+1000920455+1001193101
3592+1001022151+1000186018+999363497+1000067256+1002798720+1005547604
3584+1006534798+1006032456+1005120863+1004612244+1004542355+1004299188
3575+1003625896+1003055710+1002770087+1001963998+1000281296+999199952
3567+1000631377+1003496767+1005037574+1004947938+1004551382+1004530789
3558+1004560691+1004161385+1003250920+1002148560+1001430767+1001397761
3550+1001652635+1001762864+1001932122+1002469655+1003110648+1003600437
3541+1004208353+1005031368+1005622218+1005622430+1005142091+1004300599
3533+1003072283+1001766038+1001010091+1001068696+1001575834+1002205120
3524+1003197604+1004805974+1006426897+1006940664+1006090991+1004993285
3516+1004846878+1005444004+1005612980+1004934468+1004202500+1004099323
3507+1004280288+1004234024+1004177746+1004534104+1005130455+1005514740
3499+1005631104+1005644433+1005576025+1005461424+1005472143+1005603529
3490+1005591399+1005376654+1005371153+1005937037+1006763931+1007135592
3482+1006786710+1006151994+1005635547+1005172910+1004844268+1005167691
3473+1006188949+1006979241+1006754692+1005831392+1004923326+1004231274
3465+1003681821+1003361784+1003271654+1003190975+1003083919+1003242880
3456+1003837468+1004563089+1004928403+1004815988+1004555966+1004447148
3448+1004444327+1004333534+1003984228+1003437808+1002933209+1002695332
3439+1002547655+1002100885+1001471177+1001312145+1001942065+1002892940
3431+1003497895+1003594654+1003515596+1003609182+1003866876+1003970335
3422+1003707210+1003285759+1003114738+1003365169+1003893534+1004454835
3414+1004814719+1004771064+1004236281+1003375254+1002652806+1002561478
3405+1003160579+1004002071+1004575783+1004686294+1004411392+1003904536
3397+1003300357+1002697307+1002177333+1001778238+1001470754+1001283724
3388+1001378438+1001778027+1002153003+1002189464+1002107726+1002433335
3380+1003181947+1003673288+1003435622+1002946680+1002966708+1003444790
3371+1003653964+1003223627+1002554425+1002304418+1002647940+1003039560
3363+1002935466+1002740326+1003388301+1004886653+1006114193+1006277668
3354+1005762914+1005302110+1005127493+1005197664+1005513611+1005917714
3346+1006090356+1005911578+1005502892+1004992157+1004517178+1004221118
3337+1004008559+1003658196+1003311077+1003445778+1004279230+1005515798
3329+1006675494+1007454008+1007822425+1007947535+1008007269+1008019681
3320+1007842313+1007417124+1007001949+1006982908+1007434614+1008074196
3312+1008585918+1008773935+1008554887+1008053603+1007599993+1007487930
3303+1007758460+1008128429+1008174340+1007768686+1007203366+1006745454
3295+1006403977+1006243252+1006452991+1006980581+1007492867+1007815867
3286+1008126525+1008590079+1009022743+1009172254+1009215627+1009538626
3278+1010021998+1010141042+1009837225+1009632846+1009791032+1009984832
3269+1009910852+1009697023+1009603438+1009678193+1009843643+1010088502
3261+1010389498+1010572931+1010441686+1010010079+1009484675+1009010049
3252+1008532954+1007987169+1007593575+1007753876+1008496282+1009244189
3244+1009423531+1009196656+1009226346+1009736587+1010222991+1010228351
3235+1009995058+1010010009+1010270877+1010411572+1010266927+1009966072
3227+1009691170+1009574100+1009637430+1009741524+1009765572+1009835532
3218+1010178561+1010722301+1011075062+1011044736+1010955383+1011171750
3210+1011540661+1011690031+1011653358+1011723318+1011849768+1011671624
3201+1011140649+1010764686+1011098546+1012126856+1013247341+1013801942
3193+1013605251+1013072089+1012773209+1012727580+1012449997+1011919163
3184+1011837073+1012506557+1013258131+1013467658+1013338740+1013289374
3176+1013295086+1013211656+1013170259+1013335003+1013647494+1014028183
3167+1014538776+1015121939+1015487747+1015519060+1015427802+1015299660
3159+1014927857+1014201108+1013209188+1012116278+1011328102+1011357299
3150+1012189482+1013250233+1014039044+1014297655+1013869927+1012935766
3142+1012018532+1011509348+1011553849+1012217409+1013259401+1014068381
3133+1014229388+1013894963+1013517307+1013516390+1014063304+1014846331
3125+1015249799+1014986815+1014422764+1014197722+1014596042+1015273707
3116+1015638386+1015453261+1014883568+1014072683+1013079988+1012205984
3108+1011949630+1012451901+1013159962+1013278866+1012602047+1011693557
3099+1011130635+1010916383+1010853475+1011052706+1011660270+1012352039
3091+1012500986+1011818032+1010608334+1009349128+1008099726+1006434443
3082+1003942478+1000724328+997431634+994847494+993370652+992937775+993373261
3072+994475692+995742655+996478573+996315874+995336507+993837943+992241210
3063+990833410+989338302+987243035+984598526+981875737+979188632+976461893
3053+974171274+973087744+973364198+974437150+975808841+977521375+979759171
3043+982306145+984755654+987094088+989531679+991783721+993165779+993465013
3033+993118881+992531698+991703606+990514078+989072920+987797988+987128010
3023+987084779+987324631+987607573+987824293+987708634+987125471+986549784
3013+986702962+987770625+989303816+990722476+991701067+992183310+992159966
3003+991534419+990330998+988823054+987175755+985219420+982859969+980369838
2993+978040995+975881340+973775352+971645458+969424305+967040101+964401376
2983+961457352+958370588+955445747+952846727+950750331+949690991+950171894
2973+951948534+954214540+956426383+958514034+960462753+962136851+963480826
2963+964607729+965616574+966461804+967131923+967861071+968948268+970427650
2953+972113102+973846723+975512429+977000202+978324290+979538008+980377807
2944+980256365+978785799+976106311+972586953+968458338+963908695+959220120
2934+954479569+949368484+943590102+937435827+931730931+927285946+924433744
2924+923045903+923009583+924556033+927914737+932799722+938509907+944398237
2914+950073795+955331992+960006956+963813629+966437191+967894358+968610458
2904+969033250+969351665+969611123+969916492+970462771+971388398+972635050
2894+974045177+975590922+977325741+979124455+980732049+982114884+983510765
2884+985045931+986511560+987629718+988366411+988826792+988975456+988671004
2874+987959276+987187814+986777224+986884843+987297902+987637123+987631199
2864+987248747+986745206+986585257+987085484+988048701+988928699+989417853
2854+989700513+990051017+990373806+990363862+990039734+989830489+990095941
2844+990757879+991377362+991455502+990816414+989817371+988985047+988447655
2834+987999616+987618716+987527669+987813785+988352588+989074965+990028873
2825+991174041+992346784+993458242+994522238+995447019+996059096+996412844
2815+996830276+997556320+998569891+999712591+1000830960+1001855180+1002811485
2805+1003683796+1004308991+1004526487+1004345170+1003927386+1003561155
2796+1003596064+1004173867+1005020367+1005665520+1005904173+1005974556
2788+1006259473+1006872961+1007609796+1008215808+1008538385+1008480061
2779+1008041050+1007421990+1006920353+1006667807+1006552147+1006436911
2771+1006371112+1006460043+1006664210+1006971977+1007599711+1008653268
2762+1009743710+1010315871+1010265517+1009965861+1009799283+1009831442
2754+1009873051+1009794981+1009718462+1009798789+1009947524+1009995410
2745+1009996468+1010104511+1010270877+1010330470+1010320808+1010497259
2737+1011008064+1011663514+1012081086+1012053511+1011704841+1011289031
2728+1010982816+1010885282+1011009333+1011195094+1011235222+1011148548
2720+1011150099+1011320133+1011504059+1011560337+1011526838+1011486428
2711+1011458994+1011517106+1011835310+1012462339+1013151852+1013575701
2703+1013612303+1013330771+1012843662+1012316918+1012017333+1012163529
2694+1012675886+1013183799+1013408065+1013457644+1013551723+1013616182
2686+1013475768+1013278090+1013330771+1013605392+1013751658+1013566815
2677+1013195365+1012873564+1012675392+1012568125+1012556700+1012651625
2669+1012814042+1013023639+1013278513+1013509197+1013639384+1013674223
2660+1013607507+1013406373+1013193108+1013254394+1013778457+1014668399
2652+1015554745+1015982825+1015797136+1015335979+1015090274+1015268841
2643+1015754398+1016231846+1016360622+1016090022+1015746570+1015594309
2635+1015533870+1015461865+1015599739+1016145595+1016881089+1017435126
2626+1017719690+1017795644+1017571166+1017036665+1016610912+1016780381
2618+1017460937+1018142904+1018627827+1019154007+1019786254+1020231049
2609+1020406160+1020661809+1021190316+1021682080+1021787654+1021482991
2601+1020816750+1019770034+1018602298+1017944803+1018226052+1019190820
2592+1020223573+1020989534+1021492441+1021693505+1021470578+1020943341
2584+1020541777+1020638677+1021132768+1021474034+1021305200+1020987489
2575+1021089326+1021537788+1021893652+1022189500+1022721251+1023367321
2567+1023963389+1024885561+1026317198+1027390996+1027085486+1025687771
2558+1024394714+1023763242+1023475857+1023298278+1023326417+1023470568
2550+1023396870+1022881481+1021951340+1020956741+1020528519+1021048563
2541+1022212208+1023366051+1024064168+1024204158+1024015930+1023942091
2533+1024181097+1024482305+1024609389+1024665667+1024778153+1024874277
2524+1024864263+1024639150+1023970935+1022882186+1021979973+1021943865
2516+1022752563+1023731648+1024292877+1024465309+1024749450+1025478879
2507+1026366353+1026839851+1026720172+1026247802+1025596090+1024844586
2499+1024313823+1024419680+1025172241+1026125866+1026788721+1026876100
2490+1026282077+1025154892+1024071855+1023829958+1024817858+1026629830
2482+1028325580+1029025107+1028490394+1027373788+1026660720+1026659168
2473+1026846692+1026808327+1026800428+1027173218+1027726760+1027959419
2465+1027773165+1027657506+1028032059+1028535106+1028378966+1027463918
2456+1026549151+1026191806+1026240820+1026508459+1027101001+1027865199
2448+1028304846+1028233475+1027882548+1027387822+1026793305+1026370373
2439+1026318185+1026360147+1026173822+1025979388+1026222061+1026899444
2431+1027592060+1027947712+1027874438+1027534865+1027328653+1027531197
2422+1027864282+1027867526+1027637759+1027593893+1027652005+1027353195
2414+1026696194+1026182991+1026164020+1026582297+1027149663+1027533172
2405+1027649537+1027770274+1028017954+1027984878+1027325056+1026413816
2397+1025914012+1025971983+1026307747+1026765871+1027356016+1028003073
2388+1028478546+1028351391+1027140495+1024930485+1022569130+1020786989
2380+1019479616+1018226616+1016995056+1015872103+1014597805+1012818203
2371+1010561365+1008334994+1006661883+1005299359+1003483931+1001535495
2363+1001013688+1002436509+1004388542+1005689921+1006819997+1008537115
2354+1010574341+1012144276+1012861787+1012889080+1012534132+1011935102
2346+1011064977+1009989839+1009097851+1008873867+1009384038+1010170874
2337+1010813841+1011402081+1012174460+1013021382+1013738047+1014332494
2329+1014678978+1014436094+1013696085+1013139792+1013290502+1014064573
2320+1015236329+1016781721+1018445664+1019595064+1019847751+1019505710
2312+1019187858+1019306056+1020027023+1021404286+1023211815+1024833867
2303+1025744261+1026105696+1026574187+1027507149+1028630807+1029384003
2295+1029326597+1028419941+1027217154+1026545061+1026742598+1027441632
2286+1028169651+1028769881+1029197256+1029411367+1029531258+1029680063
2278+1029725269+1029511511+1029176663+1028953878+1028859235+1028767130
2269+1028653939+1028674462+1029000212+1029564968+1030064207+1030181065
2261+1029684012+1028513738+1027025752+1025831499+1025149321+1024663199
2252+1024084126+1023491725+1023347292+1024382302+1026811712+1029483160
2244+1030775089+1030621135+1030569229+1031462063+1032144030+1031183846
2235+1029080680+1027726055+1028149411+1029796075+1031583646+1032782554
2227+1033370794+1034112001+1035666773+1037535729+1038606001+1038378491
2218+1037006729+1034834943+1032561320+1031250703+1031709602+1033835336
2210+1036608127+1038932245+1040488427+1041451573+1041789453+1041417016
2201+1040382994+1038608610+1036367217+1034724643+1034407709+1034905044
2193+1035504568+1036116928+1036514330+1035940829+1034060237+1031784146
2184+1030841523+1032279718+1035354493+1038418971+1040671789+1042163583
2176+1042586515+1041224133+1038109512+1034461730+1031737036+1030499975
2167+1030413936+1031096749+1032477749+1034639309+1037634886+1040789494
2159+1042449205+1041967315+1040988230+1041427242+1043906795+1047704864
2150+1050867370+1051510620+1049791034+1047452740+1045511004+1043703192
2142+1041499388+1038585690+1035366764+1033507964+1034678591+1038407829
2133+1042358864+1044796173+1045651840+1045480749+1044603360+1043165940
2125+1041397270+1039893134+1039517100+1040346815+1041061575+1040486593
2116+1039314908+1038993178+1039529724+1039853077+1039702085+1039615129
2108+1039509554+1038711011+1037251659+1036134418+1036210019+1037310969
2099+1038558186+1039223721+1039237473+1039047552+1039078512+1039338110
2091+1039591574+1039820212+1040269027+1040991051+1041502421+1041055510
2082+1039522672+1038039623+1038196186+1040241029+1042667195+1043978518
2074+1044240726+1044369573+1044663799+1044756679+1044512737+1044363226
2065+1044918038+1046318574+1047707826+1047579825+1045249642+1042019432
2057+1040386661+1041723866+1044675577+1046112503+1044170837+1040363882
2048+1038254792+1039771128+1043512989+1047132914+1050147462+1053294453
2040+1055890935+1055783033+1052667283+1049409005+1048382529+1048646006
2031+1048830779+1049736518+1051424157+1051580297+1049478401+1047762552
2023+1048091547+1048631478+1047544492+1045708894+1044786864+1045387516
2014+1047699010+1051242981+1053905685+1053796584+1051877485+1050382307
2006+1049414577+1047624466+1045240756+1044115052+1045460226+1048547132
1997+1051119353+1051273800+1049420712+1047868479+1048312921+1050292106
1989+1052020790+1051698284+1048442121+1043335692+1039009257+1037420704
1980+1038747754+1042476427+1047905081+1053052203+1055365037+1054392441
1972+1051740105+1048432177+1044538125+1041151141+1039975154+1040585750
1963+1040936184+1040570587+1040860371+1042266195+1043326241+1042456681
1955+1039580854+1036183573+1034299031+1035125643+1038147736+1041430134
1946+1043108957+1043034554+1042726223+1043439644+1044906966+1046485927
1938+1048132239+1049639548+1050402124+1050328144+1050031520+1050023904
1929+1050296761+1050491478+1050231597+1049604357+1049206601+1049310413
1921+1049450332+1049401247+1049779891+1050944876+1051972340+1051727763
1912+1050358893+1049143341+1048928737+1049120844+1048800877+1048116018
1904+1047684412+1047432500+1046891158+1046089865+1045457335+1045199358
1895+1045131444+1044863523+1044173517+1043279555+1042601466+1042436370
1887+1043096615+1044750191+1046690940+1047652817+1047435251+1047206330
1878+1047844360+1049012590+1049949783+1050377229+1050579703+1051006232
1870+1051766551+1052453807+1052829912+1053359547+1054419804+1055626822
1861+1056231495+1056026693+1055663142+1055948976+1057040475+1058330712
1853+1058980167+1058641158+1057725263+1056909089+1056564932+1056779537
1844+1057492746+1058266746+1058574936+1058433677+1058207083+1058043679
1836+1057595499+1056459146+1054862272+1053571471+1053169203+1053512654
1827+1054172336+1055088301+1056181634+1056872981+1056581999+1055470964
1819+1054412752+1054127482+1054353230+1054385248+1054123956+1053954628
1810+1054045040+1054294836+1054684622+1055224130+1055831835+1056525298
1802+1057509037+1058875086+1060351576+1061557889+1062324132+1062708770
1793+1063058075+1063891739+1065152073+1066216280+1066871871+1067245295
1785+1067304112+1067090283+1067030761+1067405737+1067945034+1068324030
1776+1068553233+1068801759+1069272789+1070016464+1070800903+1071624199
1768+1072633257+1073478275+1073741823+1073640268+1073644218+1073681172
1759+1073209579+1071924350+1069851720+1066950293+1062654184+1055733384
1751+1044630512+1028754859+1009299973+987138589+961755316+933135839+902202823
1741+869169250+835188893+804332678+778502495+754886412+732184814+715351375
1731+706849216+704065705+704882443+708002494+712913502+719500160+726427871
1721+732414652+739158437+751106045+770343294+791455493+809347709+824775393
1711+839483028+853665964+867245497+881104164+894994849+906161052+913790336
1701+921122432+930600291+939397522+945704975+951403242+956315378+959178652
1691+960883851+962796814+964775717+966233095+968387603+973394594+979646826
1681+983666905+985674158+986916085+988132554+989928799+992163634+993795911
1672+994793473+996719201+1000335318+1003775830+1005691402+1006879943+1008567088
1662+1010806718+1012570029+1013227877+1012815805+1011852871+1012039125
1653+1015559258+1019362123+1019858612+1018977626+1019629268+1022752211
1645+1025761046+1026898668+1026849795+1026440685+1026029812+1026164584
1636+1027856525+1030719093+1032539458+1032731424+1032164482+1031646342
1628+1031430116+1031318617+1031349718+1031815247+1032341356+1032154044
1619+1031434841+1031454164+1033209577+1035475865+1036535346+1036332731
1611+1035342010+1033487371+1030192843+1025107429+1018306943+1009492433
1602+997331349+980374070+959420338+938985521+926000576+925785125+937580401
1592+954642268+969601320+978769931+981935964+980032028+973768371+963609815
1582+950158988+934602103+918490548+903435371+892546468+889300602+891406096
1572+894497655+897930198+902550788+907398325+910987572+913468253+915025070
1562+915208996+914759829+917809850+927611061+936617326+941260836+944488648
1553+947790369+951338360+955081985+958480958+961004941+963079122+965488221
1543+968621531+973941719+983013218+991450848+995505060+997050875+999091909
1533+1002905282+1006836853+1009374094+1011095161+1012901915+1014549143
1524+1015386263+1015940652+1017370173+1019477500+1021328543+1023164494
1516+1025321329+1027038587+1027484863+1026488641+1024131519+1021158298
1507+1020498335+1023836305+1026587728+1026298650+1023775796+1019856496
1499+1014542796+1005969267+991304934+970544437+945676202+918886187+896613516
1489+890189487+901668040+920225720+937155353+950327540+960255483+967213872
1479+970999811+971837636+970773358+969782285+971423307+976246160+981240457
1469+984012472+984514462+983319080+981077687+978777477+977149925+976465560
1459+977721099+983140232+991728924+998010988+1000677782+1001340073+1000681802
1449+998138284+992482120+982408616+966703490+944832100+919349248+896941452
1439+885314587+890136876+909667575+930197528+941934058+947719563+952518226
1429+957377963+960199910+958947898+952989186+943268866+932046596+921665890
1419+915137062+916214386+924709916+936926291+950393974+963827240+976031344
1409+985942996+993157458+998360294+1002644132+1006172869+1008395856+1009260832
1400+1009127895+1008069259+1005738442+1001863713+996884297+991759038+987135838
1390+983602446+982343945+984285047+988574034+993520092+998264028+1002589123
1380+1006339447+1009260973+1011065823+1011579449+1010600717+1007560499
1371+1001585778+991985279+979270228+966096913+956273558+953200687+958835130
1361+971399470+985920287+998843453+1009337633+1017684075+1024307476+1029513062
1351+1033503450+1036531397+1038911581+1040859101+1042403365+1043463622
1343+1043990507+1044142415+1044385159+1045157890+1046297064+1047284118
1334+1047920314+1048270819+1048261933+1047701831+1046530851+1044791800
1326+1042433267+1039266811+1035037488+1029494162+1022465531+1013957659
1317+1004207437+993592026+982569763+971767887+961775909+952571260+943435937
1307+933682964+923333429+913021131+903463721+895230823+888826611+884663862
1298+882854993+883096890+884865843+887719032+891233665+894515286+895852774
1288+893073283+884468299+869623002+849696310+827284425+805995845+789708403
1278+781662533+783586780+795089100+813687966+835543488+856632837+874026237
1268+886664134+895202895+901221764+906302382+911324324+916287872+920725170
1258+924232046+926565402+927431084+926455032+923402613+918377357+911843522
1248+904447672+896797231+889502865+883340621+879038870+876812639+876279196
1238+876786686+877727758+878737732+879812941+881215381+883244920+886106571
1228+889884893+894581085+900190562+906649995+913693436+920943513+928196128
1218+935487602+942893819+950340799+957502156+963811090+968730349+972159507
1208+974488703+976154690+977211140+977387943+976462669+974426571+971342134
1198+967147791+961580487+954264894+944908477+933420051+919883467+904542668
1188+887801121+870120972+851938832+833662120+815556146+797675214+780179555
1179+763670315+748975092+736778252+727689192+722321401+720842513+722472393
1169+725618185+728524831+729882982+729126048+726441905+722501449+718002724
1159+713406465+709074741+705514973+703338320+702952907+704326502+707150000
1149+711371495+717546293+726486970+738518996+753114004+769178449+785605741
1139+801594584+816606319+830277815+842567606+853855110+864598168+874858208
1129+884299324+892586173+899622421+905493049+910356382+914320676+917272316
1119+918869050+918833717+917321260+915010401+912770418+911120721+910020970
1109+909224473+908678476+908407664+908100320+906966506+904032215+898621968
1099+890771450+881358262+871810585+863490095+857157536+852934419+850700784
1089+850461425+852356757+856395172+862185755+868895124+875480371+881016009
1079+884889610+886840444+886856735+884934040+881056208+875802313+871017331
1069+869200493+871499645+876400568+880986742+883603252+884994972+887161257
1060+891761819+899388070+909476173+920621007+931336702+940745588+948612608
1050+954902783+959421043+961829789+961943827+959856035+955632847+948981801
1040+939310848+926001422+908698152+887795056+864917360+842819799+824674191
1030+813090980+808889937+810078549+812474248+812392370+809195306+805173747
1020+803305637+805448156+812058721+822573564+835717894+849912960+863864789
1010+876920470+888857218+899255697+907083576+911206831+911793450+911202247
1000+912784170+918225660+926244165+934141582+940223781+944398589+947078359
990+948339610+948066118+946284330+943123375+938665131+933084145+927007446
980+921645861+918400912+918139832+920658173+924797648+929196088+933044087
970+936246722+939117260+942067066+945376686+948998516+952551937+955546455
960+957606461+958639919+959003118+959455600+960727429+963038500+966039225
950+969109274+971632552+973107349+973195575+971758155+968929791+965271007
941+961785923+959589454+959486771+961780987+966148678+971531914+976512882
931+980072439+981825947+981589268+979275729+975373426+971017512+967301322
921+964654134+962869524+961521952+960364795+959500171+959224563+959698696
911+960770026+962116893+963535200+965035809+966673094+968366445+969870228
901+970732666+970195626+967399421+961924292+954017989+944237583+933300513
891+922606962+914455800+911116137+913600556+921288445+932287013+944051964
881+954246487+961478157+965269526+965654516+963229902+959249035+955045242
871+951407756+948666912+947041969+946667980+947419766+948647306+948903802
861+946219871+939042011+926947995+910666617+891953926+873372268+857387444
851+845350200+837701874+835087762+838521363+848114458+862039135+877152001
841+890711011+901574102+910132892+917492069+924633468+931993210+939620166
832+947572944+955854857+963857777+970277504+974059282+975469268+975949113
822+976888634+978758647+981289541+983972697+986280030+987860472+988811206
812+989650653+991005418+993312540+996528292+999969157+1002700621+1004310966
802+1005257398+1006367022+1007970596+1009632987+1010881756+1011940250
793+1013321674+1014926799+1016108781+1016571983+1016716910+1017027427
785+1017400216+1017154793+1015527734+1011949912+1005890209+996856863+985020048
775+971889400+960119442+952208344+948772909+947820201+946215075+942472509
765+937915813+934529957+931804699+926297552+914484504+895812363+873239260
755+851755822+836652266+832043524+839501364+857253307+880761700+904782590
745+925549786+941358865+951558959+955751116+954274273+948801119+941610424
735+934208720+926875708+919332957+911458602+903347780+895048307+886461236
725+877339947+867287741+855988812+843722506+831686531+821482558+813803202
715+807426001+799573508+787457207+769664289+746401813+719005575+689218150
705+658379848+627191465+596631239+569331688+549691219+542007702+548132568
696+566384738+592200076+620282654+646787399+669776594+688405150+702461073
686+712587611+720303216+727344401+734951117+743868239+754632738+767294331
676+781077043+794395285+805170150+812260631+817303166+824763334+836427718
666+847244051+854355407+859541599+865020748+871666646+878918838+885589278
656+890933162+895025245+898041062+899802751+900471601+901044960+902657280
646+905734029+910088814+915389679+921082656+926183515+929844908+932206263
636+934057305+935435908+934911210+930469610+921086888+907758138+893667377
626+883056762+877782838+873753732+863076966+842110258+816714361+798322624
616+795087972+807186431+829364600+855222217+878862701+895607562+903226831
606+902401066+895766100+886253966+875564294+863796452+850917715+838980827
596+832433310+835298488+847705912+865594813+884117231+900802922+915255049
586+927306962+936535307+942646703+945282466+943639681+936773678+924340794
577+907481472+889291364+873323113+861181140+852343710+845945140+842246016
567+842512879+847350542+855416369+864364522+872755959+880041086+885036793
557+886202484+883659389+879295013+874343524+868110686+859666779+849929674
547+841174616+834862367+830776843+828013643+825931986+824221357+823118150
537+823725644+827130753+833151738+840757960+849313013+858732971+869019458
527+879889883+890235962+898483318+904055982+907540219+909865747+912356019
517+916461502+922085507+927224872+930178416+931154468+931338112+931242059
507+930853683+930785980+931580010+931890104+929499552+924783543+920460988
497+917662455+914841990+910576981+906152942+904672926+907954195+914849042
487+922372117+927761489+930076015+930582942+931214272+932560152+933536697
477+932815519+930551841+928274833+927100538+926856102+927245888+928820406
467+932147657+936925798+942000774+945702507+946696260+945483107+944554941
458+946019724+949048799+951347528+952040356+951076152+947956242+942708694
448+937277854+934106179+932862841+930536537+925819964+920804651+917214416
438+914436265+911857838+910546021+911772504+915356956+920272477+925800570
428+931575002+936735313+939367338+937712775+932179957+925509165+922464503
418+926658917+934272404+939069586+938594607+933939389+928086886+922743990
408+917682343+913557889+912297767+914274131+916976186+915972701+907218065
398+893806168+888030748+893275545+900012137+902298524+901407947+898650037
388+892847112+885030164+881039071+885540828+894960716+902276380+904362408
378+901840894+897233633+894873054+897838658
##END=
