##TITLE=sgr-SML984
##JCAMP-DX=4.24
##DATA TYPE=INFRARED SPECTRUM
##DATE=19/11/2018
##SAMPLING PROCEDURE=Diamant-ATR
##ORIGIN=Angelika Moesle
##XUNITS=1/CM
##YUNITS=TRANSMITTANCE
##RESOLUTION=4
##FIRSTX=3997.453
##LASTX=373.96442
##DELTAX=-1.4165319
##MAXY=1.0001948
##MINY=0.61025208
##XFACTOR=1
##YFACTOR=9.3150399e-010
##NPOINTS=2559
##FIRSTY=0.99827439
##XYDATA=(X++(Y..Y))
3997+1071680209+1071626331+1071416068+1071192624+1071168244+1071408006
3989+1071746116+1071903333+1071729351+1071360783+1071086916+1071045068
3980+1071156343+1071344466+1071641944+1072081218+1072630807+1073174446
3972+1073470388+1073288855+1072737283+1072313365+1072442428+1073024843
3963+1073538727+1073532712+1073013773+1072404995+1072105406+1072097343
3955+1072073028+1071913891+1071767488+1071620636+1071252452+1070757188
3946+1070587173+1070893162+1071385226+1071856494+1072331922+1072675279
3938+1072626584+1072303959+1072179567+1072401092+1072522668+1072241251
3929+1071977879+1072131001+1072336337+1072059207+1071569318+1071603807
3921+1072122426+1072320084+1071838642+1071303450+1071409221+1072036747
3912+1072591519+1072652499+1072256032+1071814454+1071699469+1071901541
3904+1072121019+1072095872+1071735622+1071072839+1070333655+1069867122
3895+1069885998+1070364433+1071051915+1071604639+1071974423+1072354253
3887+1072588384+1072233765+1071419907+1070893802+1070921956+1071107072
3878+1071154743+1071198766+1071351697+1071487478+1071458172+1071237479
3870+1070844595+1070377486+1070048910+1070007510+1070245352+1070618271
3861+1070968155+1071269793+1071585059+1071941022+1072242403+1072181551
3853+1071542891+1071024208+1071284062+1071939102+1072293465+1071975127
3844+1071191536+1070485369+1070155386+1070069514+1070065227+1070238697
3836+1070678612+1071195375+1071550762+1071688591+1071663828+1071489910
3827+1071161398+1070752197+1070348436+1069934501+1069517942+1069332826
3819+1069646749+1070474939+1071602784+1072500657+1072710024+1072363084
3810+1071841521+1071309337+1070688914+1070092806+1069960991+1070355987
3802+1070601379+1070000728+1068999067+1068554417+1068863541+1069465472
3793+1069969566+1070407688+1070942560+1071588578+1072218664+1072662609
3785+1072795127+1072616090+1072233573+1071761281+1071332756+1071096002
3776+1071032207+1070934498+1070625950+1070149627+1069771588+1069675287
3768+1069659290+1069496506+1069401996+1069689108+1070263461+1070813881
3759+1071205229+1071455548+1071537644+1071427330+1071207341+1070952222
3751+1070591269+1070163256+1070055821+1070460542+1071052875+1071326677
3742+1071401031+1071820981+1072612443+1073362889+1073532712+1072745601
3734+1071181554+1069685525+1068987677+1069185846+1069968798+1070928355
3725+1071649047+1071840369+1071523823+1070959197+1070431044+1070133886
3717+1070173686+1070600611+1071416196+1072497969+1073423549+1073634580
3708+1073051525+1072100287+1071281310+1070969755+1071347345+1072247522
3700+1073130678+1073474931+1073096573+1072196012+1071293532+1070908583
3691+1071198958+1071859118+1072341776+1072427647+1072374153+1072334289
3683+1072142902+1071691790+1071288477+1071428034+1072220583+1073079552
3674+1073122232+1072341392+1071475960+1071191792+1071743428+1072615130
3666+1073095805+1072976404+1072585568+1072469687+1072741122+1072914272
3657+1072613147+1072164530+1072185518+1072739202+1073395778+1073643282
3649+1073234530+1072555110+1071989460+1071463099+1071009235+1070917285
3640+1071313304+1071853615+1071990420+1071533869+1070893802+1070758532
3632+1071383754+1072175600+1072030348+1070806971+1069950370+1070272291
3623+1071341587+1072394629+1072826801+1072515694+1072001490+1071900006
3615+1072240355+1072731588+1073127287+1073165167+1072615386+1071739269
3606+1071237287+1071334804+1071608095+1071753794+1071907556+1072174576
3598+1072229286+1071723464+1070925668+1070617184+1071204781+1072302295
3589+1073234978+1073532712+1073278425+1072938523+1072704585+1072340240
3581+1071808376+1071451965+1071414596+1071337299+1070998933+1070774849
3572+1071039309+1071563239+1071869356+1071878506+1071915555+1072038347
3564+1071864685+1071269217+1070587110+1070193394+1070172726+1070404681
3555+1070711565+1070832822+1070590885+1070165944+1069878512+1069746121
3547+1069594151+1069433350+1069390990+1069396621+1069294369+1069121219
3538+1069063886+1069209842+1069460929+1069682390+1069832057+1069842487
3530+1069552239+1068955363+1068331357+1067848827+1067257070+1066254385
3521+1064950064+1063749785+1062911485+1062293301+1061501263+1060313463
3513+1058844757+1057236622+1055518941+1053887706+1052670919+1051862053
3504+1051132147+1050326800+1049596318+1049034060+1048535149+1048014994
3496+1047558315+1047322265+1047343893+1047506357+1047761220+1048258019
3488+1049043722+1049757439+1049938844+1049571747+1049062534+1048789052
3479+1048893799+1049399045+1050236002+1051233887+1052285394+1053408376
3471+1054513185+1055316356+1055646916+1055691387+1055800806+1056136292
3462+1056602442+1057041780+1057365173+1057538323+1057596872+1057680312
3454+1057913738+1058282690+1058756262+1059412646+1060222088+1060791706
3445+1060693357+1060046955+1059417893+1059155352+1059150169+1059249606
3437+1059507476+1059896648+1060126043+1059944703+1059456606+1059027377
3428+1058896587+1058878798+1058476509+1057361078+1055682557+1053888538
3420+1052317644+1050951894+1049492850+1047699408+1045652638+1043648741
3411+1041928884+1040630513+1039836171+1039453462+1039147794+1038584831
3403+1037793049+1037208587+1037264576+1037948091+1038881093+1039809041
3394+1040765079+1041742232+1042560889+1043213434+1044017757+1045220787
3386+1046636767+1047814265+1048466682+1048645655+1048584931+1048461499
3377+1048304922+1048089476+1047844084+1047634716+1047492536+1047428421
3369+1047491128+1047749126+1048164661+1048570534+1048905125+1049356301
3360+1050050566+1050720451+1050951254+1050621655+1049912161+1049107645
3352+1048584675+1048665684+1049235429+1049715271+1049629912+1049090113
3343+1048588707+1048425410+1048509170+1048652438+1048786364+1048830643
3335+1048653142+1048273184+1047873070+1047515444+1047044175+1046330202
3326+1045494077+1044795014+1044360218+1044099021+1043825282+1043396182
3318+1042806921+1042174916+1041508998+1040600822+1039380132+1038141781
3309+1037107615+1036080487+1034892558+1033868118+1033450087+1033577167
3301+1033708341+1033416046+1032801254+1032259151+1031955275+1031740788
3292+1031524702+1031429425+1031540123+1031740276+1031833570+1031727287
3284+1031524382+1031458155+1031642695+1031874138+1031771694+1031140265
3275+1030104691+1028918618+1027836781+1027182316+1027215974+1027764731
3267+1028260826+1028368389+1028338827+1028546914+1028903709+1028952531
3258+1028448822+1027682123+1027210663+1027320593+1027703623+1027671373
3250+1026835952+1025599393+1024772482+1024679316+1024911335+1024992663
3241+1024914982+1024868975+1024768706+1024275363+1023275877+1022214196
3233+1021760524+1022071312+1022540149+1022404175+1021457735+1020123147
3224+1019003173+1018396508+1018105940+1017722207+1017143056+1016666285
3216+1016540613+1016615863+1016488271+1015877766+1014865228+1013830293
3207+1013095268+1012611523+1012109284+1011523350+1011067951+1010851993
3199+1010636035+1010103339+1009252241+1008370429+1007700991+1007253142
3190+1006899547+1006566812+1006301904+1006115828+1005811695+1005180778
3182+1004331983+1003510127+1002685520+1001707343+1000710033+999946022+999416845
3172+999005661+998716821+998545782+998347869+997959401+997323684+996516674
3162+995669159+994803791+993874116+992987633+992331633+991905668+991590209
3152+991350384+991133658+990770401+990195281+989587911+989173400+988958786
3142+988694325+988105640+987188059+986212633+985393592+984618447+983555102
3132+982037382+980287771+978681172+977369171+976255148+975178174+973993061
3122+972677605+971465553+970607097+970031977+969517645+969010416+968467481
3112+967651448+966440036+965105448+964018108+963214297+962385786+961170919
3102+959469170+957599774+956073671+955065676+954209395+953036119+951516735
3092+950072088+949122130+948701475+948458067+947989294+947161104+946067940
3082+944813337+943450018+942040053+940688700+939572950+938863328+938495336
3072+938164328+937654731+937006154+936364679+935885924+935661775+935494384
3063+934971030+934012753+933077127+932587878+932432580+932216751+931771589
3053+931212082+930699478+930334429+930115656+929864121+929365338+928672225
3043+928072854+927713116+927440337+927010277+926282418+925293875+924298101
3033+923602237+923245506+922980342+922608766+922152983+921671541+921077352
3023+920204434+919034102+917814564+916845665+916143017+915481834+914763702
3013+914117876+913642769+913267354+912888867+912474612+912013646+911480502
3003+910888041+910343507+909979226+909769283+909486330+908922088+908114373
2993+907301028+906725268+906493889+906518396+906568179+906467334+906238835
2983+906003553+905799752+905548921+905140233+904544061+903908089+903480460
2973+903313836+903138255+902635057+901745182+900610491+899340786+897918791
2963+896281926+894494306+892847011+891673352+891015112+890588763+890126709
2953+889689802+889597660+890021450+890675466+891024902+890847273+890454581
2944+890304211+890480944+890614102+890257372+889260702+887742982+885851254
2934+883689243+881331174+878750237+875901320+872967492+870280911+867954068
2924+865891366+864198768+863232748+863160378+863760645+864731400+865970647
2914+867468403+869076729+870517281+871591568+872320386+872884244+873473185
2904+874204307+875119584+876154519+877097567+877715879+878009262+878279097
2894+878866631+879856838+881056540+882207740+883177151+883999519+884780167
2884+885534900+886134527+886483259+886692434+886921765+887101826+887040398
2874+886778305+886575337+886546287+886559148+886473533+886262118+885899949
2864+885306656+884420365+883266030+881951790+880606004+879291188+877993969
2854+876709355+875536847+874697651+874429095+874807965+875686834+876822805
2844+878030953+879198598+880260151+881251318+882347808+883728979+885329884
2834+886799613+887862446+888678031+889633109+890782645+891788146+892430964
2825+892866144+893293196+893699773+894059959+894510367+895162272+895909647
2815+896589706+897238284+898033777+898991031+899869899+900481108+900988849
2805+901734624+902771734+903741657+904301420+904564473+904978600+905797129
2795+906838910+907815232+908720975+909775106+911105535+912634325+914161707
2785+915457071+916369789+916948173+917358205+917702394+918041848+918530392
2775+919307457+920283459+921190610+921859216+922378091+922994739+923847757
2765+924784342+925529861+926047328+926563388+927222203+927930353+928572724
2755+929158530+929717525+930228402+930677914+931096585+931556783+932136766
2745+932790463+933319192+933615198+933817527+934052489+934192302+934097664
2735+933934496+933969625+934156021+934196525+933987286+933731080+933599073
2725+933540589+933510387+933626460+933969881+934417922+934775868+934937053
2715+934889126+934691149+934458618+934284060+934194285+934168434+934153397
2706+934098944+934014352+933925666+933783357+933478969+932923045+932119489
2696+931229423+930502396+930052180+929776714+929519612+929205113+928824579
2686+928385049+927857600+927172165+926328809+925443734+924609272+923802454
2676+922983349+922155158+921314874+920481116+919764520+919273864+918939145
2666+918575568+918159393+917850205+917678142+917492387+917321284+917410547
2656+917793320+918224404+918591884+918984896+919405934+919796386+920214160
2646+920704049+921192530+921658231+922157078+922622779+922891271+922953467
2636+923019502+923305526+923793367+924227587+924389219+924358697+924414622
2626+924699239+925073054+925332907+925495564+925742364+926096599+926344486
2616+926311725+926037986+925691494+925490509+925611637+925995306+926378656
2606+926645100+926946033+927410071+927948718+928411412+928764239+929044760
2597+929231988+929261550+929209656+929332064+929768395+930315169+930676315
2587+930829693+930956132+931096649+931085771+930818879+930402128+929937706
2577+929327521+928482438+927605937+927002470+926678181+926378912+925945332
2567+925423258+924910078+924443929+924009773+923599485+923267838+923020270
2557+922632761+921846866+920859219+920314301+920591111+921305980+921739367
2547+921581382+921050862+920449955+919886352+919362998+918885203+918479202
2537+918237905+918307588+918731057+919367605+919984701+920338232+920264391
2527+919931528+919912523+920688756+922081253+923424863+924289079+924784150
2517+925194758+925655597+926269045+927176452+928321317+929417872+930319712
2507+931141120+931942500+932592421+932994071+933208813+933414085+933855279
2497+934635031+935480499+936024585+936335116+936796658+937462001+937933397
2487+938000264+938066683+938697216+939898070+941086703+941741743+941869654
2478+941819488+941870166+942121573+942637697+943481884+944594819+945747235
2468+946641205+947038631+946927805+946667952+946792919+947510156+948575420
2458+949756630+951127947+952696985+954028182+954579946+954355990+953948325
2448+953991069+954734988+955993111+957262560+958062276+958328528+958346125
2438+958363209+958548197+959083709+959928089+960736379+961284624+961642699
2428+961869726+961978185+962172132+962677889+963400628+964073713+964628037
2418+965163101+965670458+966004601+966132640+966261063+966611715+967129118
2408+967540430+967676403+967627453+967617663+967839508+968371244+969146325
2398+969990193+970745885+971373987+971926775+972441171+972869312+973130509
2388+973251317+973413526+973794380+974375642+974965863+975399635+975706839
2378+976118343+976848697+977791297+978535024+978852978+979067912+979658965
2368+980563813+981223333+981406785+981582047+982136243+982653198+982531494
2359+981968851+981650897+981696328+981626454+981273435+981088127+981533160
2349+982641168+984078648+985294604+985846944+985884185+985905045+986031292
2339+986095600+986165090+986437293+986848285+987240081+987702582+988308225
2329+988665019+988214291+987004350+985893527+985842977+986915728+988199190
2319+988953731+989375217+989993784+990919492+991912706+992730147+993181387
2309+993177612+992899714+992706856+992820178+993183883+993547972+993634547
2299+993384548+993076704+993052900+993357673+993742686+993963635+994036773
2289+994242749+994821388+995710303+996707740+997664482+998321762+998388757
2279+998054806+997959657+998471109+999419852+1000466816+1001294943+1001676245
2269+1001687698+1001603043+1001536560+1001512181+1001713677+1002241446
2261+1002828724+1003200300+1003543913+1004268700+1005371141+1006397949
2252+1007035841+1007359554+1007533600+1007703998+1008060793+1008498916
2244+1008395832+1007284496+1005676169+1004773177+1005324046+1006931349
2235+1008514721+1009385655+1009735987+1010148962+1010909390+1011822684
2227+1012529426+1012955583+1013352882+1013769633+1013838356+1013437026
2218+1013092645+1013273538+1013703278+1013814936+1013598274+1013578502
2210+1014043372+1014718184+1015339311+1016076256+1017010090+1017627377
2201+1017290163+1016030121+1014703595+1014428001+1015715238+1018015398
2193+1020185343+1021265453+1020745810+1018706335+1016131157+1014578819
2184+1015004976+1016884226+1018474892+1018203649+1016098843+1013697007
2176+1012593350+1013306747+1015186381+1016921083+1017469520+1017087195
2167+1017253754+1019055259+1021684635+1023147838+1022752267+1022300003
2159+1023932517+1027136565+1029422200+1029504936+1028260890+1027139253
2150+1026501809+1025733702+1024670358+1023939620+1023738123+1023491899
2142+1023035092+1022938151+1023420297+1023898924+1023805438+1023190262
2133+1022479744+1022073807+1022158719+1022576941+1022893616+1022812607
2125+1022527543+1022505979+1022907629+1023354134+1023379281+1023057872
2116+1022987933+1023503097+1024140221+1024195826+1023622370+1023035028
2108+1022964194+1023326683+1023542257+1023130434+1022226418+1021435724
2099+1021303397+1022063761+1023577642+1025215659+1026159220+1026065926
2091+1025255844+1024329112+1023825466+1023999512+1024605730+1024966428
2082+1024545198+1023526836+1022602216+1022165757+1022077263+1022187769
2074+1022536757+1022998491+1023358997+1023781507+1024639068+1025859118
2065+1026836720+1027062980+1026632535+1026064262+1025858478+1026356941
2057+1027644626+1029220703+1030126063+1029793712+1028429497+1026512367
2048+1024646234+1023866098+1025045261+1027741055+1030365568+1031702268
2040+1031863580+1031576980+1031092915+1030334534+1029696387+1029828329
2031+1030619023+1031230808+1031268880+1031162853+1031276559+1031426546
2023+1031639432+1032544728+1034365237+1036136924+1036578182+1035523731
2014+1034288004+1034630849+1037058217+1039974832+1041160841+1040190023
2006+1038465622+1037139929+1036306235+1035886221+1035985338+1036501077
1997+1037196878+1038061605+1038973811+1039197000+1038031979+1035965821
1989+1034281541+1033703030+1034169051+1035347062+1036702318+1037627514
1980+1038181646+1039219012+1041031203+1042310441+1041648362+1039663469
1972+1038388070+1038748767+1039551427+1039188618+1037877449+1037330228
1963+1038358507+1039976624+1040914553+1041057118+1040927543+1040475151
1955+1039166158+1036898376+1034365237+1032606412+1032283403+1033188634
1946+1034416747+1035152476+1035313468+1035441060+1036050285+1037137049
1938+1038227717+1038746720+1038476436+1037719592+1036952317+1036540749
1929+1036750948+1037537995+1038315188+1038385382+1037606974+1036455710
1921+1035566219+1035345782+1035784609+1036423012+1036808985+1036962491
1912+1037190351+1037675056+1038251968+1038536009+1038399907+1038215623
1904+1038425054+1038964213+1039318704+1039169101+1038745248+1038442395
1895+1038397540+1038628983+1039197640+1039941431+1040432407+1040496651
1887+1040430104+1040556671+1040984300+1041618608+1042137803+1042241847
1878+1042043549+1041957870+1042233784+1042801098+1043471559+1044112970
1870+1044677404+1045142722+1045449606+1045533238+1045402831+1045178171
1861+1045077518+1045292261+1045791811+1046284259+1046474238+1046408971
1853+1046424776+1046693652+1047053646+1047353939+1047648218+1047993942
1844+1048349521+1048670227+1048891176+1048923425+1048752835+1048425282
1836+1047999509+1047614368+1047452544+1047531377+1047622431+1047534704
1827+1047460350+1047739848+1048362447+1048986581+1049491571+1050095037
1819+1050859112+1051515624+1051881825+1052137391+1052536738+1053052797
1810+1053464173+1053762099+1054178338+1054762800+1055337024+1055845533
1802+1056430571+1057159389+1057924744+1058614146+1059208846+1059751012
1793+1060299897+1060898181+1061557572+1062240831+1062893504+1063519302
1785+1064146444+1064728795+1065202366+1065600881+1066008225+1066497026
1776+1067100109+1067722963+1068191800+1068485375+1068740109+1069001690
1768+1069302496+1069726797+1070259877+1070833078+1071427138+1071998930
1759+1072470711+1072782778+1072870505+1072801270+1072844142+1073164272
1751+1073532712+1073741823+1073365640+1072645269+1071811831+1070871406
1742+1069635423+1067861560+1065543932+1063021031+1060256386+1056030265
1734+1048858478+1039855880+1030998981+1021759948+1011324669+999866805+987286983
1724+973435346+959494253+946696746+934265631+920380400+905535740+893097075
1714+884280040+877610683+871904083+866704840+861219892+854044906+844900511
1704+835455247+825963336+813538556+796896037+780148836+764718881+748188149
1694+732361984+720065563+709794028+699546552+690102504+682444283+674951791
1684+666036471+658541675+655327645+655125573+656380624+658906596+663264915
1674+669513234+677029850+685888924+696615283+708356292+719393310+729651344
1664+740217990+751629911+763092126+773539691+782901260+791397780+799202276
1655+807333556+817083145+826332864+833149904+839070606+845362821+851437605
1645+855987695+858978537+860883445+861914157+861961188+860225078+855571392
1635+849004543+843379335+839243373+835572216+831886790+828701682+826711286
1625+825840096+825691005+826361210+828077292+830688815+833782228+836290092
1615+836429265+832830990+824562072+811304111+794784129+778839267+767147720
1605+761564104+762346031+768681309+778917651+791178751+804152736+817268581
1595+830308793+843018253+855107035+866401603+876716201+885676120+892806251
1585+897648252+899692974+898549389+894499617+888276638+879973487+869871903
1575+861422284+858413335+860610603+866938714+876473369+886337495+893493349
1565+897096488+897505944+895302149+889640532+877178063+860251952+850468706
1555+849008767+851603205+856425690+862830074+870171108+877573826+884519801
1545+891264983+898133598+905042716+912202729+919638145+925914874+930573999
1536+934599902+938703039+942735662+946058150+948523718+950410263+951803975
1526+952536249+952427214+951249843+949101973+947169294+946738466+948134482
1516+951160389+955371536+960263703+965397295+970388835+975086032+979231081
1506+981590045+981443130+979210221+974888119+968403750+960816748+954968991
1496+953798787+957274462+963496802+971434583+980630040+989853715+997713752
1486+1004043335+1009386999+1014223113+1018700001+1022638881+1025923873
1477+1028716225+1031146408+1032987010+1033700919+1033078064+1031736821
1469+1030306764+1028899422+1027492144+1026210666+1025236263+1024551213
1460+1023833593+1022347098+1019080023+1014225096+1009240467+1004105275
1452+997761103+989365683+978472956+965385906+951536507+938230683+925463314
1442+913133876+901956981+892085688+882374107+872621447+865135929+861268970
1432+860090896+860585903+862105223+863831031+864980503+865194286+864622045
1422+863738249+862843640+862021720+861754380+862738700+865011857+868120564
1412+871499298+874458977+876192079+875912646+872994558+867411902+860401619
1402+853714026+848190110+844078463+841768193+841452542+842899429+845745530
1392+849504798+853710571+858212606+863079242+868289299+873668475+879143633
1383+884782022+890565152+896343802+902070431+908001051+914586585+922034030
1373+929960550+937815980+945361070+952415632+958798389+964755180+970852489
1363+977219632+983244699+988322686+992475157+996054812+999327966+1002341651
1353+1004941145+1006833000+1007721723+1007517027+1006324043+1004194026
1344+1001059789+996823942+991345905+984609617+977073165+969403363+961722747
1334+953554546+944354994+933885162+922297659+910056843+897769380+886018389
1324+875288767+865951258+858237305+852270595+848141607+845803759+844848041
1315+844500141+843849643+842089346+838726609+833750747+827691703+821442360
1305+815789637+810964657+806619391+802215641+797436540+792310435+787087644
1295+782109478+777795438+774619353+772933729+772806842+774112699+776670665
1285+780131175+783882252+787367845+790474632+793396751+796167411+798550883
1275+800391037+801875100+803422382+805451811+808308406+812260021+817367762
1265+823367937+829834581+836422738+842797560+848435950+852712749+855119640
1255+855333231+853229512+848908818+842650133+834888893+826230611+817306974
1245+808535562+800132527+792380373+785761950+780786471+777730939+776549921
1235+777007304+778887385+782064878+786380454+791526651+797110588+802825315
1225+808521037+814100622+819398406+824228889+828546384+832518347+836421074
1215+840436676+844530791+848555735+852484377+856451925+860522876+864538733
1205+868270806+871594319+874416937+876537612+877735715+878050725+877894340
1196+877777115+877936060+878253118+878373223+877817875+876247493+873880274
1186+871589392+870504291+871516126+874975420+880611699+887731144+895537047
1176+903309357+910528559+917029757+922926016+928298538+933125821+937474990
1166+941534615+945445726+949237755+952871735+956224106+959076479+961247448
1156+962766384+963858011+964749549+965560016+966333561+967069610+967776032
1146+968619004+969920894+971859908+974192510+976251437+977110278+975863609
1136+972039394+965877586+958232419+950229754+942888912+936791475+931940644
1126+927911477+924168910+920355893+916416244+912493424+908775237+905517055
1116+903072987+901635763+900956600+900562180+900351534+900858827+902787283
1106+906266541+910693199+915379710+920187926+925375715+931041811+936970641
1096+942888272+948633585+954124291+959302866+964141604+968668210+972973740
1086+977144127+981149875+984836773+988088619+990982392+993682410+996189697
1077+998343902+1000116356+1001741896+1003506544+1005510890+1007635532
1068+1009658498+1011453540+1013119520+1014842960+1016649328+1018419671
1060+1020126603+1021896306+1023804670+1025732743+1027503918+1029108981
1051+1030696704+1032367866+1034098089+1035837526+1037546377+1039162383
1043+1040689893+1042265394+1043983908+1045731791+1047340694+1048821685
1034+1050293079+1051743036+1053032129+1054116462+1055085041+1055864793
1026+1056002110+1054944141+1052616402+1049688908+1047283105+1046386895
1017+1047373199+1049782202+1052213408+1052159467+1046247147+1031833506
1009+1009747952+985806888+968503250+963638982+970474578+983098551+995439891
999+1004883492+1011859413+1017439254+1022006364+1025504947+1027983952
990+1029673607+1030815081+1031551705+1031910803+1031879641+1031571477
982+1031290252+1031346561+1031822628+1032556885+1033311234+1033913613
973+1034310464+1034539539+1034694197+1034928391+1035359923+1035864017
965+1036110049+1035956927+1035643580+1035487387+1035558157+1035683828
956+1035583368+1035047344+1034163868+1033244367+1032371897+1031253011
948+1029707136+1028044740+1026688460+1025587619+1024242281+1022224114
939+1019446287+1015942010+1011619524+1006385151+1000411723+994114262+987861719
929+981833582+976158911+971058209+966793503+963536986+961284752+959833067
919+958908767+958425917+958527913+959259419+960322124+961318410+962124781
909+962860062+963613515+964376374+965148448+965938822+966731243+967591236
899+968743524+970350379+972215423+973927730+975346205+976671515+977964767
890+978942369+979373581+979324055+978863600+977862323+976117703+973301740
880+968695469+961330376+950645353+937177128+922836754+910458749+902627058
870+900600573+904214973+912497968+924108250+937433590+950744853+962489574
860+971603894+977761735+981336207+982989517+983343624+983055616+982952788
850+983809773+985954827+989188117+993096924+997307624+1001320218+1004276122
840+1005170924+1003465592+999630947+995142285+991632313+989786145+989225934
830+989495449+990727849+993286199+997209083+1002105345+1007251095+1011734061
820+1014716712+1015712231+1014676720+1011786915+1007080952+1000543729+992715046
810+984907735+978551085+974475783+972801869+973000102+973757331+973194752
800+969924222+964213078+957973717+953378388+951383449+951434127+952346525
790+953465603+955124928+958034761+962207197+966470878+969139414+969366698
781+967801435+965614469+962984709+959087996+953545908+947143635+940797607
771+934312982+926499784+916182626+902739420+885861364+865382537+841881643
761+817812411+797992208+788063390+791245746+806275331+828748713+854054952
751+878751709+900321587+917055288+928161924+933507251+933702605+930824318
741+928220217+928656484+932513653+937835816+942001661+943674423+943719214
731+944308347+947001135+951697436+957162291+962024320+965472609+967688497
721+969751519+972747224+976802882+981106299+984755828+987286216+988197078
711+986261967+980217704+970703334+960884318+954518838+953577326+957675663
701+965068271+973845762+982748284+991398695+999808576+1007797100+1015086432
691+1021686171+1027744063+1032989697+1036744998+1038859530+1040342121
683+1042566712+1045955491+1049743426+1052920279+1055197723+1057108007
674+1059226954+1061318707+1061989616+1058451041+1047878829+1033619526
666+1022670491+1014130011+1003949338+992034795+982265562+978020117+979400776
656+984689153+992366762+1001465918+1010992254+1019838019+1027273115+1033244239
646+1038180430+1042500420+1046280804+1049338512+1051341130+1051570718
637+1049110397+1044303717+1039951157+1039555074+1043770957+1049739522
629+1054326725+1056900943+1058583176+1060139737+1061556101+1062835851
620+1064157578+1065505475+1066757583+1067925996+1068965601+1069705169
612+1070249319+1071014354+1072119227+1073129654+1073532712+1073443257
603+1072863466+1072292313+1071943005+1071335764+1069754632+1066974565
595+1063123603+1058161626+1052051072+1045265706+1038609722+1032638086
586+1027742399+1024613729+1023906154+1025181170+1026655763+1026468919
578+1024071050+1020162244+1015811219+1011953091+1009340736+1008639432
569+1010392691+1014625658+1020505409+1026673423+1031838753+1035096935
561+1036200336+1035638205+1034155102+1032296904+1030499814+1029036867
552+1027575520+1025150968+1020750673+1013950334+1005249565+995879742+987190106
543+980206955+975466054+972784528+971393759+970715939+970723362+971426777
533+972567803+973985318+976062866+979616861+984839268+990164567+993289526
523+993652400+992538441+991171283+989816923+988294275+986565588+984827111
513+983533283+983409211+985005444+988060465+991542794+994468241+996609584
503+998623015+1001703823+1006487403+1012179607+1017626802+1022945766+1029258840
493+1036929602+1044793478+1051260762+1055852124+1059534798+1063600694
484+1068124037+1071773758+1073384965+1072918047+1070696592+1066743762
476+1061190604+1054758449+1048479352+1042843714+1037544522+1032555158
467+1028549282+1025347730+1020908210+1013312762+1003410947+994232958+988245581
458+986253201+988160477+993669804+1002227945+1012598789+1023039955+1032197659
448+1039460565+1045111304+1050447097+1056079983+1059814296+1058696370
439+1053339525+1047274850+1042109649+1035431845+1024812858+1011729646+999592235
429+990296765+983982475+980574051+980271902+982884257+987480930+993084062
419+999161918+1005212964+1010987583+1016907326+1022795011+1027269659+1029508903
409+1030996549+1034298242+1040766614+1049668688+1058581832+1064924341
401+1067908783+1068587179+1067658080+1064038817+1057345657+1050031881
392+1045257323+1043981732+1044617640+1045768328+1048139578+1052181543
384+1055546583+1056201816+1055590671+1056070769+1058442659+1062657902
375+1068383507+1073532712
##END=
