##TITLE=X8107
##JCAMP-DX=4.24
##DATA TYPE=INFRARED SPECTRUM
##DATE=30/10/2018
##SAMPLING PROCEDURE=Diamant-ATR
##ORIGIN=ComPlat
##XUNITS=1/CM
##YUNITS=TRANSMITTANCE
##RESOLUTION=4
##FIRSTX=3997.453
##LASTX=373.96442
##DELTAX=-1.4165319
##MAXY=0.98423493
##MINY=0.4121899
##XFACTOR=1
##YFACTOR=9.1664021e-010
##NPOINTS=2559
##FIRSTY=0.96636105
##XYDATA=(X++(Y..Y))
3997+1054242478+1054774059+1055246727+1055261162+1054961656+1054624696
3989+1054273300+1053947264+1053945704+1054387940+1054888958+1055088065
3980+1055112059+1055115636+1054876343+1054283964+1053699649+1053409702
3972+1053246229+1053113902+1053309303+1053927367+1054443406+1054279868
3963+1053524536+1052869538+1052920453+1053609004+1054270829+1054224662
3955+1053321463+1052045930+1051046494+1050608939+1050665511+1051046298
3946+1051437490+1051496337+1051402311+1051821073+1052859459+1053777289
3938+1054006047+1053511401+1052407534+1051121272+1050598015+1051315047
3929+1052384190+1052632066+1051843376+1050672859+1050047317+1050299810
3921+1050748548+1050537022+1049801327+1049670822+1050763699+1052422230
3912+1053889717+1055094763+1055952379+1055764196+1053961830+1051113860
3904+1048709230+1047742827+1048150209+1049732856+1052089432+1054158986
3895+1054983245+1054342292+1052816673+1051694469+1051703377+1051994170
3887+1051534442+1050344287+1049032535+1047682159+1046439658+1046497856
3878+1048301913+1050208255+1050659919+1049610674+1047962417+1046623029
3870+1046549681+1048202099+1050198501+1050747963+1049768685+1048877125
3861+1049200495+1050082626+1050536762+1050184911+1048814896+1046286979
3853+1044253774+1045432809+1048766388+1051940654+1053942062+1054436058
3844+1053395591+1051266994+1048971542+1047348385+1046909335+1047918005
3836+1049884364+1051617804+1052259017+1051911523+1051438010+1051512919
3827+1052060625+1052583622+1052556507+1051597647+1049880203+1048633151
3819+1048714628+1049454223+1050470436+1052132153+1054114119+1055337372
3810+1055061600+1053366330+1051493996+1051106967+1051772759+1051323566
3802+1049141908+1047460878+1048309391+1050849532+1053601981+1055715363
3793+1056836981+1057139088+1057057871+1056872420+1056560559+1056065458
3785+1055607421+1055360846+1054882391+1053670062+1052364358+1052320531
3776+1053595869+1054998266+1055660091+1055400966+1054510122+1053662389
3768+1053333687+1053423617+1053917223+1054840254+1055477371+1054777310
3759+1052665944+1050584880+1049856339+1050022283+1049619777+1047516344
3751+1044297081+1042475727+1042719376+1043169415+1042603371+1041669350
3742+1041812210+1042647198+1042636469+1040861153+1037774410+1035290320
3734+1035094075+1036980714+1039858531+1042670282+1044460619+1044828921
3725+1044332714+1044013311+1044385320+1045312318+1046520095+1047840300
3717+1049099901+1049791769+1049067519+1046604042+1044036980+1044054472
3708+1046602091+1049430099+1050979258+1050825148+1049396611+1047895766
3700+1047410484+1047838609+1048442822+1048838826+1049209209+1049915056
3691+1050908835+1051553755+1051401661+1051076470+1051255029+1051679513
3683+1051688161+1050939202+1049734677+1048488990+1047091145+1045806119
3674+1045945337+1047144141+1047470242+1046828379+1047552433+1050612126
3666+1053898626+1055573673+1055478866+1054489769+1053365224+1052209793
3657+1051282535+1051477220+1052640584+1052757500+1050146351+1045296907
3649+1041521028+1041753168+1044593985+1047860457+1050688985+1052638959
3640+1053638200+1054099033+1054217249+1053505549+1051563898+1048815351
3632+1045732250+1042057615+1038476682+1038004664+1041167291+1044868326
3623+1047195446+1048065287+1048059109+1047891865+1048105537+1048532362
3615+1048681920+1048615009+1048790187+1049251670+1049840993+1050835617
3606+1052171818+1052883974+1052397195+1051221866+1050121446+1049234829
3598+1048235327+1047039320+1046126107+1046235350+1047314767+1048142081
3589+1047608355+1046300895+1046525427+1049177671+1052345175+1054118411
3581+1054252297+1053848166+1053915077+1054274146+1054394637+1054534701
3572+1054977588+1054937532+1053348448+1050506655+1048508953+1048959382
3564+1050917159+1052935408+1054559216+1055756198+1056503597+1056762137
3555+1056365484+1055233006+1053975875+1053635339+1054317257+1054996250
3547+1054834857+1054034138+1053509970+1054073673+1055848534+1058032078
3538+1059365613+1059269181+1058333274+1057427929+1056795430+1056266581
3530+1055739617+1055174093+1054473318+1053733137+1053540207+1054567734
3521+1056574475+1058285351+1058725246+1058275857+1058008864+1058195421
3513+1058072263+1057109696+1055910698+1055495253+1055958296+1056407490
3504+1056165857+1055577119+1055485434+1056024492+1056512766+1056482074
3496+1056175155+1056042959+1056195183+1056435321+1056533834+1056439482
3488+1056377058+1056563940+1056796730+1056675003+1056221583+1055867066
3479+1055799505+1055866416+1056134124+1056876646+1057896110+1058508062
3471+1058399860+1057852999+1057084272+1056091013+1055089756+1054391711
3462+1053946029+1053581043+1053471476+1053924506+1054928689+1056120209
3454+1057042460+1057435667+1057375454+1057061773+1056526356+1055706324
3445+1054717422+1053895764+1053599900+1053927627+1054525273+1054857551
3437+1054742457+1054439895+1054219395+1054093571+1054021523+1054081216
3428+1054326686+1054643163+1054812684+1054623591+1054002926+1053163712
3420+1052471129+1052112190+1052078832+1052319490+1052625629+1052648843
3411+1052351158+1052171103+1052501626+1053214041+1053833210+1054035959
3403+1053884385+1053576296+1053103563+1052357530+1051467791+1050739900
3394+1050324975+1050149472+1050073393+1050027810+1050072417+1050222885
3386+1050242198+1049932418+1049654631+1050042376+1051065091+1051879791
3377+1051805467+1051061774+1050327641+1049952251+1049791249+1049526596
3369+1049006850+1048428387+1048097864+1047995710+1047944080+1048149299
3360+1048899429+1049737473+1049739423+1048708125+1047409898+1046570229
3352+1046262465+1046285484+1046506764+1046707822+1046577382+1046029610
3343+1045219072+1044214694+1042955872+1041470829+1039887532+1038368220
3335+1037182617+1036589392+1036466625+1036246190+1035353135+1033676592
3326+1031587595+1029524803+1027596938+1025559570+1023067352+1019965719
3318+1016417428+1012734210+1009128762+1005677423+1002248193+998329389+993454000
3308+988020305+983082362+979129550+975653697+971951361+967833775+963462981
3298+958811344+953456720+946907454+938921784+929202153+916882883+900794886
3288+880421474+856604006+831727604+809641365+794859008+790537243+796416230
3278+808747009+822544300+834319115+843139448+849737808+855210388+860473521
3268+866171153+872529115+879456696+886986866+895298313+904134187+912687072
3258+920311463+927012172+933130126+938913916+944462184+949819735+955085209
3248+960411872+965752581+970685777+974839322+978551542+982628877+987194096
3238+991271627+993987531+995762002+997722834+1000359538+1003277476+1005845188
3228+1007710824+1009072060+1010596834+1012741753+1015186762+1017277255
3220+1018861072+1020309442+1021850472+1023328428+1024638164+1025964677
3211+1027435350+1028878128+1030115946+1031237044+1032413869+1033635431
3203+1034689033+1035352159+1035670782+1036043701+1036867960+1038085555
3194+1039242482+1039983769+1040344723+1040524128+1040493176+1040077665
3186+1039473972+1039271484+1039716516+1040342578+1040626152+1040648716
3177+1040816871+1041201885+1041497424+1041466147+1041130682+1040651512
3169+1040307399+1040465215+1041259367+1042382221+1043410853+1044179255
3160+1044687491+1044915730+1044891020+1044786915+1044903050+1045495103
3152+1046448307+1047277442+1047712200+1047965733+1048200669+1048282275
3143+1048231296+1048224143+1048130312+1047784118+1047549832+1047878534
3135+1048554861+1048970892+1048905151+1048691674+1048805923+1049407730
3126+1050143099+1050473622+1050271784+1049943277+1049964150+1050419066
3118+1050945249+1051126084+1050957864+1050769421+1050692172+1050528959
3109+1050198696+1050047513+1050533315+1051591599+1052490441+1052567171
3101+1051986887+1051419673+1051201774+1051236302+1051399515+1051586852
3092+1051644009+1051566239+1051541400+1051679903+1051894876+1052018879
3084+1051856316+1051221606+1050139393+1048993585+1048276228+1048112365
3075+1048235067+1048485544+1048959512+1049517558+1049661458+1049189636
3067+1048535418+1048304969+1048789146+1049846585+1050946485+1051521567
3058+1051468637+1051046103+1050347343+1049351679+1048340863+1047740226
3050+1047622270+1047691067+1047693278+1047655693+1047688271+1047686905
3041+1047477069+1047221716+1047262681+1047518490+1047552368+1047280368
3033+1047113709+1047394682+1048023150+1048594786+1048793373+1048708125
3024+1048671386+1048789667+1048955090+1049168438+1049318581+1048940135
3016+1047883411+1046892689+1046819730+1047552368+1048252429+1048331760
3007+1047781647+1046854844+1045785376+1044695229+1043595199+1042447571
2999+1041196553+1039778159+1038189140+1036466235+1034507938+1032005576
2990+1028568088+1023777817+1017157154+1008200983+996524616+982305377+966883043
2980+952634867+941815012+935571299+934031894+936744482+942728420+950550617
2970+958756788+966223883+972167245+976095022+977933153+978122571+977319771
2961+975889933+973953745+972055662+971400468+973082733+977112080+982323259
2951+987268875+991228775+994359800+996965617+998898619+999747977+999353404
2941+997965963+996013129+993871461+991919602+990587497+990080561+990210872
2931+990783938+991967330+994037340+996966332+1000360709+1003674844+1006593432
2921+1009257056+1011860402+1014085172+1015305498+1015236051+1014057861
2912+1012080902+1009509028+1006429308+1003031225+999926536+998066492+998161364
2902+1000236055+1003678160+1007603792+1011322059+1014615647+1017563951
2894+1020169313+1022296480+1023848759+1024828948+1025280548+1025279182
2885+1024915236+1024242031+1023292925+1022123968+1020742899+1019024480
2877+1016827932+1014266852+1011831401+1010191597+1009820759+1010720967
2868+1012486529+1014644323+1016939320+1019353572+1021977531+1024854633
2860+1027814512+1030477161+1032558290+1034144708+1035566222+1037013681
2851+1038347802+1039267127+1039659684+1039761968+1039931359+1040308764
2843+1040744238+1040979043+1040901729+1040684675+1040623941+1040833647
2834+1041246817+1041884778+1042866463+1044123854+1045383911+1046498246
2826+1047562512+1048615269+1049436276+1049803213+1049762963+1049491288
2817+1049112646+1048822569+1048868737+1049230927+1049634343+1049983983
2809+1050470436+1051212113+1052048596+1052675893+1052871749+1052659832
2800+1052291920+1052018099+1051928234+1052006069+1052193277+1052386141
2792+1052444729+1052270006+1051941629+1051741482+1051896372+1052325993
2783+1052745795+1052924029+1052781039+1052416118+1052091317+1052008605
2775+1052074151+1052007825+1051720024+1051470002+1051542180+1051883172
2766+1052280540+1052787931+1053582734+1054450299+1054875498+1054720088
2758+1054429426+1054457061+1054759883+1054986626+1054983570+1054908531
2749+1054909636+1054948521+1054997680+1055178580+1055552930+1055900554
2741+1055895742+1055526074+1055191130+1055269030+1055681940+1056027483
2732+1056052713+1055818167+1055467227+1055087545+1054807222+1054783553
2724+1054993324+1055215189+1055308370+1055358375+1055493302+1055716338
2715+1055914079+1055910828+1055603975+1055164860+1054970565+1055240354
2707+1055835399+1056417179+1056705955+1056642816+1056364378+1055983786
2698+1055477241+1054901053+1054546276+1054621380+1054916984+1055083774
2690+1055126755+1055264673+1055433154+1055371770+1055140671+1055084359
2681+1055273257+1055407989+1055294390+1055058609+1054870816+1054768402
2673+1054803125+1055090926+1055620556+1056179902+1056547814+1056653675
2664+1056540922+1056311058+1056099336+1055975593+1055865115+1055679794
2656+1055532837+1055709120+1056327704+1057060797+1057367066+1057084727
2647+1056632542+1056507043+1056756350+1057064829+1057157035+1056970803
2639+1056560039+1055989118+1055314938+1054662216+1054304838+1054526573
2630+1055287497+1056183218+1056907338+1057571180+1058323780+1058879615
2622+1058840665+1058382498+1058132216+1058320139+1058543370+1058494211
2614+1058363966+1058325081+1058240158+1058151854+1058431007+1059161109
2605+1059951880+1060509925+1060872375+1061032467+1060840383+1060376299
2597+1060106509+1060464473+1061315066+1062030278+1062198433+1062038211
2588+1061954328+1061963822+1061821677+1061511832+1061307718+1061337110
2580+1061380807+1061282684+1061257389+1061460658+1061628227+1061568989
2571+1061544280+1061692862+1061677386+1061446027+1061660805+1062726437
2563+1063935319+1064188657+1063208858+1061569315+1059965015+1058909462
2554+1058685515+1059105122+1059613554+1059887765+1060036022+1060175111
2546+1060239551+1060267967+1060480794+1060980837+1061561967+1061856335
2537+1061661585+1061160176+1060740699+1060565652+1060533334+1060644657
2529+1061010554+1061454870+1061595260+1061376385+1061007432+1060456865
2520+1059639434+1058985736+1059111235+1059919172+1060583859+1060505048
2512+1059992845+1059912669+1060718331+1061968179+1062909092+1063306396
2503+1063372331+1063148125+1062488575+1061566453+1060910415+1060875431
2495+1061328071+1061858156+1062092247+1061829220+1061161737+1060538796
2486+1060487101+1061179229+1062352217+1063514411+1064149707+1063998913
2478+1063320766+1062634426+1062120077+1061520481+1060706626+1060093309
2469+1060266276+1061181115+1062020914+1062158767+1062000886+1062317884
2461+1062965794+1063040833+1062253119+1061312270+1060828223+1060653501
2452+1060510185+1060488467+1060644007+1060739074+1060620923+1060367455
2444+1060018920+1059608222+1059361126+1059429988+1059532337+1059249218
2435+1058670625+1058420018+1058947046+1060018920+1061025444+1061571135
2427+1061686620+1061692277+1061896456+1062262873+1062530646+1062701207
2418+1062940759+1063037192+1062591705+1061681353+1060747137+1060070941
2410+1059799721+1060061187+1060714624+1061398819+1061900683+1062115135
2401+1061803080+1060863207+1059699777+1058941974+1058831107+1059117477
2393+1059504247+1059944792+1060427213+1060571699+1059531232+1056466793
2384+1051275772+1044666098+1037325672+1029321924+1020564860+1011409648
2376+1002368619+993529819+984561684+975084337+965024300+954800464+945106974
2366+936566183+929731262+925051339+922592349+922245245+924360577+929540154
2356+937643260+947778271+959072095+970193862+978692321+982071742+979377231
2346+972270244+964847301+960640761+959876130+960933309+962608616+964518144
2336+966582562+968508216+969998787+971362559+973130917+975069706+976471973
2326+977381479+978718006+981292806+985224030+990290462+996195199+1002182778
2316+1007124232+1010446236+1012594406+1014428374+1016552810+1019315273
2308+1022953949+1027345876+1031720896+1035098496+1037304149+1039243198
2299+1041807984+1044816501+1047328877+1048687512+1049053083+1049246403
2291+1050105125+1051745839+1053590992+1055190935+1056571548+1057695573
2282+1058261421+1058220781+1057948651+1057744797+1057593223+1057451533
2274+1057399448+1057468960+1057587566+1057765020+1058152244+1058776095
2265+1059318405+1059339798+1058748265+1057929728+1057380981+1057192863
2257+1056970543+1056506393+1056381155+1057194099+1058367933+1058975137
2248+1059612383+1061680573+1064733632+1066625993+1066707795+1066751687
2240+1068010443+1069285456+1068912537+1067278391+1066163600+1066436055
2231+1067491803+1068442795+1068877033+1068780016+1068453134+1068384403
2223+1068903173+1069930570+1070789552+1070370855+1068189783+1065238552
2214+1063111190+1062519527+1063133559+1064419951+1066086415+1067825382
2206+1068922226+1068533961+1066711436+1064616262+1063273168+1062760380
2197+1062786845+1063184799+1063719370+1064075318+1063977585+1063065673
2189+1061038840+1058219675+1055824085+1055437510+1057729516+1061452334
2180+1064483286+1066080823+1066944942+1066958207+1064721798+1060154173
2172+1055750736+1053977956+1054771328+1056521349+1058229104+1059706020
2163+1061131630+1063178101+1065721429+1066468958+1063802928+1059952790
2155+1058227153+1059630525+1062976718+1066156772+1067537060+1067151331
2146+1066119643+1064994188+1063618907+1061806071+1059216120+1055815371
2138+1053134190+1053465298+1057052409+1061427170+1064059972+1064415659
2129+1063286238+1061471322+1059430248+1057533205+1056337588+1056416529
2121+1057584705+1058645590+1058659765+1058169866+1058307134+1059070984
2112+1059483374+1059188420+1058902439+1059255656+1059936599+1060191562
2104+1059855057+1059600484+1060091619+1061116154+1061911347+1062237123
2095+1062539164+1062991869+1063144028+1062760705+1062298116+1062290248
2087+1062828981+1063672682+1064233134+1063693360+1062033464+1060607268
2078+1060723923+1061983850+1062963193+1063152936+1063101437+1063007865
2070+1062470173+1061598056+1061316432+1062306309+1064145025+1065650682
2061+1065804336+1064336654+1061908160+1059961568+1059787691+1060957753
2053+1061076619+1058269745+1053813768+1051219395+1052542592+1056711548
2044+1061525683+1065711220+1068770652+1070207968+1069734194+1067967007
2036+1066319790+1065838994+1066378833+1067170709+1067660608+1067420145
2027+1066134989+1064447327+1064034417+1065847057+1068588582+1069924328
2019+1069023535+1067172790+1066451401+1068204934+1071627791+1073741823
2010+1072483652+1069466096+1067573345+1066962433+1065874823+1063997743
2002+1062788146+1063476306+1065676041+1067423657+1066897994+1064537581
1993+1062793217+1063390928+1065329913+1066194422+1064800543+1061820962
1985+1058517360+1055619971+1053537801+1053196094+1055934042+1061700470
1976+1067554292+1070051062+1069082708+1067040594+1065069682+1062723576
1968+1060546209+1059945637+1060452573+1060131934+1058844892+1058636811
1959+1060638805+1063279475+1064121681+1062418803+1059737752+1058584336
1951+1060228041+1063499911+1065849073+1065725721+1063681981+1061274686
1942+1059619536+1059077487+1059639824+1060953982+1062102130+1062141666
1934+1061055356+1059686057+1058870577+1058973707+1059753423+1060372527
1925+1060192277+1059701338+1059903046+1060779845+1061522496+1062009145
1917+1062785349+1063657661+1063683216+1062697435+1061864659+1062334335
1908+1063743950+1064864398+1065231139+1065117931+1064590317+1063576900
1900+1062417177+1061579198+1061162777+1061008863+1060819445+1060102738
1891+1058600722+1056942452+1056426152+1057760988+1060337088+1062633971
1883+1063263674+1062161889+1060499001+1059410415+1059281536+1059895828
1874+1060683542+1061074994+1060884145+1060250995+1059523754+1059320616
1866+1060049352+1061378856+1062540530+1062981075+1062775271+1062458273
1857+1062450925+1062736516+1063067103+1063221668+1062987903+1062253444
1849+1061207905+1060138957+1059154346+1058508517+1058662691+1059426607
1840+1060043695+1060057740+1059433954+1058168175+1056119754+1053281017
1832+1050186536+1048151835+1048337482+1050219114+1052388547+1054163018
1823+1055648127+1056953636+1057945789+1058698520+1059537735+1060409461
1815+1060786932+1060407771+1059577010+1058786044+1058388741+1058509102
1806+1058894766+1058967919+1058361755+1057415314+1056867738+1056952921
1798+1057207169+1057084337+1056216251+1054619819+1053345327+1053717466
1789+1055301218+1056655301+1057002535+1056421600+1055440696+1054589257
1781+1054121532+1053932569+1053693861+1053061492+1051740637+1049782015
1772+1048092597+1047717532+1048488275+1049622573+1050456586+1050435517
1764+1049407015+1047934391+1046857445+1046243933+1045612409+1044902920
1755+1044264763+1043327816+1041394749+1038414257+1035738474+1034803672
1747+1035315225+1036106516+1036499528+1036512793+1036450499+1036538868
1738+1036684784+1036416425+1035339284+1034144057+1034348431+1035803109
1730+1037431858+1038727353+1039354196+1039138572+1038410356+1037513920
1721+1036115619+1033741617+1030950804+1029602248+1030620996+1032794331
1713+1034968901+1036620799+1037281585+1036474818+1034313708+1032048883
1704+1030703318+1029378886+1026489105+1022137818+1018275521+1015439645
1696+1012897293+1010375943+1007165783+1001767462+993364265+983074234+971487212
1686+954987346+930149894+905124649+888171429+875362129+861485767+842669512
1676+815963628+784731605+757515663+737631240+725449953+724822201+736196721
1666+754779536+779427245+811560646+847259700+878675680+902846104+920658632
1656+933375596+943493570+954560196+964261880+968508541+968401640+965550743
1646+961628883+957550052+951557336+941499965+926870092+908312051+886538193
1636+866465066+860858600+872951778+893463694+916441687+939443350+959813511
1626+975677301+987952549+998760830+1008371869+1015422674+1019709520+1022561522
1616+1025579013+1028963766+1031718035+1033413695+1034412546+1035331936
1608+1036340801+1037070253+1037364752+1037548643+1037974883+1038617981
1599+1039107035+1039220309+1039281237+1039803844+1040776165+1041672211
1591+1042118544+1042232403+1042388788+1042734722+1042961334+1042594853
1582+1041335576+1038964305+1034797950+1026696535+1011354832+989953632+969513439
1572+953876392+945581202+949379449+963807875+979383018+990536453+996840964
1562+998733130+996265686+990057217+984942796+983718438+981173355+973921753
1553+960105019+936826609+902691474+861299405+817370251+773542796+736154259
1543+717793700+731876712+779202713+829426755+861464309+881796886+899541787
1533+917151437+931739759+942159775+950209690+957371558+963370451+966912889
1523+967454094+965941349+963562600+959684046+953321858+945111005+935672153
1513+923988308+909185404+891312402+868628517+838826527+811551673+796567478
1503+787733425+779401040+770743595+763009376+757666392+754989242+753144935
1493+749272818+740963778+728833211+720566631+724907059+740909157+762756103
1483+786323875+808551414+825765645+834954801+835868859+831776568+829789660
1473+838459265+858324896+878796366+892382521+898284852+896203657+886328812
1463+873206286+862557056+856662464+857236506+867429454+883135558+892509320
1453+893534376+890031668+883356253+871444300+853045376+833597596+822239658
1443+823650183+835823992+852042884+865419918+872980064+876851205+881972518
1434+890178689+900049959+909918562+918509096+925493835+931795290+938562130
1424+945764833+952027078+956474471+960183569+964966817+970482054+974851872
1414+976944576+976433803+973282491+967249720+957798968+945133504+932059097
1404+923678854+923161189+930172263+942798972+957568259+970483029+979838389
1394+985725439+988062637+986360149+979822913+967701059+950791015+931532979
1384+911443336+891028048+872272590+858921567+853445281+854640247+859488000
1374+866857623+877679365+891540836+906099246+919111554+929124903+934783260
1364+934131773+926062285+913820525+903970193+900769657+904683064+913917022
1354+925596835+936937412+946272029+953223345+958041186+960677695+960361283
1344+955679344+944224258+921926102+884432679+832320113+774723262+724785462
1334+693127264+684326113+695072621+716391953+739700015+760735318+778771922
1324+794280804+807684239+818963562+827223769+830224028+824683627+807857010
1315+780010000+746891468+719002257+705159708+705681730+712033839+712921562
1305+702381380+683511999+664653672+652316585+648338738+652860780+666921098
1295+690659885+721104129+753533200+784119458+810604972+831680331+846770451
1285+856115797+860577431+861402795+860058206+857717821+854389510+848700917
1275+839549476+828776113+821674915+823558432+835369986+853211905+871977636
1265+888662889+902570723+913689694+921695132+926077175+926132252+920127507
1255+904677927+876274497+835748953+792388183+761413009+754015296+769323381
1245+797060629+826838690+853544704+875957499+893910936+907522581+917293191
1235+923863590+927810420+929695824+930153471+929922436+929799669+930545247
1225+932677356+935987720+939173691+940264422+937443242+929154555+913498065
1215+888447460+854198011+816361842+785928912+773583827+782624726+807466469
1205+838596143+868495086+893804425+913941016+929215158+940171502+947625852
1196+952612174+956203186+959241290+961935021+963706045+963598689+960813923
1186+954837659+945225970+931320151+912167716+886969569+855954990+821038058
1176+785791774+754449664+729778416+711085968+694644430+676604640+655622202
1166+632911136+610559660+590509617+574934149+566586484+567908770+579540399
1156+599657547+624600210+650194750+673155642+692119765+707581959+720283187
1146+729291963+732209575+728031971+719740422+713293246+713523305+720846890
1136+731593787+741022365+745927861+744987988+737620771+723000522+699969663
1126+667913836+628056686+583746809+539233047+498756467+467120833+449674689
1116+449941227+467123466+496587684+532645514+570673378+607590808+641681985
1106+672265123+699214851+722660505+743001665+760916217+777163135+792342861
1096+806796841+820659222+833947367+846602101+858481086+869425205+879426980
1086+888665230+897296210+905347881+912887089+920021906+926615909+932337469
1077+937132747+941304629+945059960+948342884+951165169+953642497+955545327
1067+956379144+956410616+957113928+959694645+963210229+964602417+960281562
1057+947794787+927498170+902907228+877051287+847882121+810842769+768366991
1047+734051607+723711572+742294452+780644971+823683866+860184225+886077685
1037+901874629+909548179+911468696+909917456+906585504+903346472+903191127
1027+908536648+918323384+928277626+934294531+934459694+928008747+913794449
1017+890296970+857130710+817302495+778394711+750336499+740257930+748590315
1007+769847679+796886491+824547920+850262366+872684199+890703702+903657032
997+911974786+917421551+922558861+929483972+938599064+948508503+957234290
987+963545303+967164732+968105905+966223493+961144380+951914714+936661965
977+913821370+885357336+859012927+845316685+850103379+869900669+895310602
967+917985774+933580555+939836427+934260783+914038489+878486326+833299651
958+792248444+771166128+777259372+804237777+838131603+866842732+884736867
948+891748071+890966274+886364966+880960467+876504686+874433440+876035334
938+881552521+889882890+899088172+906713213+910537991+910446501+909359541
928+911220105+917710848+926612918+932708308+931397466+923765467+917399768
918+919140880+927782850+937390572+946164087+957206914+971569144+985680246
908+995939260+1002092588+1005775156+1008347420+1010508205+1012506362+1014244353
898+1015568135+1016570952+1017532479+1018508961+1019100495+1018837013
890+1017647898+1015643759+1012492901+1007076439+997355572+980248892+952256681
880+912179420+865339547+824609759+803821746+807869430+830093132+859389617
870+888002168+912929420+933453626+949608403+961888983+970835530+976887354
860+980805117+983719413+986555939+989642357+992590986+994012566+991702288
850+984389042+974049722+965836203+964601376+971123917+981902611+992490132
840+1000621134+1006437697+1010850237+1014357627+1017040304+1018995479
832+1020547434+1022092236+1023740558+1025124617+1025673559+1025139638
823+1023787506+1022076500+1020185829+1017519734+1012225518+1001573037+984419994
813+964608074+950679887+949507289+959654265+972032643+975700775+961969289
803+928510741+886387659+859184073+865528575+901556721+945886690+980495988
793+1001406183+1012694219+1018560331+1021513382+1023006294+1023754148
785+1024034341+1023847654+1023148439+1022214613+1021376764+1020448726
776+1018779271+1015312391+1008363871+996398533+979912778+962455417+949253561
766+944119957+946943088+953328100+956556988+951809633+938636128+914976346
756+870023957+795441243+708826865+651538494+651927279+700127869+765362440
747+826091681+876641694+916804983+946382767+966394639+979211807+987303468
737+992676429+996587301+999465573+1001379782+1002492752+1003117904+1003621979
727+1004347399+1005405293+1006396991+1006643176+1005978164+1004924107
718+1003791759+1002140706+999406075+995694115+991880652+988912905+986878919
708+984986623+982404410+978378055+971696203+961157125+945643951+921889818
698+884904696+836359409+791966235+772701306+785289130+815930790+844305089
688+858975603+859097525+847552769+826189609+795563230+756826007+713883609
679+674217177+646939462+638765283+650044347+673046074+697271055+718720828
669+741546663+765915739+781130188+781817374+770264099+749958053+724205307
659+696140788+669756063+650218549+641355299+642476072+647739466+650215558
649+648002688+645351158+647652592+656911650+671678531+689183555+706683377
639+721461052+730788581+732875563+728530649+721997314+719083668+723387356
629+734302864+748735581+763975324+778626201+791865836+802937339+811649211
619+819096603+827159134+836747804+846963446+856278100+863803263+869342233
609+873111154+875435348+875989752+873148414+864570169+849562435+832087973
599+820638804+822506131+837538119+858542080+877105258+888342120+891356489
589+887153786+877526035+866170763+859218341+862041862+874871840+892451903
579+908293649+919247456+925929048+929946886+931936264+931618292+928343886
569+921712559+913022991+906106594+905190325+911357698+921761848+932579623
560+941950719+949627195+955455722+959663758+963384821+967283207+970304665
550+971120340+970409420+970228000+971297989+972561102+973317994+974027158
540+974911240+975550567+976079481+977183023+978708187+979575622+979228778
530+978302365+977648082+977236994+976550263+975896110+976096453+976782598
520+976565154+975214777+974150381+973254400+968699455+955991269+934668165
510+908677817+882558200+860220444+847401390+850336299+869434244+896125627
500+920007145+938003369+951980259+962594636+969404782+973392643+976578484
490+980232896+984274403+987542826+988472100+986411714+982538037+978656687
480+975166919+970931702+965049074+958317543+952827277+950494890+951599992
470+954469356+957436193+960387943+964104584+968924767+974225810+979008668
460+983010965+987082773+991986058+997070567+1001316253+1004546441+1006411297
450+1006004890+1003572755+1001429982+1001930350+1004757643+1007369897
442+1007888732+1006170834+1002415177+996553553+989299480+982683368+978556418
432+977014608+977208773+979079416+983030537+988150356+992387978+994785129
422+995640730+994338797+990775745+989656402+994682585+1002100196+1006736682
412+1006516117+1002979335+998616149+994110949+989661474+986947456+987420644
402+989580063+989418606+983648731+974755765+970670951+972311535+973044434
392+970346866+967036697+964202252+958563078+948818153+941866967+947217949
382+963316285+978942538+986269049+984385596+976127145+965732553+955984832
##END=
