##TITLE=LSH-R281A
##JCAMP-DX=4.24
##DATA TYPE=INFRARED SPECTRUM
##DATE=5/11/2020
##SAMPLING PROCEDURE=Diamant-ATR
##ORIGIN=Angelika Moesle
##XUNITS=1/CM
##YUNITS=TRANSMITTANCE
##RESOLUTION=4
##FIRSTX=3997.453
##LASTX=373.96442
##DELTAX=-1.4165319
##MAXY=0.99139959
##MINY=0.64270991
##XFACTOR=1
##YFACTOR=9.2331282e-010
##NPOINTS=2559
##FIRSTY=0.96102124
##XYDATA=(X++(Y..Y))
3997+1040840361+1041111880+1041016274+1040588918+1040068281+1039669975
3989+1039438416+1039315180+1039288647+1039469789+1039995140+1040764121
3980+1041359449+1041436851+1041143512+1040871218+1040685687+1040353873
3972+1039875583+1039588571+1039749765+1040290157+1040879094+1041066691
3963+1040578396+1039673719+1039011318+1038996858+1039480118+1040123734
3955+1040734813+1041146611+1041118529+1040660123+1040259945+1040363685
3946+1040727777+1040803823+1040516617+1040176733+1039908055+1039672686
3938+1039620074+1039880490+1040176088+1040083709+1039701220+1039655192
3929+1040186094+1040785747+1040951977+1040729261+1040437214+1040213013
3921+1040030064+1039990104+1040331601+1041051456+1041611602+1041446147
3912+1040709314+1040149878+1040245743+1040712542+1041007559+1041015176
3904+1041049391+1041264359+1041415483+1041427232+1041560216+1041841547
3895+1042002032+1041978598+1041964912+1041909201+1041437238+1040682071
3887+1040456709+1041303480+1042568891+1043139688+1042749968+1041787902
3878+1040861664+1040517778+1040793623+1041019824+1040558126+1039924193
3870+1040197843+1041338146+1042408665+1043032720+1043282161+1043184102
3861+1042823045+1042233979+1041352090+1040374982+1039936975+1040784133
3853+1042584578+1043528827+1043134782+1042259478+1041438529+1040830226
3844+1040519651+1040513324+1040582334+1040505965+1040443992+1040641143
3836+1040875931+1040846816+1040724355+1040806792+1041060752+1041316262
3827+1041597464+1041874858+1041932699+1041919336+1042445461+1043378284
3819+1043552454+1042856743+1042312607+1042342625+1042353083+1041901067
3810+1041079280+1040275309+1040102947+1040714543+1041319941+1041503666
3802+1041849940+1042557723+1042762815+1042182593+1041571707+1041544981
3793+1041899776+1042136888+1042098542+1041974725+1042004614+1042224876
3785+1042458953+1042554689+1042655589+1043032333+1043526245+1043534056
3776+1042903481+1042156577+1041675253+1041365582+1041030411+1040720869
3768+1040703762+1041177597+1041967753+1042596069+1042918845+1043340067
3759+1044064893+1044520717+1044134032+1043190364+1042402919+1042376775
3751+1043106700+1043369182+1042171941+1040333022+1039607679+1040955786
3742+1042838473+1043564849+1043347427+1042761846+1041847099+1040737073
3734+1040470266+1041597400+1042887600+1043090755+1042410666+1041786676
3725+1041531231+1041120918+1040495830+1040496217+1041572481+1043105216
3717+1044229509+1044624910+1044500576+1044280830+1044216792+1044124413
3708+1043786273+1043305659+1042866361+1042556625+1042404792+1042433196
3700+1042682314+1043141754+1043626176+1043862706+1043845664+1043963993
3691+1044578946+1045403897+1045495566+1044531046+1043266604+1042279877
3683+1041646978+1041344214+1041251319+1041000329+1040397060+1040068152
3674+1040810472+1042080337+1043042532+1043680790+1044166051+1044317369
3666+1043950049+1043203210+1042465344+1042137662+1042275165+1042619954
3657+1043011998+1043426894+1043663876+1043496936+1042997860+1042504529
3649+1042441782+1042858679+1043321153+1043544707+1043499454+1043152534
3640+1042432228+1041467644+1040705892+1040527785+1040802854+1041067982
3632+1041230855+1041866401+1043461237+1045090353+1045427331+1044713608
3623+1043743537+1043027685+1042934919+1043498615+1044007052+1043880459
3615+1043601451+1043850893+1044452418+1044745240+1044699471+1044765382
3606+1044906177+1044759055+1044465523+1044475206+1044787395+1044862925
3598+1044396190+1043730562+1043403912+1043575629+1043901956+1043941657
3589+1043613523+1043255435+1043167834+1043135556+1042895347+1042620083
3581+1042679861+1043287390+1044282832+1045138898+1045325785+1044795593
3572+1044005115+1043435415+1043310630+1043678337+1044281540+1044496638
3564+1044093104+1043605906+1043630824+1044187032+1044817542+1045142190
3555+1045077248+1044698761+1044198006+1043822876+1043700802+1043819906
3547+1044071801+1044206269+1044045849+1043776590+1043693830+1043811320
3538+1043932232+1043932361+1043906023+1044096396+1044618906+1045223530
3530+1045450119+1045091385+1044415428+1043869291+1043698671+1043885688
3521+1044246551+1044515747+1044460552+1044097494+1043764841+1043798216
3513+1044120992+1044312656+1044078385+1043568593+1043248334+1043467499
3504+1044133774+1044686495+1044530207+1043637215+1042535193+1041783900
3496+1041636326+1042030952+1042743125+1043563041+1044331506+1044838071
3488+1044872220+1044467782+1043895436+1043374798+1043003670+1042865006
3479+1042937114+1043058800+1043162799+1043325542+1043507846+1043513075
3471+1043293265+1043117223+1043329674+1043872841+1044139971+1043630953
3462+1042681733+1042088148+1042110484+1042391106+1042658106+1042936145
3454+1043210311+1043354786+1043353947+1043302690+1043196303+1042913938
3445+1042516666+1042385102+1042835246+1043709323+1044513229+1044851240
3437+1044599927+1043895759+1043142270+1042804647+1042985918+1043319216
3428+1043402944+1043265119+1043292555+1043742504+1044374694+1044599281
3420+1044082000+1043179712+1042602589+1042744804+1043482476+1044392511
3411+1044984676+1044983191+1044630461+1044495993+1044852983+1045450635
3403+1045908719+1046084632+1046048610+1045837385+1045333597+1044506257
3394+1043719587+1043447423+1043649416+1043850505+1043861932+1043932426
3386+1044179156+1044367528+1044338801+1044236997+1044196198+1044105821
3377+1043818099+1043418050+1043196432+1043387580+1043931522+1044510840
3369+1044852402+1044922896+1044830776+1044676360+1044486310+1044174379
3360+1043662327+1043129747+1042951187+1043266216+1043799894+1044142166
3352+1044043590+1043556198+1043106636+1043253111+1044087617+1045019213
3343+1045374266+1045065047+1044508775+1044081419+1043878974+1043859349
3335+1043957473+1044098591+1044261270+1044480822+1044748339+1045009336
3326+1045240895+1045394795+1045344506+1045018309+1044495864+1043918353
3318+1043497647+1043548774+1044142295+1044788428+1044895073+1044455775
3309+1043873939+1043348008+1042916585+1042805098+1043177259+1043744958
3301+1044031583+1043891692+1043549033+1043267185+1043152341+1043228516
3292+1043545288+1044049723+1044408779+1044269081+1043751542+1043370473
3284+1043398232+1043600935+1043670138+1043610618+1043549614+1043411853
3275+1043081007+1042777985+1042899091+1043442452+1043916158+1043899955
3267+1043509977+1043246010+1043474794+1044119636+1044806439+1045187831
3258+1045098616+1044606253+1044036360+1043789436+1044025708+1044589210
3250+1045158200+1045400088+1045186282+1044733039+1044339640+1044057276
3241+1043849279+1043858639+1044188775+1044599410+1044735880+1044576041
3233+1044444413+1044633560+1045130506+1045700206+1046172233+1046554013
3224+1046821981+1046781053+1046337301+1045765600+1045390857+1045132313
3216+1044728585+1044271922+1044134290+1044413104+1044773257+1044877256
3207+1044779261+1044770740+1044906499+1044934968+1044774290+1044737300
3199+1045087577+1045664700+1046157192+1046456792+1046559112+1046404245
3190+1046050611+1045834739+1046040670+1046393464+1046215614+1045295638
3182+1044279797+1043931006+1044321500+1044984869+1045502796+1045642558
3173+1045224111+1044280378+1043262859+1042760684+1042924138+1043331740
3165+1043508492+1043401976+1043198240+1042883404+1042311703+1041606567
3156+1041121047+1040926090+1040561611+1039344423+1036786875+1032780515
3148+1027560904+1021474059+1014733334+1007597466+1000910645+996165321+994702888
3138+996791184+1001477310+1007242413+1012798485+1017466407+1021106933
3129+1023867636+1025962259+1027551479+1028734453+1029595813+1030240590
3121+1030816617+1031530274+1032562318+1033900160+1035281319+1036311684
3112+1036678164+1036376433+1035796211+1035458329+1035561424+1035859798
3104+1036027383+1036032870+1036057079+1036130155+1036057853+1035720681
3095+1035255561+1034868811+1034592127+1034251792+1033599010+1032497440
3087+1031044561+1029512601+1028203616+1027389833+1027244067+1027730168
3078+1028618060+1029558113+1030108575+1029944282+1029211451+1028448151
3070+1028051007+1028047521+1028345702+1028840905+1029287820+1029374389
3061+1028983184+1028295155+1027716418+1027706863+1028473521+1029764883
3053+1031057666+1031957759+1032405126+1032603504+1032813696+1033143186
3044+1033498756+1033757816+1033954580+1034227261+1034589287+1034844409
3036+1034780241+1034406725+1033967039+1033780798+1034074976+1034816134
3027+1035680980+1036362877+1036882030+1037368066+1037687678+1037664890
3019+1037523127+1037594073+1037678383+1037269684+1036457579+1036055594
3010+1036614255+1037702203+1038469248+1038660138+1038711266+1038987627
3002+1039378702+1039681853+1039942011+1040220631+1040334184+1040032969
2993+1039299686+1038378548+1037590587+1037115913+1036860274+1036569453
2985+1036076703+1035332963+1034256247+1032743589+1030802995+1028588687
2976+1026442550+1024923889+1024520483+1025223425+1026545903+1027914473
2968+1028929733+1029497431+1029946477+1030780401+1032096230+1033446144
2959+1034404336+1035019999+1035588602+1036211366+1036768993+1037171753
2951+1037431330+1037533908+1037453279+1037301122+1037293375+1037495304
2942+1037704979+1037649655+1037201836+1036309619+1034808839+1032508802
2934+1029511891+1026319443+1023594503+1021873333+1021457403+1022394164
2925+1024426426+1026941045+1029126949+1030477831+1031226155+1032025284
2917+1033110134+1034017070+1034214286+1033772341+1033307285+1033410380
2908+1034195888+1035329800+1036439504+1037434428+1038404629+1039341195
2900+1040081063+1040466586+1040474527+1040235285+1039948273+1039756931
2891+1039729108+1039932198+1040386602+1040913244+1041194898+1041082249
2883+1040763088+1040566970+1040624811+1040750565+1040645921+1040191258
2874+1039534990+1038951605+1038639868+1038617854+1038763104+1038934562
2866+1039052956+1039112476+1039194139+1039402523+1039721167+1040006953
2857+1040159691+1040197585+1040142713+1039946465+1039558876+1039036689
2849+1038554397+1038266287+1038176684+1038220259+1038408179+1038773820
2840+1039275285+1039882233+1040638949+1041515996+1042320870+1042861261
2832+1043134330+1043305143+1043531732+1043833527+1044096977+1044189420
2823+1044094847+1043971482+1044011700+1044209045+1044380762+1044429565
2815+1044394447+1044263465+1044010731+1043788855+1043801766+1044020221
2806+1044277280+1044553253+1044919023+1045256001+1045275045+1044863570
2798+1044278442+1043905571+1043887625+1044066378+1044245131+1044375985
2789+1044487859+1044557772+1044523687+1044390897+1044291030+1044400322
2781+1044748533+1045112624+1045185959+1044912245+1044587661+1044556481
2772+1044856340+1045222562+1045402090+1045392923+1045394666+1045557345
2764+1045795424+1045895679+1045796005+1045617639+1045385305+1044968343
2755+1044409166+1044049077+1044136098+1044512906+1044851240+1045003719
2747+1045015985+1044978349+1044978607+1045065111+1045160718+1045085188
2738+1044752019+1044335960+1044179608+1044478434+1045078926+1045621125
2730+1045844228+1045724736+1045396538+1045033931+1044806374+1044826128
2721+1045055493+1045324171+1045498406+1045565802+1045541271+1045455283
2713+1045463030+1045743199+1046238596+1046713141+1047078072+1047445584
2704+1047858157+1048172799+1048257172+1048172347+1048083454+1048043107
2696+1047965899+1047793085+1047559847+1047296591+1047032883+1046855808
2687+1046796224+1046752133+1046677765+1046677829+1046782280+1046844705
2679+1046791963+1046736575+1046760589+1046806423+1046825661+1046826823
2670+1046739609+1046435554+1045956296+1045565285+1045473681+1045618479
2662+1045805947+1045972758+1046169134+1046380036+1046539617+1046682994
2653+1046890410+1047053412+1046884535+1046324196+1045798975+1045825701
2645+1046383458+1046940827+1047117580+1047026750+1046921848+1046816946
2636+1046601525+1046314190+1046115683+1046090119+1046234271+1046568731
2628+1047069615+1047559073+1047868486+1048031358+1048140392+1048197782
2619+1048280864+1048561292+1048971153+1049170564+1049029446+1048808732
2611+1048718807+1048612613+1048280671+1047806254+1047463079+1047403559
2602+1047601163+1047979908+1048433279+1048766319+1048783104+1048429148
2594+1047771007+1046922494+1046099157+1045647141+1045841904+1046584999
2585+1047385806+1047773654+1047752415+1047711035+1047896890+1048187776
2577+1048383120+1048467300+1048520687+1048558774+1048589761+1048751730
2568+1049218206+1049818505+1049988737+1049438985+1048645730+1048214695
2560+1048045044+1047715554+1047372960+1047502587+1048029486+1048379311
2551+1048391770+1048553610+1049230923+1050131081+1050694002+1050704589
2543+1050345017+1049887901+1049544726+1049465840+1049665832+1049919469
2534+1049888547+1049489983+1049065791+1048966828+1049053461+1048956176
2526+1048736947+1048798855+1049191480+1049512707+1049497407+1049282696
2517+1049126796+1049139836+1049220853+1049165529+1048951851+1048832166
2509+1048963213+1049153005+1049212396+1049288958+1049575067+1049922116
2500+1049983314+1049617932+1049055785+1048692404+1048707639+1048931129
2492+1049170629+1049465775+1049824637+1050017980+1049911206+1049716185
2483+1049674417+1049772089+1049941418+1050260191+1050772114+1051272288
2475+1051459691+1051266090+1050904710+1050593813+1050392529+1050283948
2466+1050209515+1050026760+1049674288+1049337891+1049262943+1049480300
2458+1049827736+1050073627+1049968983+1049399154+1048569684+1047910963
2449+1047760614+1048123027+1048630883+1048792529+1048509842+1048273634
2441+1048576269+1049253582+1049713409+1049701014+1049502313+1049478686
2432+1049672029+1049845747+1049789455+1049590689+1049548599+1049758791
2424+1049935672+1049764472+1049262039+1048668002+1048172024+1047905799
2415+1048013347+1048525012+1049238089+1049863435+1050218230+1050233659
2407+1049952392+1049599081+1049488821+1049738908+1050132824+1050345340
2398+1050304218+1050267938+1050489169+1050892768+1051193466+1051233748
2390+1051099925+1050998251+1051081140+1051305082+1051494939+1051611848
2381+1051829980+1052273733+1052815996+1053196033+1053253487+1053061564
2373+1052917154+1053172922+1053970050+1055063615+1055881723+1055874041
2364+1054917914+1053376916+1051863355+1050997347+1051078558+1051801640
2356+1052477469+1052556872+1051966062+1051129685+1050585485+1050519768
2347+1050770823+1051149439+1051632183+1052194652+1052645635+1052912506
2339+1053234120+1053809824+1054443756+1054748456+1054614504+1054277849
2330+1053936481+1053517518+1052941040+1052392062+1052173414+1052423049
2322+1053041939+1053806531+1054422840+1054511022+1053842230+1052747180
2313+1052014285+1052109375+1052650154+1052903081+1052605288+1052077356
2305+1051725982+1051660781+1051687184+1051519276+1050987664+1050132953
2296+1049216721+1048614227+1048546961+1048926416+1049559057+1050319259
2288+1050913684+1050802907+1049806433+1048598218+1048158726+1048787235
2279+1049951876+1051043246+1051924295+1052668036+1053125022+1053031869
2271+1052358429+1051325481+1050289241+1049736197+1049969370+1050643004
2262+1051074684+1051136141+1051358533+1052119252+1053170211+1053952491
2254+1054074435+1053598341+1052982484+1052525433+1052012542+1051305017
2245+1050902967+1051273643+1052058764+1052628980+1052904566+1053151812
2237+1053596985+1054402118+1055289364+1055507367+1054945866+1054505083
2228+1054696941+1055104607+1055699483+1057021187+1058648946+1059248083
2220+1058547917+1057745690+1057697338+1057979831+1057987965+1057888163
2211+1057989837+1057930253+1057132222+1055695158+1054425809+1054105616
2203+1054875888+1056130260+1057056111+1057357648+1057187093+1056618556
2194+1055984624+1056347489+1058387627+1060913801+1061722419+1060217186
2186+1058193445+1057643563+1058597237+1059507207+1059295208+1058477165
2177+1058121078+1058188797+1057561772+1055822655+1054076953+1053329016
2169+1053122956+1052816577+1053206878+1055442166+1058873921+1061384731
2160+1061675229+1060325251+1058726089+1057782809+1057904883+1059309088
2152+1061589758+1063352051+1063153350+1061108757+1058893287+1057775127
2143+1057419621+1057050236+1056835849+1057379403+1058517253+1059455434
2135+1059826885+1059937791+1060114543+1060386256+1060696185+1060945820
2126+1060803540+1059858581+1058150451+1056396292+1055497167+1055744608
2118+1056592605+1057278439+1057592371+1057870862+1058306997+1058518545
2109+1057928510+1056467045+1054765434+1053632878+1053450445+1054129695
2101+1055414730+1056956115+1058223592+1058726606+1058374393+1057414586
2092+1056066738+1054481327+1053068988+1052546995+1053388730+1055249727
2084+1057087097+1057956269+1057783067+1057353452+1057480239+1058293247
2075+1059434195+1060588572+1061501834+1061871735+1061622100+1060970222
2067+1060081555+1059094312+1058422680+1058484653+1059180623+1060006994
2058+1060481087+1060218735+1058891157+1056577886+1054200383+1053154782
2050+1054092575+1056143042+1057755696+1058187957+1057840650+1057694045
2041+1058517124+1059952897+1060867063+1061185191+1062049133+1063543070
2033+1064155763+1063262964+1062168108+1062083025+1062713858+1063239337
2024+1063505950+1063746225+1063786507+1063174588+1062023440+1061432954
2016+1062889965+1066814146+1071424549+1073741823+1072628310+1070177537
2007+1068857189+1068394328+1067060360+1064729788+1062844518+1062229952
1999+1062263263+1062047196+1061643726+1061757214+1062494887+1062962847
1990+1062281144+1060699607+1059351436+1059088954+1059650068+1060012223
1982+1059612820+1058854683+1058278722+1057834711+1057490761+1057888873
1973+1059488486+1061548766+1062803138+1062892095+1062643945+1063093507
1965+1064533669+1066518806+1068381998+1069590536+1069897561+1069431989
1956+1068833368+1068955894+1069786978+1069960438+1068216285+1065109308
1948+1062426846+1061180220+1060853506+1060427119+1059607397+1058887155
1939+1058535006+1058181566+1057522393+1056673040+1055623179+1054200383
1931+1052910441+1052780555+1053947003+1055325451+1055947956+1055882433
1922+1055750482+1055932850+1056457168+1057212464+1057887776+1058051488
1914+1057683200+1057444669+1058079375+1059424641+1060455975+1060544029
1905+1060094531+1059846122+1060076778+1060576177+1061034713+1061251360
1897+1061115988+1060707805+1060365792+1060286130+1060137718+1059474607
1888+1058461478+1057737556+1057664479+1058165169+1058912267+1059418638
1880+1059310895+1058745262+1058362966+1058625642+1059311605+1059843863
1871+1059958319+1059860260+1059856322+1059970262+1059978719+1059673243
1863+1058971657+1057918568+1056634630+1055344559+1054465059+1054373649
1854+1054930308+1055441779+1055236042+1054222460+1052946656+1052210081
1846+1052589730+1054031248+1055742994+1056995558+1057755308+1058255030
1837+1058660179+1059103673+1059628378+1060028426+1059840119+1058657919
1829+1056786141+1055190014+1054507343+1054613859+1054983760+1055286524
1820+1055501041+1055586964+1055478769+1055372511+1055623050+1056308110
1812+1057119311+1057700501+1057993582+1058118754+1058100937+1057972278
1803+1057918439+1058037285+1058072274+1057739040+1057199230+1056830813
1795+1056808348+1057074574+1057432145+1057671903+1057810761+1058015337
1786+1058305383+1058468966+1058298670+1057792557+1057041457+1056179064
1778+1055437196+1054991184+1054852261+1055013197+1055461210+1055944600
1769+1056174351+1056172673+1056075905+1055909482+1055661654+1055369025
1761+1055083433+1054872725+1054812882+1054825729+1054668408+1054288307
1752+1054000584+1054196122+1054804167+1055258894+1055234621+1054862267
1744+1054399471+1054074306+1054067463+1054368097+1054743615+1055102671
1735+1055595162+1056111733+1056091269+1055439261+1054554339+1053703501
1727+1053042456+1052754475+1052947624+1053468520+1054071401+1054777054
1718+1055814456+1057042684+1057821090+1057997519+1057955881+1057964015
1710+1058078278+1058324879+1058721700+1059094054+1059168680+1058964298
1701+1058716600+1058460832+1057933416+1057042554+1055983655+1055009066
1693+1054254738+1053742622+1053455480+1053318236+1053316557+1053654439
1684+1054431361+1055058257+1055080012+1054729283+1054216780+1053603892
1676+1052941362+1052255012+1051495326+1050606401+1049565513+1048416688
1667+1047327513+1046534000+1046314642+1046887247+1048065702+1049366231
1659+1050545719+1051578344+1052534923+1053712345+1055230748+1056192943
1650+1056328703+1056327154+1056606032+1056980000+1056917834+1056322312
1642+1055400335+1054331171+1053263816+1052410202+1052196847+1052864219
1633+1053843973+1054645620+1055316348+1055986044+1056604354+1057062308
1625+1057419169+1057783132+1058057427+1058039287+1057445960+1055338491
1616+1050279816+1042803936+1035706608+1031458360+1031474176+1035243619
1608+1039994494+1042810844+1042229137+1037404152+1027388348+1012445368
1599+995949448+983932820+981699662+989889910+1003789871+1017410954+1027759669
1589+1034944405+1040022317+1043615589+1045669800+1045700141+1043346523
1581+1039093949+1034278518+1030180102+1026879201+1022486930+1015012922
1572+1004106515+990782579+979522474+976713290+982593946+991962196+999972722
1562+1004773305+1008098608+1013956476+1022736694+1027505838+1026436740
1554+1021678763+1015607153+1011566643+1012352796+1017907126+1025821077
1545+1033868657+1040754567+1045815307+1049335954+1051819135+1053049686
1537+1053370784+1053602989+1054186632+1054912297+1055252116+1055155477
1528+1054901968+1054677833+1054575384+1054641617+1054728509+1054303865
1520+1052568685+1048712868+1042145861+1033550594+1025037829+1018219056
1511+1013404723+1009656713+1002553381+981310911+943197262+906160975+879336804
1502+862773424+858747374+869597812+891958443+916138691+934967184+949391269
1492+963254628+977628876+988995046+994297223+995678058+996340588+996833919
1482+995533326+990707566+981790427+969045616+954076040+941623923+938660968
1472+947205559+960565193+973151650+984868806+996647032+1007134670+1013487225
1462+1014905115+1011906720+1001773490+976723747+937370058+901113081+877159938
1452+865062422+864688906+875814220+895121325+916374188+935006369+950600969
1442+963998626+975165449+984352558+992480639+998629135+999966331+996918680
1432+993580208+994271271+1000346755+1008757975+1016037736+1021421704+1025387589
1422+1028208586+1030171516+1031700506+1032919825+1033738708+1034268448
1414+1034632539+1034796767+1034679858+1034251792+1033520253+1032479623
1405+1031117444+1029445980+1027380472+1024670509+1021308668+1017975296
1397+1015391409+1013173938+1010337770+1007010078+1004390880+1002993131
1388+1001891755+999966073+997839496+997133649+998404870+1001159311+1004689900
1378+1008315901+1011397185+1013365473+1013497037+1010808765+1004491134
1370+994713733+983808681+975964385+973879768+976385866+979343656+978348666
1360+971498908+958679342+939031579+910941804+874563527+833775550+795127577
1350+765367565+749562386+749648309+763553499+785902381+811041274+836143112
1340+860686677+883174288+900340807+910376365+915271005+919786189+928175977
1330+941020331+955385929+968066443+977935061+985528431+991584871+996285975
1320+999229563+999544334+995891349+986530909+969944806+946511397+920361182
1310+898810074+888548250+891427864+903481611+918444474+932353279+944587652
1300+955719357+965734838+973984477+979918584+983864715+987258253+991704492
1290+997620589+1004088310+1009945726+1014606612+1018016288+1020441563
1282+1022388806+1024378914+1026657454+1029138891+1031593216+1033846321
1273+1035820096+1037453214+1038685185+1039466045+1039664423+1038923007
1265+1036450801+1030955733+1021702132+1010655769+1002578041+1000942148
1256+1004043057+1006815767+1006245745+1003806397+1002823028+1004696743
1248+1007949098+1009878524+1008212484+1001296427+987493492+965264425+934832780
1238+900798180+872811370+861402659+870984523+896643408+928119362+956688524
1228+978635808+994157396+1004799386+1011964626+1016625253+1019262268+1019781292
1218+1018096853+1015113306+1012583581+1011630359+1011639267+1010788301
1210+1007911915+1004282879+1003269234+1007287149+1014963860+1021962677
1201+1024263941+1019659218+1006945330+986424845+961999093+939902623+922787812
1191+906464255+885312098+860832636+842818507+841574141+859520100+889674803
1181+920840246+944189475+956075831+955949625+943454708+919174077+887491481
1171+855821151+829357908+807845985+788859461+773243300+765783688+770921701
1162+788864432+815470535+845020550+873251378+898485619+920631539+939817991
1152+956050396+969487239+980502615+989378375+995832926+998600343+995145994
1142+982173110+958394589+928705975+904551161+897059078+907940310+927082863
1132+939935223+939108400+930257559+925816161+932326618+945548943+957772212
1122+966246116+973116145+980467239+988000444+994222597+998067698+999430071
1112+998964112+997702768+996549166+995608081+993879809+989611483+980739727
1102+965450473+943769415+919600464+900485862+893678904+901270143+919004748
1092+939891519+958675598+973350738+984146950+992243463+998921118+1004986467
1082+1010580885+1015373592+1018980291+1021353405+1022725978+1023101560
1074+1021927688+1018290971+1011404738+1001167639+988797700+977318882+970957031
1064+972646247+981272372+991802616+998552121+998469554+992416278+984616073
1054+980319795+982463286+989995651+999307352+1006972636+1011389826+1012588939
1044+1010965311+1006003663+995182985+973878800+939365975+898233531+867518037
1034+862915639+885005267+919898063+952594304+976724264+993116702+1004106321
1024+1010835620+1013171485+1009366795+996185462+972792981+946579180+931543434
1014+936193410+954169903+969465161+968432342+945714076+905601281+863002724
1004+837656028+840414923+865732763+899132850+929310276+952225049+968051144
994+978003038+983351178+985238966+984483154+981321563+974982306+963327188
984+943444637+913734978+876709278+840206475+814333783+804894392+809824150
975+823311023+841971285+864884250+889638910+912027622+929291103+941074687
965+946991558+944732385+931104459+904582729+866945691+823931334+785535901
955+762958365+760736762+772487358+788397891+805840771+828499066+857124650
945+886688866+912134784+932498270+949126399+962915971+974004682+982454184
935+988336131+991415091+990766763+984715617+972222894+955283609+938736562
925+925548386+912380997+891703708+858797662+816011637+770961015+732348806
915+707164208+699086803+707253682+726562853+750402507+773956635+795428534
905+814952222+832977712+849516819+864347344+877501241+889314907+900059475
895+909758700+918366168+925939203+932648490+938724232+944398634+949846319
885+955128612+960177862+964897170+969274787+973327434+977003078+980113670
875+982082475+981935805+979413827+976311692+975622436+978525225+982871856
866+985478918+985590082+985399579+987406859+992048313+997941364+1003507378
856+1007805269+1010476435+1011711376+1012077985+1011922858+1011078089
847+1009109284+1005270639+998127347+985943005+968292451+947972475+931259972
837+924875140+931235441+946625143+964224634+978510958+987001839+989135066
827+984186458+969828348+942891916+903155026+857621208+819901282+802594226
817+808562806+829595665+853130426+869681605+875582660+872312746+865043959
807+860324199+862792338+873125108+888934484+907149379+925490868+942702640
798+958258313+971627373+981640853+987192600+988706678+987871204+984976484
788+976738208+957833282+925559554+883481699+840835694+808187547+792375977
778+794221029+809759143+831643033+849159506+851192608+833350648+800910497
768+763110134+727850664+702931840+696091184+709294723+735874424+765976192
758+793215323+815841921+834427945+849880523+862782397+873681316+883318181
748+892150301+899975231+906288858+910831221+913870221+916188076+918647435
738+921590959+924709298+927498212+929795538+931882220+934057536+935982250
728+936234725+932964617+926158304+919407379+917948173+924088341+935229859
718+946757417+955818256+961960360+965759950+967460076+966128109+960731487
708+953083697+948320944+950501618+958537579+967987815+975788278+981674099
698+986294702+989884423+992402205+993904792+994780225+995659854+996567694
688+995740935+989670422+975943017+957697587+944058428+942338613+948962170
679+952405416+947255202+941152734+944487591+957180370+969785032+970670923
669+946370602+894342531+836916354+792930764+769958860+772974234+798069100
659+831954835+863830451+890040443+909099269+918147713+915429358+905109693
649+897238155+900400133+914485884+932352698+947342610+957482618+963939881
639+968081291+970635353+972391125+974512086+977827448+982138250+986551760
629+990341925+993414043+996172809+998868699+1001102051+1002235318+1001326251
619+995735900+982306352+963115188+947642985+944957037+955144880+970707590
609+984514463+994282375+1000844992+1005279483+1008399694+1011242253+1014573560
599+1017989627+1020097096+1019727001+1016590780+1009872004+995969590+970654784
589+936957808+908168770+898054972+907474673+922133158+923809269+903243079
579+865500752+826986990+806295950+813001299+842062372+880101460+915933986
569+944411029+964779357+978507149+987275941+990836999+985295774+962810423
560+915715532+846394478+774097494+726046863+717236175+740812639+778564262
550+816117959+847174498+869055161+880037615+881694295+880389828+883373118
540+893102748+906107458+917255431+924491940+929525697+934746082+940632290
530+946475956+952021700+957092898+960920376+963309048+965162686+966997603
520+968458681+969336373+969417519+967367052+961756753+953303185+944215556
510+934843948+923113558+909345483+899444458+899898926+910977438+926680426
500+940823567+951634046+959867158+965712438+968905725+969823442+969558056
490+969685617+971147727+971971839+967096953+952274498+928069202+899235880
480+872327335+854963923+853024878+865968067+887517174+910552794+929487738
470+940855070+943281377+936178368+920442134+901217144+887187297+884883257
460+894139440+909959403+926916440+941257443+951583434+958524926+963559263
450+967871228+971853058+975754128+980190039+985280862+989757443+991986340
441+992258569+992976294+995857845+999557503+1001063253+1000048704+999577193
431+1001849665+1005681920+1008588970+1009195078+1006988452+1001451876+989681268
421+961446888+905010988+837705542+799987099+802241432+830437723+868384755
411+903461728+929775784+946643864+955106405+958291753+960639367+963498711
401+962815007+952214462+930971411+909104369+895324351+888542634+886260607
391+888189710+893780320+901993549+912961026+927072922+941527412+951270794
381+954987107+956439148+960630910+968555578+972805957+965736194
##END=
