##TITLE=CZ-234
##JCAMP-DX=4.24
##DATA TYPE=INFRARED SPECTRUM
##DATE=8/6/2020
##SAMPLING PROCEDURE=Diamant-ATR
##ORIGIN=Angelika Moesle
##XUNITS=1/CM
##YUNITS=TRANSMITTANCE
##RESOLUTION=4
##FIRSTX=3997.453
##LASTX=373.96442
##DELTAX=-1.4165319
##MAXY=0.93782049
##MINY=0.25350425
##XFACTOR=1
##YFACTOR=8.734134e-010
##NPOINTS=2559
##FIRSTY=0.90361494
##XYDATA=(X++(Y..Y))
3997+1034578746+1034455021+1033743584+1032704443+1032055722+1032090935
3989+1032411338+1032490773+1032240525+1031965368+1031905587+1031956087
3980+1031882930+1031687481+1031590712+1031706248+1031864299+1031822944
3972+1031634183+1031666735+1032160407+1032863791+1033282874+1033250390
3963+1033078348+1033124685+1033353437+1033506848+1033512103+1033417245
3955+1033186787+1032878805+1032709288+1032708469+1032662337+1032496028
3946+1032350738+1032340638+1032562702+1033110286+1033791628+1034198290
3938+1034178021+1033943128+1033798247+1033873793+1034060370+1034163690
3929+1034105342+1033860007+1033402163+1032943772+1032901735+1033316654
3921+1033676092+1033569973+1033171637+1032966839+1033144203+1033477913
3912+1033676774+1033601297+1033304575+1033027985+1033074663+1033602457
3904+1034447105+1035186658+1035567251+1035701008+1035726736+1035553193
3895+1035058497+1034305022+1033486307+1032866726+1032771117+1033428232
3887+1034730997+1036013289+1036418450+1035906147+1035045599+1034222584
3878+1033581097+1033150209+1032883582+1032741567+1032727509+1032792409
3870+1032785038+1032669571+1032636336+1032851234+1033313856+1033920266
3861+1034495285+1034782589+1034566667+1033877478+1033077393+1032833355
3853+1033621770+1034638323+1034968143+1034678859+1034059346+1033286627
3844+1032492957+1031952333+1032080562+1032920365+1033707211+1033511352
3836+1032525577+1031737230+1031654315+1032136249+1032745867+1033121956
3827+1033238515+1033323751+1033628185+1034334435+1035355765+1035917066
3819+1035300420+1033972541+1032938381+1032783401+1033215517+1033623340
3810+1033796063+1034002500+1034627677+1035509449+1036024277+1035968317
3802+1035435473+1034454612+1033399979+1032917635+1033272296+1034101521
3793+1034855814+1035359245+1035645663+1035620344+1035219961+1034715642
3785+1034538619+1034750992+1034986568+1035009157+1035012842+1035272781
3776+1035630786+1035680057+1035319323+1034848785+1034566326+1034392442
3768+1034141170+1033948724+1034020789+1034294513+1034643100+1035056313
3759+1035357266+1035126399+1034346241+1033612148+1033495110+1034095242
3751+1034965072+1035494640+1035748778+1036228802+1037030798+1037440189
3742+1036682688+1035214979+1033925931+1033336718+1033484055+1033757028
3734+1033493131+1032958854+1032704989+1032698574+1032689975+1032602692
3725+1032463476+1032423349+1032914564+1034194400+1035698142+1036492562
3717+1036315539+1035679375+1035263227+1035468230+1036077370+1036400775
3708+1036379756+1036527639+1036901340+1037085461+1036840808+1036456871
3700+1036298888+1036192019+1035704693+1034786479+1033906345+1033604504
3691+1034011303+1034787571+1035375828+1035461610+1035196280+1034932315
3683+1034948489+1035211840+1035320620+1034915118+1034121516+1033505415
3674+1033551889+1034130388+1034873626+1035370164+1035136499+1034381660
3666+1033812510+1033737647+1034091216+1034719601+1035444891+1036031579
3657+1036200208+1035750826+1034840664+1033940535+1033414788+1033308874
3649+1033265881+1032920774+1032439932+1032090253+1031952333+1032057155
3640+1032384314+1032783469+1033093498+1033316859+1033479892+1033439765
3632+1033124481+1032883923+1033236332+1033958414+1034234527+1033921699
3623+1033328119+1032767841+1032599007+1032940292+1033276936+1033103052
3615+1032605422+1032153719+1031847648+1031705019+1031804109+1032048556
3606+1032181290+1032168665+1032260452+1032732013+1033623817+1034601949
3598+1035204606+1035262408+1034917097+1034361391+1033758461+1033333442
3589+1033276390+1033401753+1033158944+1032530695+1032187977+1032419732
3581+1032818068+1032959810+1032953804+1033042793+1033040268+1032617092
3572+1031877948+1031265532+1031001294+1030828434+1030350321+1029728897
3564+1029545732+1029961061+1030576206+1030840786+1030531097+1029935197
3555+1029505537+1029409655+1029480491+1029523348+1029494276+1029340388
3547+1028898717+1028134460+1027363651+1026977940+1027066110+1027480757
3538+1028053318+1028556477+1028619124+1028051339+1027273911+1027059968
3530+1027705550+1028594215+1028887320+1028548287+1028168513+1028018856
3521+1027944607+1027952728+1028143877+1028263644+1027988146+1027473182
3513+1027085218+1026856057+1026632151+1026456766+1026431311+1026451852
3504+1026378081+1026266913+1026268482+1026360679+1026278719+1025701517
3496+1024573181+1023339410+1022719146+1023053948+1023925757+1024526025
3488+1024437991+1023983832+1023776850+1024105373+1024823634+1025633068
3479+1026298987+1026648120+1026614612+1026364296+1026155608+1026020486
3471+1025797467+1025472765+1025228181+1025163827+1025169628+1025089169
3462+1024894130+1024688922+1024600547+1024709668+1025022905+1025391214
3454+1025519443+1025219104+1024603345+1023940361+1023466138+1023387317
3445+1023765726+1024332896+1024689127+1024748635+1024759144+1024831755
3437+1024751092+1024403733+1024095273+1024170955+1024538036+1024858302
3428+1025028774+1025158231+1025243194+1025187985+1025055184+1025038601
3420+1025149360+1025107322+1024692129+1024142975+1024003213+1024497431
3411+1025297925+1026007247+1026518116+1026741272+1026449463+1025682818
3403+1024922451+1024543700+1024436149+1024412332+1024604437+1025138509
3394+1025708136+1025829678+1025441032+1025001408+1024973360+1025387119
3386+1025962343+1026459222+1026775803+1026909355+1027010219+1027257874
3377+1027557940+1027620860+1027372250+1027012812+1026740521+1026686950
3369+1026956307+1027495361+1028042809+1028305341+1028154114+1027765263
3360+1027569132+1027811123+1028200656+1028268899+1027961599+1027620383
3352+1027541698+1027737352+1027986781+1028074406+1028055161+1028148927
3343+1028310255+1028218126+1027823475+1027550911+1027761305+1028350382
3335+1029051377+1029746913+1030257919+1030266313+1029762405+1029222668
3326+1029101741+1029411088+1029858082+1030141633+1030149617+1030051483
3318+1030067179+1030132966+1030080555+1030025346+1030166064+1030342132
3309+1030231919+1029865384+1029564635+1029501920+1029570300+1029550850
3301+1029266480+1028784273+1028496695+1028728245+1029275488+1029660790
3292+1029762882+1029861972+1030155827+1030573204+1030940216+1031091853
3284+1030972018+1030803661+1030949429+1031449926+1031875696+1031822057
3275+1031434844+1031181525+1031156821+1031022040+1030648613+1030359397
3267+1030428801+1030744085+1031072745+1031387483+1031778108+1032169211
3258+1032321939+1032198146+1032107314+1032267754+1032438840+1032256357
3250+1031724264+1031171152+1030946904+1031227111+1031828608+1032238273
3241+1032116185+1031719896+1031558296+1031719419+1031897397+1032008907
3233+1032295188+1032745526+1032946161+1032678033+1032294574+1032331493
3224+1032899210+1033498727+1033496612+1032888359+1032368003+1032481629
3216+1033079508+1033703253+1034040989+1033934666+1033424820+1032871776
3207+1032723688+1033084285+1033599659+1033738125+1033250731+1032435428
3199+1031869349+1031869008+1032288090+1032811722+1033281918+1033677115
3190+1033907164+1033840626+1033565742+1033373569+1033377459+1033405848
3182+1033368519+1033437240+1033743175+1034149837+1034425062+1034449630
3173+1034223403+1033866081+1033616993+1033619723+1033681824+1033472931
3165+1033022252+1032794865+1033140654+1033839193+1034375586+1034532887
3156+1034491463+1034435231+1034342010+1034193649+1034107321+1034114282
3148+1034038669+1033818788+1033721883+1033967627+1034336073+1034461777
3139+1034328839+1034156729+1033992263+1033747884+1033482417+1033354461
3131+1033379506+1033456416+1033568881+1033741128+1033818243+1033517904
3122+1032832945+1032178219+1031945918+1032061113+1032156722+1032033133
3114+1031745897+1031353088+1030854912+1030356804+1030008285+1029755034
3105+1029429241+1029126991+1029129857+1029404400+1029525054+1029168756
3097+1028411732+1027549887+1026832309+1026315365+1025821898+1025024065
3088+1023645959+1021717334+1019729269+1018420225+1018247160+1019050111
3080+1020256585+1021405871+1022433548+1023433517+1024296181+1024836464
3071+1025175019+1025623924+1026243983+1026845138+1027334238+1027783348
3063+1028253954+1028705793+1028973853+1028863640+1028416100+1027960098
3054+1027723908+1027562308+1027214403+1026676031+1026196963+1026018439
3046+1026175194+1026432334+1026419163+1025955518+1025239441+1024553118
3037+1023881740+1023013411+1021854162+1020436475+1018796451+1016962480
3029+1014850621+1012172957+1008663407+1004258505+998938049+992853269+986865325
3019+982363449+980104458+979611059+979962102+980766896+982143637+984104541
3009+986218310+987808039+988491086+988542815+988520568+988554348+988340337
2999+987750510+987025015+986429865+986109530+986229639+986980657+988435263
2989+990491026+992906499+995373290+997582600+999225217+1000003942+999708585
2979+998219174+995455251+991494544+986763711+982001691+977964142+975058887
2969+973039021+970972544+967649162+962167175+954337617+944895878+935496655
2959+928216865+924545442+924399265+925816679+925662039+921105295+911123684
2949+897335595+883778851+875277711+874828806+881818016+892587019+902622748
2939+908500205+908731959+903757839+895463407+886621664+880333655+879122267
2929+883808879+893107784+904472620+915587480+925351805+933734817+941003141
2919+947291424+952673025+957244100+961099712+964379351+967264269+969849532
2910+972098627+973962626+975467460+976679325+977609413+978179177+978296214
2900+977920944+977072134+975917798+974884525+974502158+975069874+976548366
2890+978720824+981339116+984159341+986941348+989454955+991541359+993213935
2880+994637013+995885184+996755218+996995298+996719186+996356131+996134954
2870+995876517+995351657+994585558+993733744+992829588+991642359+989557116
2860+985613743+979107082+970621227+962405890+957163573+956097953+958193911
2850+961294820+963622737+964291453+962734754+958366294+951673806+945599944
2840+944466696+950498724+961802960+974173225+984390003+991586195+996367255
2830+999590592+1001901312+1003728595+1005348283+1006912966+1008401762
2822+1009618882+1010423881+1010958363+1011509564+1012230623+1013075339
2813+1013886548+1014512134+1014928282+1015188562+1015267520+1015183922
2805+1015190473+1015506508+1016021063+1016546468+1017096987+1017688589
2796+1018220955+1018665765+1019020903+1019159437+1019092081+1019180251
2788+1019733227+1020594663+1021349366+1021722793+1021695155+1021481417
2779+1021417405+1021647385+1021937965+1021961099+1021702048+1021444838
2771+1021408396+1021538127+1021694677+1021904594+1022265737+1022673628
2762+1022880542+1022826356+1022679633+1022558911+1022463711+1022450882
2754+1022618351+1022893849+1023061864+1023032656+1022924900+1022842257
2745+1022729997+1022553929+1022480499+1022712868+1023201695+1023707719
2737+1024130350+1024571885+1025074497+1025512619+1025783613+1025904609
2728+1025866461+1025604543+1025188054+1024847383+1024722225+1024738262
2720+1024766037+1024753139+1024696156+1024641766+1024691993+1024875363
2711+1025063919+1025138987+1025154205+1025242307+1025447310+1025699469
2703+1025871647+1025865096+1025708000+1025549334+1025502382+1025528997
2694+1025493443+1025310619+1025065079+1024956913+1025078523+1025340373
2686+1025654497+1026009294+1026306630+1026376989+1026248487+1026168506
2677+1026288477+1026507675+1026658766+1026704830+1026730353+1026838996
2669+1027073208+1027357032+1027499046+1027350480+1027014655+1026795935
2660+1026883491+1027181783+1027477003+1027637580+1027635942+1027508395
2652+1027353619+1027279371+1027309739+1027352323+1027275549+1027026324
2643+1026693297+1026456220+1026464818+1026709129+1027012812+1027195568
2635+1027200959+1027006602+1026576533+1026040072+1025718509+1025774127
2626+1026020895+1026234361+1026420324+1026654125+1026898641+1027088699
2618+1027180213+1027071570+1026717660+1026375147+1026471574+1027121797
2609+1027951499+1028521604+1028778063+1028939458+1029072737+1029038070
2601+1028838731+1028742098+1028953994+1029386520+1029803214+1030024937
2592+1030017225+1029975665+1030239221+1030861054+1031382843+1031324904
2584+1030849180+1030597839+1030861463+1031281842+1031501108+1031680998
2575+1032107996+1032660358+1032990997+1033002803+1032933058+1033098344
2567+1033580483+1034087394+1034255955+1034118036+1034001954+1034015056
2558+1033988305+1033903342+1033992468+1034391487+1034965208+1035507675
2550+1035903622+1036089858+1036006533+1035624371+1034972033+1034188599
2541+1033573727+1033418405+1033735805+1034316692+1035013115+1035717386
2533+1036169908+1036159398+1035884787+1035802145+1036070477+1036373887
2524+1036372591+1036160900+1036104667+1036370543+1036882846+1037606430
2516+1038499735+1039299138+1039745791+1039932504+1040115533+1040322924
2507+1040408979+1040370627+1040391782+1040626130+1041077355+1041664930
2499+1042224934+1042418336+1041931010+1040932952+1040053568+1039725863
2490+1039834780+1040084482+1040337460+1040553246+1040739550+1040949467
2482+1041103423+1041016754+1040749582+1040560752+1040428360+1040105365
2473+1039660691+1039436580+1039524341+1039753911+1040037599+1040327292
2465+1040444534+1040226087+1039690445+1039047866+1038672801+1038842931
2456+1039341790+1039575455+1039210695+1038474144+1037800309+1037378156
2448+1037097198+1036856709+1036768675+1036942900+1037245082+1037473219
2439+1037599742+1037704291+1037857293+1038072805+1038206562+1038068847
2431+1037776902+1037689619+1037866301+1037977401+1037869576+1037813344
2422+1038033770+1038347894+1038472711+1038430332+1038393139+1038351647
2414+1038216662+1038078128+1038093142+1038232904+1038342708+1038355196
2405+1038372052+1038571869+1038964473+1039228574+1039024254+1038434222
2397+1037827539+1037407296+1037189327+1037199154+1037369353+1037495808
2388+1037524197+1037636662+1037980131+1038548461+1039241882+1039830617
2380+1040083390+1040128363+1040394443+1041010544+1041614498+1041897435
2371+1041939882+1041908558+1041831375+1041777190+1041887471+1042124549
2363+1042301572+1042433964+1042715468+1043029523+1042915352+1042146796
2354+1040997442+1039926908+1039270271+1039119794+1039352777+1039720336
2346+1039840308+1039306099+1038232631+1037504748+1037885204+1039057898
2337+1040011735+1040239190+1040053841+1039799293+1039378027+1038704807
2329+1038030835+1037494579+1036871927+1036091565+1035546573+1035589089
2320+1036035878+1036445270+1036568722+1036349047+1035846503+1035310588
2312+1035121417+1035531560+1036498090+1037750765+1038900256+1039501343
2303+1039298387+1038578966+1038027628+1038013433+1038242390+1038256789
2295+1037975217+1037591280+1037257980+1037101088+1037290259+1037835182
2286+1038478239+1038973412+1039256076+1039192201+1038556719+1037488437
2278+1036620723+1036606802+1037652017+1039202710+1040046061+1039389970
2269+1037940004+1037190282+1037801333+1039298182+1040875013+1041827963
2261+1041735084+1040862047+1040111029+1040223767+1041082473+1041880579
2252+1042035832+1041811653+1041788996+1041989427+1042069408+1042160854
2244+1042764739+1043883521+1045033421+1046101770+1047403375+1048874633
2235+1050063569+1050919955+1051655754+1051882322+1050940905+1049120105
2227+1047642364+1047333699+1047774551+1047734629+1046339939+1043937569
2218+1041753646+1040677244+1040535229+1040499675+1040030570+1039370043
2210+1039102938+1039470770+1040406113+1041803395+1043213030+1043810841
2201+1043267215+1042155599+1041259974+1041105403+1042069681+1044081290
2193+1046202088+1047184997+1046619464+1045177960+1043708681+1042529982
2184+1041737814+1041513702+1041640157+1041430582+1040749923+1040284640
2176+1040333229+1040259049+1039648544+1039215813+1039983892+1041864405
2167+1043422400+1043328361+1042020000+1041386702+1042811076+1046070105
2159+1049729654+1052111347+1052560593+1052090260+1052240873+1053212999
2150+1053658150+1052557385+1050647527+1049471899+1049552631+1050069574
2142+1050054493+1049406659+1048748247+1048618380+1049024837+1049540961
2133+1049491826+1048337422+1046408251+1044949140+1044827667+1045437490
2125+1045497544+1044723937+1044006154+1044017823+1044466114+1044870183
2116+1045280257+1045771268+1045893560+1045360648+1044838518+1045223820
2108+1046296468+1046815868+1046052703+1044695070+1044008406+1044518320
2099+1045792491+1047013365+1047422825+1046810818+1045986917+1046151929
2091+1047526145+1049141533+1050084656+1050412497+1050659401+1050871365
2082+1050556491+1049634182+1048924861+1049244239+1050362816+1051387626
2074+1051870448+1052044400+1052104727+1051684348+1050450918+1049209572
2065+1049508341+1051585941+1053633992+1053811220+1052268921+1050826052
2057+1051033034+1052523127+1053427829+1052830290+1051986120+1052385139
2048+1053723391+1054757482+1055159913+1055448582+1056013910+1056769705
2040+1057229051+1057066359+1056727190+1056950959+1057942535+1059446550
2031+1061001201+1061793302+1061293624+1060362649+1060696973+1062885946
2023+1065716270+1067401949+1066916602+1064396990+1061147583+1059104241
2014+1059336815+1061081387+1062881783+1064416712+1066341447+1068390044
2006+1068886105+1066901998+1063815352+1061819985+1061752424+1062931532
1997+1064333455+1065264226+1065355195+1064660204+1063837736+1063709165
1989+1064428109+1065367137+1065752303+1065223348+1064017284+1063019839
1980+1063608848+1066681913+1071077808+1073741823+1072842785+1069867171
1972+1067590915+1067023062+1067183161+1066940283+1066117882+1065150192
1963+1064294147+1063231394+1061488937+1059365409+1057880843+1057533280
1955+1057777045+1057884938+1057704093+1057434327+1057128597+1056664133
1946+1056125283+1055823716+1055618645+1054788738+1053268344+1052087462
1938+1051929342+1052321127+1052438437+1051864169+1050432902+1048142860
1929+1045473590+1043316145+1042369747+1042681824+1043717621+1044868750
1921+1046003909+1047302170+1048563171+1049187188+1049051861+1048845835
1912+1049307433+1050412565+1051406325+1051747541+1051725499+1051881640
1904+1052301200+1052705883+1052822238+1052470238+1051630299+1050637632
1895+1050061863+1050172963+1050678919+1051096773+1051162833+1050905555
1887+1050476100+1049950967+1049310231+1048521952+1047554876+1046381909
1878+1045073002+1043799922+1042693903+1041772276+1040986113+1040248676
1870+1039545292+1039150094+1039369429+1039925748+1040180023+1039843651
1861+1039186195+1038619707+1038172918+1037528496+1036599568+1035823095
1853+1035664020+1036005441+1036385762+1036661396+1037077544+1037899945
1844+1039200117+1040691916+1041856489+1042431234+1042495110+1042289220
1836+1042127142+1042298842+1042899179+1043734682+1044431719+1044779146
1827+1044913176+1044963744+1044820911+1044402921+1043850081+1043267351
1819+1042525069+1041471801+1040185619+1038835834+1037471377+1036131146
1810+1034952583+1034020175+1033351049+1033048526+1033143316+1033360739
1802+1033346545+1033139221+1033139153+1033544996+1034172903+1034763754
1793+1035121281+1035051604+1034560321+1034013282+1033773065+1033917332
1785+1034285778+1034711411+1035196485+1035793341+1036426162+1036941058
1776+1037290122+1037624856+1038209838+1039096114+1039954683+1040567236
1768+1041013206+1041350601+1041605899+1041873345+1042163652+1042330712
1759+1042350843+1042368314+1042388309+1042283965+1042078143+1041930737
1751+1041871775+1041693387+1041292526+1040971646+1041121371+1041771799
1742+1042546634+1043071834+1043357433+1043658454+1044118551+1044730011
1734+1045325366+1045619972+1045621064+1045562580+1045608576+1045826954
1725+1046173630+1046455953+1046458546+1046173562+1045811873+1045662147
1717+1045858141+1046108526+1046087576+1045812964+1045435579+1045075049
1708+1044797845+1044584653+1044314409+1043905085+1043444170+1043085346
1700+1042889966+1042732324+1042498931+1042266699+1042185968+1042358964
1691+1042874475+1043736115+1044684970+1045446225+1046128044+1046975558
1683+1047705830+1047951915+1047897184+1047793795+1047748277+1047811607
1674+1047989108+1048191654+1048319201+1048299001+1048104371+1047915542
1666+1048012720+1048447498+1048848428+1048670722+1047959900+1047237544
1657+1046767484+1046513005+1046509046+1046935431+1047428216+1047541568
1649+1047453398+1047384677+1047331037+1047196120+1047017528+1046855859
1640+1046743462+1046782088+1047098669+1047524371+1047492365+1046920076
1632+1046273334+1045805799+1045516788+1045349046+1045347135+1045622088
1623+1046106684+1046495330+1046627926+1046643145+1046695010+1046770418
1615+1046794508+1046835796+1046979584+1047164592+1047210861+1046925536
1606+1046094536+1044393094+1041396187+1036770927+1030790422+1024854480
1598+1021097548+1020951303+1023903032+1027929252+1031332615+1033751569
1589+1035518116+1036812624+1037563778+1037653791+1036894516+1035058633
1581+1032290820+1029337522+1027361809+1027711419+1030524751+1033921699
1572+1036733871+1039160604+1041372166+1043082207+1044189592+1044903554
1564+1045363446+1045652251+1045922904+1046345877+1046805427+1047024011
1555+1047152103+1047349668+1047600257+1047835629+1047985082+1048020500
1547+1048050527+1048252459+1048674749+1049245331+1049955130+1050547414
1538+1050526600+1050094551+1049699491+1049538573+1049566621+1049560888
1530+1049405908+1049233252+1049246082+1049412732+1049448560+1049171424
1521+1048645472+1048061105+1047475236+1046787820+1046079386+1045616560
1513+1045341062+1044537155+1040976764+1028517646+1000679415+972808972+967062679
1503+977483709+992666691+1006659646+1017057406+1023991611+1028321719+1030497590
1493+1031159141+1031057595+1030797724+1030805709+1030982800+1030846450
1485+1030029577+1028268148+1025455090+1021803389+1017502011+1012335718
1476+1005847414+997259946+985623365+972089415+959935754+950088923+941013310
1466+931331764+921300949+912652334+906338802+901756876+898092687+895509472
1456+894920395+895840725+897249199+899282509+902938714+909454588+919034861
1446+929894901+939396762+944725338+942623716+932225615+918233138+909767211
1436+914133215+927483045+941277821+954496282+969421578+984917046+997303144
1426+1005025969+1008712816+1009186834+1007200680+1003217726+997327370+990787611
1417+986238510+985275051+988213677+994597227+1002889885+1011093007+1018049118
1407+1023730171+1028432274+1032168733+1034962410+1037148040+1039052438
1398+1040698809+1041952848+1042797428+1043315531+1043542167+1043504292
1390+1043366236+1043404316+1043731611+1044139843+1044397871+1044444481
1381+1044213750+1043488392+1041864883+1038588520+1032329855+1021744631
1373+1006694382+987731606+965221883+941712122+923543903+916981009+924109708
1363+941831070+962616489+979977730+992773356+1002564159+1010572651+1017339865
1353+1023186408+1028372561+1033020546+1037090920+1040551062+1043493646
1344+1046020083+1048163128+1049956563+1051420315+1052491599+1053150488
1336+1053567864+1053992065+1054571451+1055315167+1056130333+1056868317
1327+1057429072+1057815602+1058027771+1057899951+1056915063+1054142678
1319+1049042171+1043009460+1039265426+1040163986+1044989950+1050853827
1310+1055457863+1058411640+1060302731+1061535410+1062128786+1062038568
1302+1061330885+1060009012+1057762782+1054073206+1048710508+1042151300
1293+1035514089+1030105600+1026850871+1025759523+1025789755+1025567487
1285+1024511557+1023147987+1022311051+1022213258+1022205001+1021168180
1276+1018093408+1012418770+1003885691+991988148+975546281+953341742+926140220
1266+898303286+876042650+862277219+852698174+837187283+805183819+750917537
1256+676579729+593341352+518652875+468689198+450340237+459240772+484544650
1247+515465365+545051854+570657266+592791788+613500638+634773997+657572390
1237+681749707+706558139+731243324+755413271+779005948+801896879+823578401
1227+843250021+860049483+873021586+880836745+881762602+874763429+861841963
1217+849254411+844701215+851903208+867836730+885318353+897931086+903077794
1207+902314151+899846813+899479528+901670207+903748967+903208071+900059869
1197+895742045+890512285+882646217+870445468+854901479+839614357+827468476
1187+817889159+807840669+794870067+778951217+762761031+751191602+749501214
1177+760239031+781390302+807553706+832929376+853704286+868939474+880337340
1167+890886600+902568494+914826977+925267456+931559424+932434986+927408318
1157+916725301+902690581+890886600+888241897+898113774+917352389+938944240
1147+957246489+970494022+979621568+986126250+990954671+994433648+996599691
1137+997480303+997184946+995848810+993529424+990232383+986087966+981271078
1128+975337729+966241438+949588290+919145756+870412643+807079414+744640378
1118+704227015+699099620+726141793+770429057+816905227+857703823+891422651
1108+918978423+940974206+957563274+969304268+977490260+983640555+988836125
1098+993527376+997790742+1001624721+1005054768+1008101833+1010732750+1012855937
1088+1014405948+1015435125+1016074975+1016441715+1016621331+1016628701
1079+1016342762+1015632349+1014575055+1013377862+1012073186+1010405864
1071+1007996943+1004571810+1000102349+994761898+988662991+981651330+973434354
1061+963804946+952516611+938932229+922031153+900885477+875126279+845111631
1051+811850852+776644865+740518071+703972468+667494630+632518828+601825431
1041+578500200+563975083+556928515+554032985+551532174+546233283+535879506
1031+519488958+497483246+471195435+442151719+411834412+381956728+354615513
1021+331790847+314459325+302275979+294338016+290245429+290323636+294946098
1011+303847964+316107675+330632621+346526733+363088128+379781847+396404047
1001+413114520+430123387+447350053+464390824+480752266+496164921+510770019
992+524968352+539028595+552897416+566392535+579355767+591404537+601707507
982+609467116+614772489+618586404+621713314+624399577+627471892+633134451
972+643462193+658117722+674432384+689829787+703545196+715950402+726693131
962+733513370+732955617+723417929+708612400+697213033+697213716+709954883
952+730050703+750665446+768032624+781780654+793014736+802905925+812187087
942+820995186+829060457+836219729+842713423+848896065+854787922+860088587
932+864493557+867697036+869079578+867496060+861412848+849956157+835062527
922+822512236+819021794+827127737+843400088+861817804+878073231+890880321
912+900813753+908889806+915820054+921890708+927184548+931757398+935613215
902+938572382+940098440+939332954+935692445+929679934+922935923+917357303
892+914319792+914617742+918403610+924692302+931387041+936350038+938343016
882+936972281+932494426+925996568+919028923+912643940+907398143+904517660
873+906125883+913473029+925118345+937426713+947019133+952774708+955832350
863+958141022+961045595+964814743+969038664+973206080+976832395+979266157
853+979818382+978295873+975102699+970487607+963758336+953236852+936664981
843+911991398+879165124+841922824+806558104+777247249+752466865+726546476
833+694365580+654241364+607549546+557671276+510091578+472065674+449893243
823+445333087+454763019+471906155+491267575+509493493+524514261+534231839
813+536429036+530202548+517833682+505276430+499878758+506303527+524100775
803+549044567+576400148+603179174+628444700+652388285+675197937+696472661
793+715398722+731376671+744577867+755880943+766155933+775688230+784350562
783+792032987+798659006+803972295+807522723+808749534+806966472+801196156
773+789666718+769216169+735899840+687666405+627388089+563034554+504324640
764+458979366+431218659+421757402+428069331+445261943+467897917+492006070
754+515926622+539536667+563076558+586817084+611163850+636355331+662034071
744+687153692+709415078+723757166+722825508+702913263+671249856+644572989
734+637254915+650490847+671701012+680916934+660706670+609662906+549146591
724+509515706+505989641+530664044+565998601+600295552+630377488+656424059
714+678781054+697790577+714057946+728351785+741229644+752828145+763155478
704+772352564+780346657+786085512+787304201+782260541+772911068+765507007
694+766195241+775955266+790628334+805193169+817250197+827085836+835662590
684+843315398+850064596+856033840+860926137+863851592+864733569+865540410
674+868862291+875128190+882584730+889989746+897616689+905115745+910993134
664+915273493+918833679+922102740+925278512+928729509+932662577+936691118
654+940197051+943048463+945708588+948678947+951968140+955098393+957574466
645+959376227+961002329+962929180+965065128+966915000+968246632+969425331
635+971076001+973408899+975856924+977490124+977879452+977461530+976957007
625+976496092+975444189+973046664+968962983+963154383+955711628+947002072
615+937535561+927351198+915642553+900894144+881078940+853850600+817309227
605+770956783+715342422+651250122+581481956+513570145+457370802+418853683
595+398113441+392473743+399120371+414937198+435884524+458123492+479551422
585+499790041+519109525+537554505+554666078+569893930+583373457+595837693
575+607431007+616899770+621843659+619289038+607154008+587374905+567534554
565+557247041+561873393+579738271+604879184+631529504+656043602+676441945
555+691807752+701680310+705037951+700307664+687485833+670497541+656463777
545+651293320+655822358+666721501+680166462+693579349+705273936+714374322
535+721079707+726346660+731201900+735969789+739524175+738744904+728330903
526+703483026+666854439+631241108+612009385+617022540+641779926+673419107
516+700891759+720755483+734694185+745250474+754157116+762500137+770779146
506+778571648+785140546+790727424+796465733+802588116+807568173+809753257
496+809315680+807941464+806643135+804920673+801982729+797030447+787844757
486+769992709+738119864+690291180+633701143+585024058+561784745+570129063
476+600961744+639773777+676637121+706914301+729895927+748223222+764616363
466+779217161+791278079+801684847+812077010+822800768+832776443+840530524
456+845542178+848838536+851787262+855029367+858405911+861351429+863443088
446+864559890+864095972+859902623+848915719+828777042+797505830+753921062
436+702807690+657865358+633327306+633642454+653303291+682476840+712796331
426+740493776+764521982+783321247+795636235+802681404+806841450+807819513
416+801273067+781941504+746475919+697993532+647248811+603426557+567600681
407+538992460+521930773+522058354+538707033+565384070+594386293+615508084
397+617230887+600395529+579919798+570949962+579737384+602219059+630277443
387+660030378+691989484+723192043+745698764+756555938+760928902+765659735
377+773997433+784515847+794609582
##END=
