##TITLE=YCW-YTL-17
##JCAMP-DX=4.24
##DATA TYPE=INFRARED SPECTRUM
##DATE=8/7/2021
##SAMPLING PROCEDURE=Diamant-ATR
##ORIGIN=Lara
##XUNITS=1/CM
##YUNITS=TRANSMITTANCE
##RESOLUTION=4
##FIRSTX=3997.453
##LASTX=373.96442
##DELTAX=-1.4165319
##MAXY=0.97395611
##MINY=0.44061321
##XFACTOR=1
##YFACTOR=9.0706731e-010
##NPOINTS=2559
##FIRSTY=0.96903872
##XYDATA=(X++(Y..Y))
3997+1068320634+1067608717+1067121139+1067085852+1067263864+1067311899
3989+1067161945+1067003450+1066986102+1067095905+1067267609+1067436488
3980+1067470986+1067236199+1066790150+1066418947+1066400679+1066718459
3972+1067028354+1067014752+1066783579+1066788836+1067343177+1068284756
3963+1069082295+1069219697+1068646037+1067866766+1067404946+1067324121
3955+1067392592+1067429851+1067364074+1067281409+1067457055+1067910267
3946+1068113578+1067715827+1067144729+1067037817+1067398309+1067799871
3938+1068060154+1068216547+1068276805+1068260245+1068240269+1068288501
3929+1068484584+1068859927+1069257941+1069422417+1069323981+1069182702
3921+1069046351+1068725613+1068217073+1067886019+1068004168+1068327402
3912+1068409673+1068105035+1067711161+1067645647+1068011331+1068532093
3904+1068735996+1068295992+1067489057+1067085983+1067413029+1067901658
3895+1067961259+1067654649+1067340746+1067092817+1066733507+1066369992
3887+1066309012+1066532496+1066604779+1066452788+1066636320+1067332138
3878+1067777267+1067455872+1066767809+1066322877+1066433995+1067219969
3870+1068650834+1070075128+1070734739+1070690712+1070369581+1069902110
3861+1069223771+1068516454+1068137562+1068298555+1069079798+1070559881
3853+1072005268+1071834156+1070442980+1069180796+1068604179+1068565672
3844+1068598725+1068310909+1067689673+1067186061+1067344032+1068029007
3836+1068523222+1068823458+1069552394+1070736644+1071587870+1071592075
3827+1071123947+1070712266+1070270948+1069502059+1068748875+1068791062
3819+1069465721+1070041615+1070398297+1070453757+1069931614+1068984253
3810+1068131385+1067823988+1068236524+1069116925+1069977744+1070593788
3802+1070793091+1070112124+1068504495+1066746781+1065737323+1065954039
3793+1067093737+1068474596+1069596421+1070149250+1070023742+1069525058
3785+1069285014+1069583344+1070030444+1070277256+1070471170+1070747618
3776+1070857685+1070660814+1070298481+1069816357+1069066064+1068104115
3768+1067492211+1067858420+1069259518+1070998899+1072180455+1072373778
3759+1071634459+1070389557+1069202087+1068363938+1067929651+1067928994
3751+1068143673+1067926563+1067134215+1066332471+1066089339+1066651499
3742+1067616077+1068417230+1068891600+1069118896+1069372739+1069957767
3734+1070583340+1070620992+1070226396+1069953890+1069990952+1070180923
3725+1070359527+1070601213+1071066581+1071581627+1071694585+1071238679
3717+1070567438+1070142745+1070097470+1070257740+1070505998+1070889555
3708+1071159037+1070932004+1070236515+1069460267+1069020657+1069133484
3700+1069643339+1070154967+1070455334+1070687032+1071115273+1071695308
3691+1071948297+1071379696+1070292830+1069738029+1070081896+1070872404
3683+1071548311+1071758456+1071490551+1070971300+1070466768+1070339485
3674+1070823449+1071491274+1071932329+1072192677+1072242881+1071791772
3666+1070946001+1070232244+1070012242+1070127369+1070275679+1070612319
3657+1071474978+1072600088+1073255099+1073288020+1073041471+1072583988
3649+1071603640+1070297035+1069537018+1069637490+1070401516+1071442516
3640+1072273568+1072562961+1072325677+1071746300+1070934304+1069970581
3632+1069059296+1068472230+1068379577+1068661479+1069054170+1069554497
3623+1070269437+1071201421+1072127820+1072426938+1071615140+1070327854
3615+1069645441+1069989703+1070988385+1072033261+1072794199+1073077547
3606+1072806027+1072278431+1071937651+1072015322+1072424507+1072822455
3598+1072940144+1072833100+1072637675+1072235587+1071475897+1070622964
3589+1070254651+1070736184+1071617046+1072049229+1071945077+1071654435
3581+1071419057+1071536943+1072267062+1073278426+1073741823+1073291897
3572+1072407882+1071645236+1071102197+1070763126+1070806496+1071263255
3564+1071935417+1072750830+1073491528+1073621834+1072913137+1071874108
3555+1071150823+1070914065+1070997453+1071228954+1071468669+1071604692
3547+1071665015+1071771993+1071946457+1072100944+1072195503+1072246166
3538+1072253329+1072208974+1072126703+1072017885+1071889682+1071790655
3530+1071772322+1071730135+1071419714+1070828772+1070380817+1070506720
3521+1071077358+1071518544+1071424117+1070884232+1070340733+1070178361
3513+1070359593+1070486941+1070297364+1070024136+1070052852+1070376086
3504+1070705300+1070936341+1071242425+1071702667+1072080639+1072049886
3496+1071511644+1070699583+1070029459+1069829433+1070093790+1070399611
3488+1070245780+1069630853+1069045891+1068867747+1069086435+1069524138
3479+1069982146+1070230864+1070137422+1069798483+1069464735+1069387064
3471+1069671660+1070149382+1070477676+1070468213+1070190714+1069753931
3462+1069239279+1068906057+1069150240+1070028144+1071000410+1071425300
3454+1071257867+1070960326+1070854465+1070943241+1071213972+1071652990
3445+1072063620+1072245903+1072236441+1072120329+1071790392+1071113631
3437+1070231324+1069448439+1068861702+1068374452+1068081445+1068292510
3428+1069077761+1070096878+1070939364+1071385741+1071357354+1070928456
3420+1070393368+1070027224+1069751171+1069323061+1068834563+1068683361
3411+1068993059+1069437333+1069738883+1069961053+1070201162+1070297298
3403+1069970910+1069208461+1068482153+1068408885+1069050293+1069795395
3394+1070075654+1069913149+1069760108+1070070331+1070936867+1071985226
3386+1072724348+1072966429+1072775734+1072258389+1071605940+1071054819
3377+1070717720+1070619021+1070712068+1070724685+1070343888+1069691308
3369+1069273383+1069429119+1070088402+1070968868+1071727244+1071999486
3360+1071611066+1070845134+1070290464+1070227513+1070314449+1070145571
3352+1069908024+1070084065+1070627958+1070872601+1070315303+1069246442
3343+1068426429+1068220293+1068282456+1068134080+1067738891+1067341009
3335+1067063444+1066920653+1066960409+1067135989+1067199795+1066908234
3326+1066298892+1065692310+1065420265+1065550177+1065878931+1066146836
3318+1066180743+1065866183+1065144015+1064099467+1062943078+1061856014
3309+1060960828+1060405896+1060236820+1060191282+1059919500+1059421342
3301+1058986135+1058746486+1058604090+1058504800+1058497046+1058580893
3292+1058687346+1058746815+1058718953+1058612172+1058456567+1058288543
3284+1058215210+1058346895+1058534633+1058424763+1057928182+1057328106
3275+1056784673+1056134919+1055384035+1054931086+1054994958+1055198926
3267+1055073089+1054663181+1054295460+1054013033+1053603388+1052986292
3258+1052289949+1051685010+1051265443+1050938134+1050456536+1049767880
3250+1049195403+1049045975+1049224053+1049460482+1049633895+1049600579
3241+1049110109+1048247910+1047543419+1047283070+1047127794+1046712892
3233+1046203432+1045998018+1046226694+1046666829+1046943934+1046830713
3224+1046458984+1046118402+1045853913+1045459711+1044843798+1044192007
3216+1043774871+1043679852+1043692929+1043433303+1042713961+1041763248
3207+1040959664+1040339480+1039572037+1038460332+1037224761+1036190463
3199+1035482686+1035121339+1035065616+1035079218+1034876104+1034471125
3190+1034126206+1033958708+1033776556+1033286940+1032407656+1031404178
3182+1030650468+1030215459+1029815803+1029206789+1028435009+1027648444
3173+1026883892+1026128737+1025425757+1024827783+1024339679+1023972155
3165+1023788886+1023779424+1023671723+1023081043+1022020790+1021056804
3156+1020639734+1020481107+1019999048+1019184687+1018539598+1018289698
3148+1018160115+1017894181+1017548014+1017205066+1016746663+1016046903
3139+1015193049+1014353981+1013554799+1012720987+1011881590+1011178018
3131+1010681174+1010293674+1009818647+1009072363+1007951918+1006484320
3122+1004871566+1003459625+1002552348+1002197112+1002164520+1002119047
3114+1001774522+1000981780+999830188+998624713+997598039+996684256+995689780
3104+994537991+993208124+991681123+990110358+988767809+987667341+986517654
3094+985150266+983717232+982421338+981299316+980318903+979489954+978806950
3084+978133474+977225014+975907369+974210701+972292849+970271304+968172285
3074+966053816+964154955+962854329+962403155+962708844+963409919+964136950
3064+964728483+965273691+965957812+966852867+967868962+968848258+969663605
3054+970229117+970454113+970219524+969452672+968232083+966757914+965194837
3044+963552315+961776137+959995161+958564230+957707617+957247243+956855932
3034+956401340+955849956+955062077+953933155+952602237+951329670+950232487
3024+949242545+948305238+947465184+946687621+945822399+944916962+944300787
3014+944120540+944038073+943599975+942715237+941642696+940672401+939897270
3004+939176022+938274988+937079500+935713426+934478841+933645489+933227631
2995+932984893+932636294+932034378+931161731+930066585+928833774+927578226
2985+926397853+925252372+923932625+922295688+920529432+919023656+917986467
2975+917311480+916756613+916119476+915323382+914472091+913751829+913200379
2965+912666737+912044779+911421769+910955941+910681662+910443064+910027045
2955+909447077+908998399+908884653+908957658+909012330+909060168+909068842
2945+908793445+908160908+907522193+907286289+907538095+908100585+908674376
2935+908845489+908226159+906707043+904456100+901689454+898597668+895474143
2925+892719193+890626154+889245624+888537715+888594227+889602108+891595266
2915+894317097+897328584+900195046+902598242+904405962+905706325+906731357
2905+907692911+908637184+909377751+909581128+909021727+907803438+906316849
2895+904996379+904116569+903743526+903806543+904178601+904723151+905396233
2885+906338140+907695080+909318217+910834638+912047210+913061334+914025583
2876+914950076+915765094+916348743+916503822+916096740+915215550+914000547
2866+912328652+909919213+906806268+903458273+900334091+897521184+894897066
2856+892449908+890308900+888587065+887368973+886855767+887354188+888986064
2846+891435193+894095650+896496875+898562709+900500538+902538576+904750487
2836+907001168+908999056+910507330+911588413+912560745+913663644+914844806
2826+915900065+916708381+917296827+917768371+918205746+918633725+919086739
2816+919659151+920388153+921160196+921854831+922518647+923296341+924248696
2806+925297713+926281149+927067386+927708006+928434380+929416962+930590764
2796+931793546+932972605+934154621+935306082+936374483+937445447+938707040
2786+940187189+941650647+942891935+944012380+945218052+946432530+947367143
2776+947960319+948483908+949165860+949953017+950716846+951463196+952221505
2766+952919951+953485332+953935389+954321707+954701978+955143953+955645857
2757+956099331+956408240+956610500+956841475+957191191+957588416+957854745
2747+957915988+957885826+957887272+957894631+957831483+957703083+957526516
2737+957203348+956605177+955820715+955166492+954838592+954687587+954493213
2727+954292136+954245218+954339514+954429933+954482305+954609260+954873288
2717+955139813+955191265+954981383+954678454+954450632+954336557+954293648
2707+954201192+953862910+953176094+952219665+951068993+949709293+948194712
2697+946641623+945006527+943144266+941104848+939105842+937223540+935357402
2687+933462089+931624864+929955993+928514482+927280291+926156823+925073111
2677+924085075+923301204+922717621+922188513+921583508+920982841+920681291
2667+920884339+921429678+921956486+922327953+922723667+923371318+924341546
2657+925528885+926718064+927766686+928752029+929809128+930895140+931890470
2647+932815620+933769750+934777959+935810548+936806864+937669194+938370138
2638+939002478+939615500+940160444+940675030+941298237+942014096+942588742
2628+942851128+942899820+942985376+943246513+943593667+943860586+944053121
2618+944350793+944821681+945247491+945349278+945136044+944933587+945049568
2608+945420574+945646687+945447647+944995619+944615413+944283373+943735735
2598+942972694+942292450+941873606+941621405+941366117+940968168+940326300
2588+939494656+938732470+938245615+937886173+937272692+936227421+934935798
2578+933638721+932358729+930970905+929395803+927738036+926283778+925227862
2568+924383602+923405094+922251990+921142519+920152117+919223156+918468658
2558+918052770+917778031+917196157+916228622+915329756+914903158+914887519
2548+915041021+915289738+915663439+916165408+916774947+917400256+917872458
2538+918151732+918476609+919109212+919908131+920412663+920582330+921145345
2529+922743314+925004509+927032625+928592744+930220218+932293346+934502629
2519+936224990+937192984+937735431+938358572+939165180+939906930+940558064
2509+941451673+942724108+944030319+945062710+945941863+946802550+947380088
2499+947395858+947102654+947165146+948104621+949897228+951990595+953743972
2489+954925791+955735750+956446550+957200522+958048396+958959419+959809790
2479+960497788+961058503+961613238+962251033+963006385+963848017+964613291
2469+965118678+965443883+965933433+966803189+967903197+968930332+969722745
2459+970316842+970832808+971352322+971872165+972360992+972849359+973473222
2449+974400673+975641107+976939038+977949679+978541344+978865038+979139515
2439+979448293+979784406+980170855+980606916+980983573+981206203+981325272
2429+981476014+981793729+982375537+983177413+984003208+984701983+985306922
2419+985950105+986683510+987344238+987685345+987787264+988101890+988874459
2410+989813606+990554370+991126979+991770425+992524594+993176780+993515193
2400+993558826+993538455+993689986+994095885+994680716+995268307+995686495
2390+995901831+996034962+996209623+996407808+996523000+996554410+996663163
2380+996988631+997531473+998327566+999591788+1001444257+1003508317+1005031770
2370+1005593536+1005605036+1005838640+1006512379+1007293424+1008080581
2361+1009000540+1009729542+1009726322+1009067106+1008288623+1007702675
2353+1007392911+1007403491+1007599902+1007720351+1007617316+1007372344
2344+1007247032+1007433849+1007764706+1007873261+1007728236+1007751170
2336+1008205892+1008774756+1009028796+1009019399+1009075517+1009187292
2327+1009012894+1008478989+1008034123+1008221532+1009085702+1010118159
2319+1010830011+1011280134+1011955252+1013091928+1014192922+1014508731
2310+1014018590+1013470951+1013375932+1013525491+1013643378+1013946439
2302+1014726170+1015760401+1016538555+1016887811+1017049658+1017261840
2293+1017541837+1017810728+1018011739+1018092695+1018009570+1017834121
2285+1017803565+1018083233+1018509634+1018784307+1018860336+1018915336
2276+1019116150+1019655180+1020756963+1022385948+1024053506+1025035562
2268+1024904140+1024007574+1023229288+1023062250+1023270358+1023634070
2259+1024437655+1025899996+1027585690+1028756535+1029131944+1029039291
2251+1028871990+1028754629+1028787222+1029102703+1029477455+1029452484
2242+1029074907+1028961686+1029441116+1030142191+1030527194+1030417850
2234+1029982315+1029586273+1029736555+1030809227+1032475339+1033658933
2225+1033646907+1033162089+1033649207+1035498260+1037674358+1039070988
2217+1039472813+1039157924+1038357822+1037351321+1036452915+1035703674
2208+1035016990+1034634747+1034898381+1035612598+1036229299+1036575072
2200+1036896861+1037349678+1037835022+1038161148+1038239870+1038273843
2191+1038604240+1039152207+1039297298+1038517566+1036880170+1034878536
2183+1033126342+1032098879+1031806266+1031734115+1031385976+1030914103
2174+1030923368+1031603021+1032462920+1033009113+1033234503+1033296074
2166+1033092435+1032594934+1032483553+1033699608+1036063706+1038350265
2157+1040318650+1042597717+1044370413+1044294517+1043175517+1043009859
2149+1044018397+1044726109+1044260018+1042944805+1041537333+1040828701
2140+1041084516+1041681241+1041894146+1041634980+1041169283+1040705887
2132+1040204640+1039263588+1037685923+1036183827+1035785024+1036601422
2123+1037879903+1039039315+1039939955+1040367539+1039993707+1038886076
2115+1037567643+1036496876+1035830168+1035658464+1035893185+1035892265
2106+1035003125+1033634619+1032924805+1033189885+1033626077+1033668724
2098+1033723461+1034278459+1035023035+1035267153+1034910537+1034580403
2089+1034831749+1035513308+1036030128+1035984524+1035524282+1035323205
2081+1036023885+1037371823+1038373330+1038678493+1038995354+1039664887
2072+1039892643+1039059225+1037827268+1037255776+1037502851+1037967956
2064+1038286262+1038690519+1039574337+1041011642+1042465637+1042961298
2055+1042157582+1041144050+1041227504+1042188007+1042888227+1043285453
2047+1044389272+1046056042+1046406020+1044112956+1040494493+1038453103
2038+1039353875+1041893554+1044137269+1045593696+1046760205+1047661042
2030+1047876247+1047619644+1047818092+1048861720+1049899434+1050044788
2021+1049786542+1050321301+1051752824+1052581444+1051237055+1048133638
2013+1045536659+1045199231+1046846681+1049239824+1051940233+1055072497
2004+1057808325+1058612566+1057253195+1055233884+1053678759+1052068961
1996+1049891155+1047944915+1047014245+1046708687+1046475477+1046470615
1987+1046755868+1046916861+1046628519+1045795890+1044364499+1042527472
1979+1040834024+1039782707+1039553703+1040195441+1041636097+1043563675
1970+1045752324+1048106302+1049901800+1050010355+1048631730+1047386171
1962+1047313560+1048035465+1048574824+1048141984+1046614457+1044923769
1953+1044267049+1044489285+1044090023+1042229536+1040023343+1039284944
1945+1040334946+1041672304+1041802150+1040787303+1039454413+1038215754
1936+1037358943+1037325956+1038119355+1039050223+1039458685+1039380817
1928+1039296246+1039475835+1039798544+1039978199+1039808992+1039359855
1919+1038955598+1038812085+1038730077+1038436413+1038073095+1037957771
1911+1038116333+1038285408+1038272003+1038059952+1037651819+1037118177
1902+1036722989+1036706364+1036925840+1036882339+1036172393+1034933865
1894+1033758420+1033025409+1032578178+1032154996+1031800483+1031719855
1885+1031963645+1032342274+1032508523+1032264931+1031815728+1031567536
1877+1031752251+1032279256+1032817958+1033070881+1033057871+1033020941
1868+1033004119+1032768675+1032269728+1031773542+1031548020+1031636862
1860+1031810209+1031798841+1031598881+1031426520+1031418306+1031463975
1851+1031334064+1030976397+1030623921+1030550521+1030749036+1030816981
1843+1030330060+1029517276+1028947492+1028765012+1028615650+1028164147
1834+1027500791+1026933964+1026726119+1026974245+1027438890+1027834210
1826+1028175121+1028424561+1028392034+1028166184+1028043567+1028115126
1817+1028223550+1028208568+1028111249+1028133854+1028389537+1028810418
1809+1029363380+1030030219+1030600002+1030909174+1031109791+1031435259
1800+1031911141+1032394711+1032724911+1032890569+1033087506+1033444056
1792+1033746723+1033754214+1033572128+1033395956+1033391224+1033689160
1783+1034270311+1035036834+1035875706+1036609768+1037207084+1037818134
1775+1038478074+1039134859+1039875426+1040740648+1041661790+1042657712
1766+1043599553+1044285120+1044825530+1045441180+1046039811+1046452741
1758+1046718544+1046871125+1046978695+1047197580+1047557284+1047900757
1749+1047902531+1047286290+1046270129+1045247463+1044155274+1042714421
1741+1041007568+1039302226+1037664698+1036009100+1033934066+1030749430
1732+1026612110+1022023681+1016593161+1010363263+1004065878+998067941+992633018
1723+988480979+986048672+985382424+986812830+989931886+992680725+994027414
1713+994084845+992784680+990245658+986364284+980027998+970671158+959790470
1703+946903417+926529933+895035060+858731033+819883057+775070590+732400380
1693+699807798+673535008+649043523+627551499+610758167+595670966+577808904
1683+558646809+542294203+527930353+514148672+501193378+490773163+485755803
1673+488504017+501193213+526718536+561115979+592426006+617445351+642117740
1663+671226568+701832366+727244862+746304382+761191624+774047529+789545953
1653+812661639+832677194+842301086+849385824+860142974+874048356+885608302
1643+893888593+901068218+908118392+915058763+922409172+931154174+939561616
1633+944791059+947915176+950965958+954638830+958447921+961680067+964277046
1623+966534364+968183719+968435394+966466024+960527818+948118749+929328843
1613+904985208+872669928+830147306+780837552+734778869+702642916+690239695
1604+698105019+721989989+753786148+785434457+812494864+833839760+849700778
1594+860823481+868935091+876787404+886718956+899185916+912923143+926195265
1584+937813102+947374962+954828013+960269112+964062301+966004401+964680777
1574+959845471+952037316+940046106+923692449+908317629+899267201+896406062
1564+897515270+900653185+905917521+917244126+934745892+946741570+952694824
1554+957408893+961959866+966302994+970580016+974586176+978143002+981593901
1544+985081926+988265577+991633811+995996652+999573586+1001331233+1002326498
1534+1003579351+1005226933+1006477880+1007030841+1007397511+1007991805
1526+1008657527+1008987069+1008636959+1007209116+1004588087+1000807448
1517+995740706+990159970+985659792+983091791+982527002+984040927+988517514
1507+997487512+1007304595+1012526350+1014873298+1016618132+1018299817
1499+1019852906+1021399620+1022966443+1024181972+1024953095+1025588589
1490+1026342825+1026898283+1026509272+1024957103+1022407042+1018844171
1482+1014376782+1009826138+1006371296+1004696182+1004949105+1007145968
1473+1011095747+1015461283+1018384191+1019609445+1019828527+1019407251
1465+1018169643+1015952738+1012966748+1009174675+1003644734+994707066+983472326
1455+974366109+968674583+966099091+966731169+969988942+973564167+974580656
1445+971993139+966207055+957732784+947165212+934159024+916125061+891601509
1435+865497466+842011627+819087424+794551583+770564235+751367312+738452135
1425+731078070+728522028+730253326+736381241+747762780+762646539+776412022
1415+788038468+799641652+812689895+827088244+841611510+855079058+867353944
1405+878447470+887189975+892503069+894727596+894691718+893322555+892216633
1395+893480197+898446400+906333343+915319505+924292526+932387182+938069771
1385+940234829+939562996+937618662+935895184+935543563+937050850+940449771
1375+945842310+952852269+959879641+965531739+969879336+973426699+976274236
1366+978543644+980736236+983309165+986084156+988472436+990200909+991329107
1356+991915253+991957571+991515859+990700709+989572839+988106621+986151510
1346+983503933+980134057+976113637+971184561+964681368+956133632+945676257
1336+933449012+919089367+902002437+881755118+858244835+831758483+803002395
1326+773110354+743748604+717134378+695614229+681186244+675230953+677981697
1316+688271640+704043094+722321371+738928082+749779331+752726749+747737744
1306+735852921+718325002+696603185+672850493+649991081+630991424+618063761
1296+612052484+611904962+614800797+617408027+617642551+615761037+613945498
1286+614632247+619064808+627210982+638438889+651926741+666812143+682397699
1276+698278169+714230197+729980887+745082085+758990950+771227460+781469367
1266+789626975+795889335+800569628+803741122+804858413+802764060+796791224
1256+788713390+783258294+785346733+796081804+811892093+827756397+840680512
1247+850312223+857535086+863259730+868113567+872534957+876840367+881184349
1237+885538517+889803908+893959496+898080913+902231901+906354765+910296133
1227+913958163+917384288+920651721+923712820+926386090+928537021+930309651
1217+932148190+934476213+937285046+940087045+942352313+943970061+945176194
1207+946093787+946599634+946649114+946428850+946083142+945531232+944613310
1197+943141901+940712748+936692000+930478529+921590277+909414287+893208677
1187+872921932+850363412+829483424+815085535+810656588+816792651+831311252
1177+850768588+871919702+892199154+909727993+923500835+933493762+940365726
1167+945032549+948391583+951141736+953740752+956558850+959979391+964232231
1157+969193243+974448117+979540617+984166435+988222470+991721470+994657323
1147+996934682+998395972+998846949+998002361+995385536+990293430+981864369
1137+969205465+951617486+929048387+902776517+875920145+852889292+837274428
1128+829548084+827150013+827274536+829351410+834600698+843510109+853854066
1118+860774395+859306599+848654785+834906715+828034028+834310516+851377864
1108+870824162+884825088+890500317+890067411+888527004+890532056+897952908
1098+909676672+923302715+936737275+948653706+958347974+965561572+970193896
1088+971959495+970631337+967035281+963524454+962760099+965821789+971714917
1078+978527019+984748770+989755714+993595427+996548496+998813108+1000495845
1068+1001775508+1002896281+1003932221+1004722598+1005168252+1005420584
1060+1005644726+1005797767+1005749141+1005374455+1004370516+1002151180
1051+998248778+993101277+988388654+986109587+987013775+990087688+993608306
1041+996433107+998287088+999309294+999768485+1000111893+1000851343+1002216497
1031+1004015806+1005783114+1007039778+1007619353+1007671330+1006997526
1023+1004057073+995048568+974553189+940681404+902264888+877236935+878298831
1013+900981611+929176787+950430344+962858272+970296734+975918212+980622949
1003+984277093+986784574+988273659+988871239+988671739+987927032+987055108
993+986426250+986172670+986144611+986044598+985644876+984877695+983808505
983+982592582+981363319+980067557+978429043+976103255+972894962+968800815
973+963863722+958152483+951963325+945802686+940026590+934613352+929285474
963+923705592+917608430+910901401+903684189+896196377+888720064+881415456
953+874238196+867079927+859927112+852865241+846114186+840212187+836050422
943+834425117+835350070+837906703+840956434+843962992+847067855+850593993
933+854661199+859171103+863980518+869008030+874139498+879108527+883551733
924+887023068+888690889+887029311+880362365+868703458+855608560+847387344
914+849051747+860544930+877173655+893560430+906872965+916906632+924465478
904+930291318+934903271+938658019+941864603+944973211+948343877+951558346
894+953261125+951988690+947078407+939018249+929532154+921177215+915931213
884+913465985+910401469+901262593+881474728+851003441+814674773+777830928
874+742857820+711500481+688570363+680066720+687816917+708048728+734741939
864+762553361+787313737+806434763+820000680+830619442+841306084+853158643
854+864720034+873234849+876549660+874239839+867659042+859557814+853407163
844+852041024+856217310+864461000+874326710+883802291+891907395+898473407
834+903569654+907246731+909784833+911809861+913985827+916789929+920507945
824+925067920+929836201+933810753+935987246+935282426+929964666+917478716
815+895777270+865889040+833487810+807232959+794203510+795647386+806804718
805+821257476+835518751+849552994+864058978+878496688+891499919+902138460
795+910373804+916502573+920294645+920578584+915056463+899701356+869560860
785+824031876+773315308+736203951+727088206+745164290+777719219+811870277
775+841353133+865128168+883860182+898348950+909377357+917754506+924166294
765+928970256+932372529+934903139+937428953+940545579+944163647+947790192
755+950995922+953477907+954881896+954773078+952735237+948378178+941168982
745+930215618+914560605+894484267+873048623+855873114+848282333+851900664
735+863675749+877952926+889524372+895227660+893679171+884464596+867909468
725+845286288+818656160+790827259+766654079+753454897+756462047+772768457
715+792512427+806823249+813634036+816612404+820884893+830340235+846486638
705+867870764+890888146+911977030+929321155+942831086+953158089+960682371
696+964683340+963045681+953330319+935554865+914852035+900254974+898776666
686+910300536+928780087+947390996+962047591+971824655+977677831+980914051
676+982393477+982678467+982370215+981724075+979696287+973588677+962332712
666+948860368+934018993+916135969+895148872+874054664+857465104+849201043
656+849624948+854783685+860336954+866141306+875139559+888433563+903788670
646+918793929+932829945+945661341+956518504+965086610+971883073+977056004
636+979541800+978394151+975084006+973195920+975100696+979884090+984980928
626+988751513+990954355+991770031+991163186+988762092+983884008+975890547
616+964944937+952711055+942495564+938415150+943213066+955885177+971790551
606+985706053+994940933+999962005+1002670563+1004291005+1004812622+1004115688
596+1002850218+1001779714+1001012139+1000483754+1000525546+1001190020
588+1001649342+1001026990+999384928+997326388+994927660+991684540+987250139
578+981538966+974149327+964198718+950691218+932671515+909417704+881700906
568+853330807+830170436+816265777+811061501+810441054+809995597+807359125
558+802268267+795477719+787925773+780490859+774131443+770179101+770369861
548+776117438+787373535+802393776+818965858+835733496+852149053+867682040
538+881488133+892503791+899909858+904022076+906292930+907940446+909202762
528+910042224+910627121+911057071+911514422+912663320+915179869+918894336
518+922600326+925048010+926546558+929165813+934842882+943326353+952162956
509+959013433+963735650+967795956+972152424+976476101+979971289+982166444
499+982808115+981570376+978111000+971695664+960483068+942266034+916798931
489+886702265+856198320+829922770+811727158+803073560+802604841+807150951
479+812995256+817766953+822278762+829190154+838900587+847881559+853258130
469+856842291+861947080+869248468+876742128+882340607+885951775+889873562
459+897219437+908429142+919660728+927841926+934004208+940080605+946258657
449+951807852+956878733+962233488+967370081+970113137+969227939+966624914
439+965129717+965444606+966291757+966132604+964437448+961473667+957480387
429+952852400+949021887+948286970+951990004+958662732+965138128+969228924
419+970213872+969811719+971581983+976508168+983120376+989304737+993782902
409+996740242+998389729+998295762+996703641+994933179+993942383+993516376
399+993252216+994601797+1000188907+1008070067+1012560323+1011211859+1007080716
390+1004803949+1004947462+1003317754+996605008+988136848+983544806+982561041
380+981632736+979368716+978230464+982548753+989750786
##END=
