##TITLE=F. Hundemer FHU-147
##JCAMP-DX=5.0
##DATA TYPE=LINK
##BLOCKS=1


$$ === CHEMSPECTRA SPECTRUM ORIG ===
##TITLE=F. Hundemer FHU-147
##JCAMP-DX=5.00
##DATA TYPE=INFRARED SPECTRUM
##DATA CLASS=XYDATA
##ORIGIN=Angelika Moesle
##OWNER=
##XUNITS=1/CM
##YUNITS=TRANSMITTANCE
##XFACTOR=1
##YFACTOR=8.6687235e-010
##FIRSTX=3997.453
##LASTX=373.96442
##MAXX=3997.453
##MAXY=0.930797097397294
##MINX=373.96442
##MINY=0.4122883663131492
##NPOINTS=2559
##XYDATA= (X++(Y..Y))
2559I74485339I74112187I73960438I73924340I73874765I73867202I73988629I74213537
2551I74474337I74680956I74737063I74687075I74700964I74802039I74820604I74692645
2543I74598308I74725924I75038774I75308444I75331134I75139642I74969466I74950695
2535I74960733I74899401I74890394I75012921I75096049I75004257I74845288I74729705
2527I74655584I74766285I75278328I75920667I76017548I75438809I74848107I74816134
2519I75093780I75126716I74834356I74518342I74497234I74953170I75702016I76091944
2511I75680907I74899126I74563723I75030248I75866967I76405001I76578478I76834396
2503I77332206I77603664I77259253I76609144I76144544I75922043I75739833I75624457
2495I75872812I76587073I77318867I77467729I77064530I76612101I76348344I76090225
2487I75623700I75039186I74715885I74834424I74991056I74975447I75227722I75986538
2479I76719295I77100834I77516684I77924008I77709551I76979407I76374472I76024836
2471I75636421I75385659I75725738I76195701I76040032I75672519I76081149I77268467
2463I78083871I77945255I77329249I76903223I77183207I78629262I80692560I81418854
2455I80585572I79289066I78201929I77641892I77687205I77997098I77962719I77385081
2447I76757799I76685397I77133701I77670772I78056093I78178208I77939822I77405296
2439I76822295I76393793I76174661I76243350I76631215I76865475I76504013I76055090
2431I76116972I76495555I76767907I77028776I77463122I78053136I78696645I79139723
2423I79182354I79124872I79338641I79490528I79092349I78500272I78152080I77941404
2415I77731484I77754451I78157443I78648721I78889856I78928361I78911859I78742094
2407I78428900I78361449I78752613I79140755I79066977I78679731I78248479I77855181
2399I77614734I77691743I77998542I78277082I78421750I78518905I78765610I79259432
2391I79684770I79484065I78618880I77523767I76611069I76440686I77460509I78701046
2383I78940943I78879748I79702716I81132682I81762095I81470423I80936790I80459882
2375I80192205I80306483I80512689I80177148I79236191I78145548I77387694I77324368
2367I78071426I79310381I80468821I81140039I81278587I81080838I80738491I80458576
2359I80573471I81201028I81705301I81351952I80589423I80145588I80113684I80368571
2351I80742891I80849123I80460707I79954303I79794715I80080887I80736153I81742224
2343I82932498I83600210I82974028I81597144I80622771I80289499I80283724I80330892
2335I80227617I79885476I79564925I79669162I79954440I79966404I80205545I81281887
2327I82673761I83271339I82971966I82281289I81588481I81096859I80903854I81171805
2319I81912401I82367787I81580780I79922811I78695201I78915296I80365408I81475854
2311I81609727I81356628I81128969I81050378I81175931I81385781I81328299I80826089
2303I80209533I79916486I79959253I80189594I80777202I81792005I82732687I83322220
2295I83630051I83715243I83640434I83566862I83681757I83930043I83966829I83495629
2287I82729593I82272900I82358986I82658634I82828811I82831080I82684969I82400584
2279I82212462I82437576I82955189I83283509I83208563I82909671I82483301I81868877
2271I81251771I81045221I81323211I81687080I82016295I82516648I83135748I83459324
2263I83200724I82613048I82219269I82191421I82197816I81944717I81702413I82097361
2255I83083285I83526364I82922322I82007631I81445395I81304440I81402902I81553208
2247I81570260I81406546I81224062I81155647I81177925I81287663I81536224I81887029
2239I82205655I82376932I82411105I82466455I82681393I82973341I83135748I83081154
2231I82833624I82421281I81934266I81573422I81553414I81929797I82463567I82716391
2223I82446034I81846805I81338200I81241389I81581605I82059337I82333614I82377207
2215I82392127I82427538I82380576I82352660I82612360I83113952I83362581I83058670
2207I82605484I82636700I83197355I83640640I83416144I82684144I82044967I81922164
2199I82209230I82433588I82361736I82292221I82550409I82982555I83310600I83595466
2191I83922618I84067904I83811642I83270858I82720310I82314087I82055555I81904081
2183I81874790I82021795I82339252I82732824I83026766I82987711I82540164I81951387
2175I81557333I81396920I81372992I81598382I82223463I82990805I83331434I83005726
2167I82356992I81870183I81727854I81904081I82414336I83203131I84031393I84737403
2159I85373623I85895155I85999461I85492644I84613363I83815148I83364093I83281103
2151I83558679I84194213I84955228I85347151I85075969I84468077I84147182I84299069
2143I84560488I84612813I84537867I84531266I84563170I84433560I84019154I83453274
2135I83069259I83079091I83348211I83620494I83866511I84216078I84651524I85002329
2127I85229987I85461909I85649688I85495188I84917825I84336061I84247913I84652899
2119I85043584I84943059I84421803I83989932I83921792I83931212I83712217I83473626
2111I83618637I84159352I84757274I85174087I85473117I85810238I86145573I86282195
2103I86152380I85872465I85547857I85250615I85104984I85153803I85244564I85242775
2095I85224349I85345914I85631261I85941360I86105485I86098198I86064507I86101155
2087I86096960I85922108I85701807I85751313I86229733I86917178I87391610I87457205
2079I87318039I87228722I87121458I86790250I86302410I85940398I85841111I85926440
2071I86079152I86241834I86460692I86816172I87159069I87134798I86724930I86435045
2063I86595527I86850276I86718329I86333351I86221138I86522024I86823598I86758759
2055I86485238I86422393I86694126I87093130I87520943I88081943I88686947I88965349
2047I88770145I88401325I88131724I87906197I87672556I87578357I87668981I87762492
2039I87709548I87535521I87410518I87610124I88310014I89366347I90395934I90967178
2031I90773142I89982147I89277787I89145633I89369648I89530955I89557289I89512253
2023I89338294I88993746I88586629I88386955I88704687I89500014I90226307I90374688
2015I90003737I89527929I89245058I89227662I89411040I89667990I89885679I89984966
2007I89899224I89646262I89378174I89283494I89443632I89775115I90082327I90203136
1999I90100067I89834248I89555364I89521466I89925146I90619673I91182391I91333315
1991I91179228I91039030I91133298I91413556I91623475I91529964I91140311I90693657
1983I90433476I90413879I90522587I90656940I90802639I90929567I90944419I90837362
1975I90744057I90752445I90765303I90684100I90635831I90825260I91170565I91313307
1967I91085373I90756846I90677705I90898626I91294536I91796127I92318414I92685584
1959I92797316I92749873I92675683I92563057I92370671I92253714I92437367I92836921
1951I93075650I92968250I92731996I92654987I92794635I93043059I93271130I93368973
1943I93298220I93126737I92944597I92769194I92604243I92529366I92608369I92733853
1935I92737841I92664200I92734746I93010880I93269548I93317267I93277592I93365260
1927I93444126I93148534I92487767I91904009I91654623I91557192I91351743I90893537
1919I90032134I88713144I87134041I85543388I84042807I82752971I81948911I81822671
1911I82227176I82772773I83086448I82929886I82201186I80938165I79285422I77447101
1903I75679120I74205905I73058742I72114278I71336691I70832968I70639207I70604828
1895I70506366I70226657I69833154I69480493I69236470I69050203I68891578I68837603
1887I69001798I69429680I70056962I70729005I71309669I71818274I72423415I73244389
1879I74159287I74847557I75036436I74715816I74115006I73456096I72803717I72237287
1871I72012310I72322203I73014187I73790880I74559941I75346948I76055846I76589685
1863I77054904I77626148I78316962I79042430I79793615I80597811I81412253I82208130
1855I83046018I83925024I84709762I85323636I85839667I86302135I86645445I86858527
1847I87052562I87301949I87493028I87421313I87074222I86708084I86570017I86675905
1839I86931411I87262757I87551129I87628345I87435478I87094849I86790938I86621105
1831I86595527I86738544I87053182I87401442I87610399I87658254I87578082I87339835
1823I87001132I86746106I86652871I86634169I86600202I86472312I86149492I85672516
1815I85326386I85388406I85774965I86051030I85844686I85145758I84106408I82782743
1807I81324930I80175704I79721693I79862098I80199081I80536204I80908324I81221036
1799I81218630I80866244I80476659I80397105I80750936I81462378I82366412I83338379
1791I84362602I85383043I86197416I86708359I87140023I87795702I88652292I89310172
1783I89361672I88857399I88340130I88325278I88889646I89838098I90956933I91961353
1775I92536310I92625696I92482266I92363864I92333611I92316834I92201664I91917898
1767I91521094I91169258I90970684I90906808I90922622I91014827I91164583I91249293
1759I91114527I90748182I90337146I90116225I90150466I90284614I90295065I90046092
1751I89521122I88834984I88269859I88165347I88646517I89481586I90254567I90670554
1743I90722673I90650614I90744951I91137423I91749715I92405807I92929607I93179544
1735I93140420I92986677I92928989I93010536I93145577I93277112I93364366I93321736
1727I93134576I92965224I92957798I92981245I92761700I92293043I91903596I91846252
1719I92038775I92322541I92708068I93170743I93492188I93567684I93612240I93823121
1711I94088184I94212087I94172207I94044454I93911819I93862382I93871733I93769283
1703I93529386I93451826I93859976I94704877I95571025I96018779I95915710I95524063
1695I95267389I95360900I95662749I95901477I96010872I96155058I96436142I96712962
1687I96784471I96652387I96524015I96586791I96822219I97049122I97143046I97143183
1679I97111210I97010136I96811631I96605081I96504419I96511295I96529378I96480285
1671I96390142I96359476I96436898I96578678I96745416I96941309I97130875I97244670
1663I97302427I97406871I97583786I97733748I97788754I97830903I97997848I98298666
1655I98577618I98676149I98583806I98438726I98432194I98668448I99022072I99182828
1647I98968783I98553484I98284914I98342052I98667415I99121702I99564643I99822693
1639I99732895I99316357I98876373I98772204I99008320I99162889I98878848I98326857
1631I98000392I98131721I98509272I98802733I98852720I98684881I98457841I98410810
1623I98685156I99124384I99350667I99131053I98641082I98302035I98371893I98741744
1615I99113382I99310925I99383603I99416950I99356443I99125003I98826867I98651464
1607I98639294I98708259I98818959I98964108I99105132I99252206I99534940A000104946
1599A000947716A001804444A002402641A002804258A003315476A003997420A004539992
1592A004696623A004580009A004486015A004633847A005092533A005777847A006453053
1585A006808396A006645576A006043185A005317785A004790409A004589498A004597886
1578A004558419A004387761A004388586A004912524A005815801A006570080A006921503
1571A007093605A007285990A007357087A007168002A006920128A006907132A007107563
1564A007237997A007105982A006724029A006170800A005534374A004980182A004724058
1557A004849334A005189138A005462453A005532792A005497107A005544894A005801981
1550A006232958A006582044A006527243A006028539A005376230A004805605A004339699
1543A004065697A004173441A004604349A005036564A005306715A005559539A005964044
1536A006475881A006874816A006979329A006868903A006825998A006993081A007195574
1529A007169377A006864296A006467424A006195003A006119094A006194659A006354179
1522A006548283A006849720A007523276A008717469A010025252A010679074A010341333
1515A009493750A008898578A008805824A008854986A008666794A008278929A007944214
1508A007760629A007618850A007370013A007003119A006730630A006813621A007246248
1501A007737595A008018129A008054158A007999633A008031399A008211271A008471108
1494A008742635A009024406A009295382A009469685A009495057A009429874A009366204
1487A009299989A009105885A008657443A007998945A007417113A007268251A007650410
1480A008332629A009064905A009765827A010330332A010557783A010448459A010315274
1473A010468742A010939186A011537865A012060565A012463351A012891921A013480836
1466A014137134A014601665A014712503A014583856A014519773A014711540A015019027
1459A015151868A015044193A014895881A014869203A014923385A014930535A014809865
1452A014554153A014266468A014137684A014262824A014484432A014520255A014298234
1445A014104749A014305660A014909702A015516493A015757422A015654010A015453855
1438A015271851A015059320A014835787A014744200A014811721A014824991A014611222
1431A014320374A014214005A014274650A014261586A014060193A013771546A013580948
1424A013654038A013974108A014231745A014113412A013717433A013460071A013568640
1417A013857906A013991641A013825384A013527660A013505726A014150954A015421538
1410A016641929A017040108A016683115A016504481A017099034A017945792A018152686
1403A017466959A016232542A014956664A014229064A014462360A015398642A016288993
1396A016676514A016652655A016517614A016490661A016595861A016704774A016689991
1389A016462469A015906078A014982310A013880734A012961711A012534791A012661787
1382A013035489A013129688A012713012A012153526A012035193A012543592A013335481
1375A013979058A014305729A014302291A013972114A013431055A012981101A012957792
1368A013462684A014295071A015171533A015920448A016468383A016815268A017058535
1361A017282962A017438562A017476310A017515640A017733535A018139828A018511260
1354A018501978A017944967A017130800A016637047A016823932A017615821A018683981
1347A019637658A020121166A019968110A019348873A018702683A018405647A018494689
1340A018762159A019005907A019027772A018680612A018220069A018274800A019128847
1333A020288799A020979132A020932376A020617463A020686359A021187676A021571691
1326A021527273A021346989A021352764A021476598A021487049A021165742A020256345
1319A018577337A016234674A013727609A011878768A011350155A012026805A013161523
1312A014182927A015094661A016234467A017885972A019809829A021065698A020805723
1305A019360975A018082621A018027339A019064695A020249263A020897309A021167529
1298A021534080A021918714A021706044A020653767A019518019A019411031A020303169
1291A020754086A019949476A019273927A020442955A022761277A023927624A023182078
1284A022217468A022961158A025248745A026908570A026273519A024350969A023600610
1277A024937270A027175352A029024400A030139590A030492939A029945967A028546392
1270A026746301A025078637A023740464A022811884A022830655A024432516A027212550
1263A029840698A031623944A032976831A033832941A033146801A030856945A028705224
1256A028337367A029365716A029922039A028889290A027110169A026418805A027683201
1249A029897422A031340110A031355580A030461379A029248827A028157633A027791220
1242A028352425A029118942A029242638A028760368A028344930A028355863A028601261
1235A028851335A029137094A029548063A030007024A030253110A029971820A029112341
1228A028083168A027365056A026982004A026678642A026448096A026521942A026973753
1221A027619943A028249769A028759680A029074868A029173330A029328999A029995473
1214A031094505A031797077A031435340A030306054A029189832A028468558A028035793
1207A027666836A027175352A026456896A025649194A025257615A025828377A027191992
1200A028290061A028303607A027651366A027308399A027605298A028365627A029660551
1193A031600153A033722309A035246748A035766973A035370238A034259379A032630977
1186A030923297A029818901A029693418A030122538A030333282A030177751A030129139
1179A030486544A031157006A031946076A032595085A032790428A032401806A031532908
1172A030395715A029370735A028958598A029471947A030956437A033285075A035972010
1165A038110599A039068264A039246486A039653260A040640491A041484430A041433686
1158A040643104A039756672A039166520A038945462A039060563A039404011A039719336
1151A039710123A039427114A039428351A040068903A040838308A041029800A040681608
1144A040172591A039545172A038894650A038623192A038631305A038102073A036574539
1137A034586119A032969956A032198900A032702898A034907907A038046654A040036724
1130A039721398A038113899A036656843A035636883A034941874A034976872A036029149
1123A037723559A039513887A040948528A041488074A040780276A039188247A037594843
1116A036557968A036053970A036054314A036597573A037142689A036789890A035445941
1109A034037015A033377486A033303433A033113454A032440517A031500729A030731186
1102A030244378A029741823A028942440A028010353A027606535A028339705A029961644
1095A031375933A031804572A031636320A031675031A032248681A033218929A034182576
1088A034613622A034237789A033401414A032825426A032840690A033128100A033237494
1081A033022556A032585184A032062415A031542121A031069133A030589475A029953805
1074A029144658A028445661A028221097A028590535A029397001A030497546A031834069
1067A033165573A034095872A034464417A034454240A034322087A034191515A034044097
1060A033870551A033861338A034337214A035342804A036337942A036711781A036508050
1053A036064628A035552860A035126903A035012558A035279683A035747446A036204757
1046A036572958A036856998A037091464A037314103A037526085A037745630A038084608
1039A038599677A039102162A039416800A039594884A039676294A039606160A039408411
1032A039227783A039176696A039270414A039416181A039429933A039264913A039108557
1025A039121208A039258656A039450629A039781219A040302338A040771613A040787496
1018A040260120A039577213A039249442A039414737A039760316A039999939A040127073
1011A040226429A040382166A040703680A041174742A041502032A041386174A040877294
1004A040342355A040197481A040486541A040718669A040546567A040069453A039424570
997A038667610A037951767A037543893A037545544A037639399A037317541A036456344
990A035500260A035136597A035626706A036434960A037140695A037819614A038368855
983A038619548A038886055A039695202A040912911A041868032A042395821A042750270
976A043007701A043132084A043242579A043510530A043877149A044047669A043854871
969A043412893A043006532A042924641A043250417A043693358A043836857A043684076
962A043662829A044048770A044404800A044400743A044348762A044461732A044648067
955A044780701A044786890A044624208A044411332A044463313A045048446A045870451
948A046172575A045872789A045370441A044869537A044388435A043953333A043657810
941A043511905A043404986A043410968A043774699A044278491A044225135A043700853
934A043282252A043022896A042762165A042611240A042662122A042712452A042654421
927A042994705A044419033A046174157A046990592A047059763A046920803A046897975
920A047215776A047843057A048446755A048909361A049452001A050103004A050552546
913A050799457A051148473A051691802A052130067A052260157A052235060A052212989
906A052376565A053288781A055277339A056622731A056539191A056079954A056054444
899A056636896A057253314A057544437A057575034A057375222A056946102A056301562
892A055066595A052314133A047771411A041686442A033994866A025113292A016800829
885A011027610A008228598A007470057A007264676A006539001A004866800A001692299
878I96781721I91585727I87646428I85334500I84746342I85642193I87035442
871I87632195I86345728I82392540I75740108I67813311I61293583I58879342
864I62025308I70121732I80619676I90599183I98306023A003028616A004225285
857A001500326I95504055I88438248I83137261I81232175I82474637I86016651
850I91056907I95482808I97261585I96906723I95758254I95004113I95680901
843I98259680A002457441A007064864A010622417A012384760A011418774A006644820
836A000426872I94559453I89310447I86002624I85916951I88846810I93380524
829I98450278A004141812A010690488A017665189A025093902A032729989A037854887
822A039834988A039961365A038463398A034915815A029868958A024347600A018934880
815A014691669A013209310A015266970A021046034A029738454A037977483A043533220
808A047363262A050386907A052438309A053530260A054049316A054219287A053946660
801A052585178A049526329A045579741A040729464A033198164A019776068I96015685
794I60268122I21617447H92938372H76765464H70148305H73175526H88240738
787I12094152I35452643I49441238I47984938I30755284I06675725H89395740
780H87415226I00653806I23415407I47688040I64578372I70004156I66771898
773I57049891I39172328I11847309H80048946H50033073H21523349G88029683
766G42306532F94288299F62244332F42575959F26161160F10367316E97309226
759E90185044E89924313E94976051F03776423F15269711F28498184F44189510
752F65452730F92433338G17409162G35433455G49680307G63862388G78156270
745G90861561H01968291H12790774H23423553H32920239H41654121H51007653
738H60208335H66978136H71645998H76107172H81605840H88370760H95845816
731I03410876I11112832I19138849I26758228I33142915I38718729I44418103
724I50402410I56284611I62021527I67474676I72018085I75480820I78461148
717I81578098I84720145I87185198I88632834I89271805I89426511I89299514
710I88926226I88344531I87835238I87888320I88865787I90802570I93498445
703I96476434I99126103A001226118A002960752A004374009A005211416A005340475
696A004831733A003584664A001157841I96999066I90881298I83192886I74946363
689I67399042I61271855I56328961I51798753I46703421I39124816I25474030
682I02892163H73858914H45554297H24914920H16405809H21981004H40637943
675H67971831H97441489I23066597I41079476I49623860I48101827I37312348
668I19860605H99303188H77615729H53866140H26517882G97424538G73076821
661G61216019G65727387G83717920H07030206H26976018H38551954H42025072
654H41712016H42947739H49222963H60899836H75708237H90348317I02043686
647I09357366I12428110I12851386I13022526I15062790I19968074I27406481
640I36180243I44976076I52870832I59451136I64716163I68863869I72077011
633I74493658I76363815I78141353I80313702I83127016I86557022I90521280
626I94924079I99519194A003975074A008073961A011682807A014641201A016873232
619A018527693A019871917A021102415A022289733A023362362A024076417A024072979
612A022956620A020221209A015056294A006182489I91728813I69327368I36845823
605H93825629H43003090G91070930G47605526G21164876G14259758G21992519
598G36369462G52031427G68054992G85445197H04273549H23276617H41092160
591H57163374H71691585H85087553H97458128I08530066I18032735I26028634
584I32811775I38619511I43565225I47771031I51427527I54730675I57705501
577I59834601I59973011I57390451I53112930I49284882I46824092I44809406
570I42670130I41782667I44064410I49739030I57151860I64360064I70437195
563I75442041I79650322I83052619I85314079I85793736I83689733I78765678
556I72164953I65708964I59482284I50641620I36226792I17690731I01618072
549H95121722I00601825I14823099I32127493I48085738I60915894I70741107
542I78218088I83748315I87536827I90067201I92206958I94546664I96681884
535I97547207I96579090I93874484I88498343I77588399I59390079I37673191
528I21017875I16272729I23455081I37233482I51895427I64474547I74634544
521I82920397I89449683I94091141I97243501I99731244A002041660A004105164
514A005709639A006756346A007060670A005978552A002119700I93462140I78533482
507I58738525I39696060I28770714I29896149I40825689I55551442I68791191
500I78281345I84343693I88531003I92388892I96633340A001056423A004976813
493A007679426A008626502A007544316A004541161A000452519I97059367I96342698
486I99031698A004012891A009318141A013540174A016328666A017979140A018913290
479A019482402A019927474A020281853A020363608A020055433A019601697A019493334
472A020068016A021284969A022794969A024076967A024293899A021664789A013344763
465I97679429I77883372I62029090I57029745I62646402I72288099I78511410
458I77032901I68127880I56462627I48014298I45521398I47760648I52746861
451I59167921I65067381I68275091I68794973I68934071I70887699I75281697
444I81560427I88589241I95133516A000544655A004940440A008634134A011768755
437A014520255A017157685A019685582A021654407A022468298A021852774A020104802
430A018055530A016719832A016667232A017631635A018875954A019856722A020355013
423A020270647A019712948A019090204A018697114A018159905A016406707A012576596
416A007586396A004469652A005934959A011508849A018125182A023316776A026757921
409A029155040A031029666A032595979A033917101A034914783A035404205A035167264
402A034080470A032224066A029905124A027703897A026165293A024852767A022082358
395A016435448A008309595I99561755I92277435I87996889I86978441I88049558
388I90173295I93648475I98499165A002743063A004238830A003700453A004175160
381A007767849A013919789A020532341A025906556A029697749A032525777A034997087
374A037242457A039141698A040573520A041490343A042047216A042560222A043171208
367A043723199A044079780A044372140A044814118A045412590A045993735A046471811
360A046955251A047549872A048192143A048789996A049417896A050201191A051012195
353A051447297A051253743A050681193A050151135A049596806A048399518A045948561
346A042083658A037260128A032610419A029551432A028922500A030567954A033687036
339A037257378A040299656A042231832A042900850A042186108A040191912A038037165
332A037442269A038934048A041334674A043557904A045833391A048259320A049002941
325A045157841A035303886A020279241A001389144I79586927I58134209I44653668
318I46786550I64666589I89914282A012732058A028190362A036167353A038630137
311A038458653A038941268A042218974A047921579A054006961A059017102A062972490
304A066281688A068813918A070215624A070454765A070020969A069846667A070708483
297A072447105A073741823A072457487A066885523A058108942A050895031A050257023
290A056505087A064840583A069958674A069979920A066358285A061789366A058184439
283A055204455A051038529A045612126A042007887A043516993A049727103A055619137
276A054464479A043372119A026805845A012109590A000221560I82996031I50964234
269I02648140H45361017G86977955G28496433F66766494F03164129E45774901
262E03238456D79751146D75604472D89245220E17906349E56876303E99385245
255F39629048F75420617G05673294G27979440G40190427G38761493G15876677
248F68664773F12948089E77531528E80297054F15009805F62943052G09889345
241G50385148G83654112H10066640H29732468H42543578H49445396H53303835
234H57197616H61712628H65651033H69508166H76029613H86826105I00225649
227I13154404I24020686I32838385I38833074I39459806I33460784I24393700
220I19036605I21875084I31882782I44520415I55921086I64899129I72009834
213I77682254I81645756I83981406I85991279I89505377I94071820I97101309
206I98254798I98522474I98414042I98328369I98957645A000738553A003441578
199A006510260A009407665A011801690A013861963A016095644A018650839A021095127
192A022705033A022321293A018417061A010909964A003107276I99991013A003695503
185A011723306A019859610A025727097A029332574A031415950A031953915A029889241
178A022890611A006455185I76508207I37147053I03512707H91336648I03057527
171I27601136I51892608I68377885I75985094I79264588I84259739I92929057
164A002725873A010576762A014845894A014259111A007490409I94570111I78234039
157I63857441I57640868I62989574I77311922I93615746A006230413A013842917
150A017782972A018812559A014804983A001915832I80298507I57644925I43745509
143I41702151I46898970I54162594I62419224I72957942I86220519A000109071
136A009893854A009604657I95235554I69259091I42460005I28265409I32034463
129I45485506I53560959I48904649I39295818I39099238I54077058I77214835
122I98310217A012935170A022168856A028489048A033512665A037471285A039222007
115A036199738A024764000A002646801I72536660I42324207I21104442I15605705
108I27815112I52528415I79825587A001492900A014211393A019019109A018634200
101A014610259A006992943I95050938I77618928I55055007I32490880I19396555
94I22790670I41141840I66128527I88579753A003775331A012102233A014240202
87A008014691I91257888I67363907I46736013I39799266I47684258I62297935
80I74543921I81489331I86953276I95377539A006666685A017603169A025842954
73A031489177A035677725A038934461A041331649A043304118A045178468A046474905
66A046679049A046314836A046327212A046605408A045698556A041654263A033555570
59A023394266A014769160A009188188A004068791I93242389I71972774I42853096
52I15025867H95876344H86221376H85579243H94906578I11809217I29654877
45I41908632I44919763I37901675I22960778I04515340H85446058H65445102
38H46389091H34906115H34359900H40118543H50371707H73743538I11576333
31I46696821I70763660I86791556I96902529A002185571A005262504A007819761
24A008164859A004025336I96490736I89249115I85098522I85143489I90004493
17I97762558A002114269I97426467I82490864I60225423I35885407I15216808
10I03870525I06077871I19455824I35286042I48715632I59660780I66737106
3I67484578I64915356I68313596
##END=


$$ === CHEMSPECTRA PEAK TABLE AUTO ===
##TITLE=F. Hundemer FHU-147
##JCAMP-DX=5.00
##DATA TYPE=INFRAREDPEAKTABLE
##DATA CLASS=PEAKTABLE
##$CSTHRESHOLD=0.93
##MAXX=3997.453
##MAXY=0.930797097397294
##MINX=373.96442
##MINY=0.4122883663131492
##NPOINTS=151
##PEAKTABLE= (XY..XY)
3990.370340539484, 0.8442185499856647
3981.871149186865, 0.8449292752198762
3974.788489726349, 0.8448523255619838
3964.872766481626, 0.8451578001087832
3960.6231708053165, 0.8451055268392058
3952.1239794526973, 0.8449019765427024
3942.208256207975, 0.8450411537653671
3935.125596747459, 0.8447647073060799
3926.62640539484, 0.844822344781759
3908.211490797498, 0.8457418657570639
3892.6296399843627, 0.8449542498122797
3888.380044308053, 0.8451792569331904
3871.381661602815, 0.8455348583736286
3865.715534034402, 0.8457835293759496
3857.2163426817824, 0.846850392644584
3845.884087544957, 0.8474907252433584
3837.3848961923377, 0.8466615653080729
3824.636109163409, 0.8462188223915234
3817.553449702893, 0.8461151695977615
3803.3881307818606, 0.8487762787340891
3793.472407537138, 0.8475683900709396
3780.7236205082095, 0.8481144884440351
3770.807897263487, 0.8474671818572048
3752.392982666145, 0.846449432108432
3746.7268550977324, 0.8485637875161678
3736.81113185301, 0.849701521066904
3726.8954086082877, 0.8472154716004248
3715.563153471462, 0.8499324298547736
3705.6474302267397, 0.8496334525162373
3697.1482388741206, 0.8493569471096302
3682.982919953088, 0.8497808554906313
3677.3167923846754, 0.8491577485123237
3660.318409679437, 0.8503184290410368
3651.819218326818, 0.8484038088245923
3641.903495082095, 0.8504454466452482
3633.404303729476, 0.8494625070225621
3619.238984808444, 0.8526269170440657
3610.739793455825, 0.8515052171643149
3600.8240702111025, 0.8514528251332256
3588.0752831821737, 0.8504409761845393
3573.9099642611413, 0.8514345861389816
3569.6603685848318, 0.8510106777579804
3559.7446453401094, 0.850665685968234
3551.2454539874902, 0.8505367014306604
3527.1644118217355, 0.8508815146447029
3517.248688577013, 0.8506110287996941
3505.9164334401876, 0.851574358902951
3498.8337739796716, 0.8517935250379673
3488.9180507349492, 0.8512011738237654
3483.2519231665365, 0.8515219660049893
3464.8370085691945, 0.8511601066130564
3450.6716896481626, 0.8507251118015712
3439.339434511337, 0.8510327318574369
3420.924519913995, 0.852379200468202
3411.0087966692727, 0.8531299804062177
3403.9261372087567, 0.8534629322058951
3396.8434777482407, 0.8521955587620886
3377.012031258796, 0.8532173013249055
3368.512839906177, 0.8529345960472512
3364.2632442298673, 0.8525460933336411
3345.8483296325253, 0.8539602733436646
3340.1822020641125, 0.8540637466948501
3331.6830107114934, 0.8547920564346814
3326.0168831430806, 0.8544776418333364
3309.018500437842, 0.8545984006191808
3296.269713408913, 0.8551132655815057
3289.187053948397, 0.8549278355177342
3282.104394487881, 0.8551022979125334
3265.106011782643, 0.8561043711417289
3258.023352322127, 0.8559588761533773
3245.2745652931976, 0.8574629993709475
3233.942310156372, 0.8568053223901942
3222.6100550195465, 0.8575341080429456
3211.277799882721, 0.8575825072599909
3199.945544745895, 0.8577887986068651
3191.446353393276, 0.8591043328778204
3180.1140982564502, 0.8585624076282179
3170.198375011728, 0.8588486289401239
3164.532247443315, 0.8587548108131728
3156.033056090696, 0.8587911102259567
3140.4512052775603, 0.8601573088514078
3131.952013924941, 0.8605051613199094
3117.7866950039092, 0.86039626394843
3112.1205674354965, 0.86051314781487
3105.0379079749805, 0.8610448812462534
3080.9568658092257, 0.8511149260930468
3046.960100398749, 0.839858529680977
3022.8790582329943, 0.8426105953986285
2980.383101469898, 0.8552302690763299
2966.217782548866, 0.8552523829899784
2943.553272275215, 0.8541521997488271
2929.387953354183, 0.8492936463568885
2916.6391663252543, 0.849879143211419
2893.974656051603, 0.8567518563042632
2871.310145777951, 0.8589897132819587
2859.9778906411257, 0.8583043787388787
2848.6456355043, 0.8566132165424554
2840.146444151681, 0.8587676257871228
2827.397657122752, 0.8607426860775541
2816.0654019859267, 0.8607676598030852
2808.9827425254107, 0.8598040913099322
2789.1512960359655, 0.8615518186609377
2783.4851684675527, 0.861195919016411
2773.56944522283, 0.8627697803807941
2759.404126301798, 0.8638591147144852
2745.238807380766, 0.8638421274839146
2738.15614792025, 0.8637164804048886
2711.2420419702894, 0.8655132623284358
2702.7428506176702, 0.8653855893687279
2682.911404128225, 0.8651389451139612
2672.9956808835027, 0.8654947259969757
2664.496489530883, 0.8654004310902322
1610.5967618060981, 0.8536493756434437
1597.8479747771694, 0.8312259885659936
1580.849592071931, 0.8506030414378613
1569.5173369351055, 0.8625415536959755
1551.1024223377635, 0.8546641442182048
1491.608082869429, 0.7543075060038668
1477.442763948397, 0.769275722388401
1446.2790623221263, 0.5113890755324455
1375.452467716966, 0.8563270541778693
1332.9565109538698, 0.7077196222014811
1308.8754687881155, 0.6598771192481746
1298.9597455433932, 0.7296568733331575
1222.4670233698198, 0.6191720349278913
1178.5545347146208, 0.8164053537315574
1150.2238968725565, 0.7759562706861867
1119.0601952462857, 0.7942914938291431
1087.8964936200155, 0.8051256514563578
1062.3989195621575, 0.8637019368874725
1026.9856222595777, 0.8296226240680507
1015.6533671227521, 0.8196463562595453
924.9953260281468, 0.8555843205490063
824.4215616888191, 0.8188941451152798
740.8461800547302, 0.4122883663131492
721.014733565285, 0.5006461128764508
684.1849043706015, 0.7966874215123717
660.1038622048472, 0.8654232593066971
617.607905441751, 0.7726750946928828
593.5268632759967, 0.8301523896991998
575.1119486786547, 0.8163355566374249
558.1135659734164, 0.8046876165235411
549.6143746207972, 0.8140791633282692
526.9498643471461, 0.7937132691667567
507.11841785770093, 0.7969994522147542
490.1200351524626, 0.8146859982456951
441.95795082095356, 0.767684159490631
423.54303622361203, 0.723283527258765
400.8785259499605, 0.8539546707476666
386.71320702892854, 0.7835403661024837
375.380951892103, 0.8364584422068065
##END=

##END=

