##TITLE=X7332
##JCAMP-DX=4.24
##DATA TYPE=INFRARED SPECTRUM
##DATE=26/10/2018
##SAMPLING PROCEDURE=Diamant-ATR
##ORIGIN=ComPlat
##XUNITS=1/CM
##YUNITS=TRANSMITTANCE
##RESOLUTION=4
##FIRSTX=3997.453
##LASTX=373.96442
##DELTAX=-1.4165319
##MAXY=0.92406404
##MINY=0.40554118
##XFACTOR=1
##YFACTOR=8.606017e-010
##NPOINTS=2559
##FIRSTY=0.92353088
##XYDATA=(X++(Y..Y))
3997+1073122299+1072682364+1071844950+1071129779+1070589695+1070386488
3989+1071011207+1072391267+1073582457+1073741823+1072898938+1071774306
3980+1071113642+1070985027+1070750100+1070038045+1069284920+1068814234
3972+1068243745+1067451696+1067169257+1067927507+1069004974+1069018549
3963+1067578787+1066026756+1065951679+1067275224+1068816104+1069978344
3955+1070553196+1069724162+1066683403+1062112984+1058409275+1057596518
3946+1058625087+1058506169+1056634507+1055941914+1058643787+1063099859
3938+1066432061+1067053663+1064287032+1058448545+1052323325+1050242430
3929+1053265251+1057509736+1058784176+1056961964+1055352725+1055649432
3921+1055741200+1053626438+1050947074+1051599981+1056877052+1063783587
3912+1068637484+1069964769+1067797923+1061825212+1051636619+1039041198
3904+1028860916+1025006569+1027005253+1033179578+1042462952+1051804157
3895+1056781475+1055026099+1048736249+1044663527+1046613660+1049794877
3887+1048574251+1043723609+1040008750+1038232527+1037191006+1039976544
3878+1047892879+1054610751+1054300400+1047854163+1039996976+1033657536
3870+1030738466+1032883079+1036704806+1036995487+1034377417+1034932253
3861+1040958156+1047652341+1050082787+1046334268+1035368448+1018255037
3853+1007262621+1015423441+1033071464+1047633018+1055147995+1055702554
3844+1050861469+1042847964+1033622976+1024701759+1018938349+1020090823
3836+1027326339+1035361453+1041272177+1045728526+1049315603+1050866872
3827+1049925153+1048073368+1045708926+1040185984+1031096328+1025402524
3819+1027639252+1032686591+1037675682+1045328277+1055175837+1062221167
3810+1062970414+1057341436+1048872343+1043003659+1040135217+1035396844
3802+1028237444+1025544575+1030270689+1037574148+1045147303+1053784695
3793+1062146228+1067599357+1069607668+1069249598+1067046876+1063332570
3785+1060154817+1059622282+1060345695+1059339427+1057182901+1057722431
3776+1061699783+1065575878+1065998637+1062056191+1055726587+1051162678
3768+1050544331+1052027726+1053759069+1055114820+1054272973+1049362283
3759+1042441551+1038873452+1039794531+1040222276+1034963905+1022518984
3751+1008583326+1003412845+1006606043+1010164584+1012103775+1016857523
3742+1025722294+1033232215+1034922557+1028958572+1016473896+1005220373
3734+1006070808+1019414991+1035187058+1045180755+1047041197+1042477773
3725+1036141589+1033062322+1034737773+1039598873+1045831307+1051715505
3717+1055006706+1053404046+1045649294+1033684755+1025519780+1029346978
3708+1041732751+1053594440+1060029457+1060283016+1056439057+1053254862
3700+1054410730+1058485599+1061956943+1062716301+1059786427+1052455610
3691+1041266013+1030801700+1029188513+1038072053+1050207870+1059669655
3683+1064092899+1062494325+1055294478+1043927093+1029807483+1017858112
3674+1016463992+1022606597+1025747851+1025002275+1029299674+1041533631
3666+1054235712+1062059239+1065046807+1065314632+1063941013+1060268402
3657+1054328311+1049055603+1046345350+1042038739+1030122751+1010580625
3649+996411771+1002272837+1021095913+1038757027+1050090060+1055866629
3640+1058560953+1059963592+1060231556+1058794634+1055664253+1051084207
3632+1043918574+1032899701+1023086633+1025553578+1038617885+1050283432
3623+1054688737+1051401345+1042458035+1033424687+1030520576+1032624604
3615+1034448616+1034901502+1036198035+1038383858+1039835671+1041872863
3606+1047013217+1053369278+1056531587+1055056434+1051508420+1049043760
3598+1048042894+1047474483+1047817455+1050234465+1053130680+1052166730
3589+1044649051+1034418072+1031176254+1038086182+1047979176+1054894991
3581+1058127252+1059337211+1060227816+1061674365+1063442069+1064364949
3572+1062804053+1056876706+1045178954+1029872032+1020008889+1023754777
3564+1036420081+1048349851+1055746603+1060050166+1063090925+1064304901
3555+1062348258+1058086527+1054815620+1054630213+1055271484+1053030254
3547+1048049682+1044857868+1047002897+1053028176+1059121122+1062649397
3538+1063118490+1062136878+1062104396+1063658297+1065033232+1064285093
3530+1061227296+1057229651+1053747226+1051499555+1051106647+1053318580
3521+1057736976+1062407544+1065612378+1067230344+1067861434+1067399267
3513+1065200562+1061533284+1058365434+1057850561+1059496784+1060249356
3504+1058275882+1055572970+1055618542+1058902055+1062871858+1065354318
3496+1066216526+1066412876+1066399786+1065806512+1064505545+1063381329
3488+1063417621+1064176564+1064055360+1062368412+1060585402+1060883078
3479+1063480300+1066364603+1067695489+1067554408+1067220024+1067361728
3471+1067535569+1067202086+1066569472+1066138471+1065833730+1065259987
3462+1064614490+1064527016+1065131095+1066032435+1066918469+1067630454
3454+1067932979+1067501840+1066004108+1063471920+1060907873+1059841418
3445+1060686728+1062361417+1063821541+1064905102+1065621312+1065699229
3437+1065186503+1064706328+1064691853+1064903024+1065010584+1065120914
3428+1065403215+1065636619+1065341089+1064209393+1062584293+1061577748
3420+1062175456+1064126420+1066201151+1067327099+1067112811+1065806373
3411+1064168668+1063063775+1062929481+1063657189+1064846647+1066062147
3403+1066924702+1067065022+1066245685+1064723435+1063182555+1062100379
3394+1061508489+1061376896+1061684269+1062158972+1062495295+1062807239
3386+1063550114+1064953099+1066585678+1067575047+1067415889+1066511155
3377+1065797508+1065888792+1066597937+1067178122+1067005944+1066049196
3369+1064728768+1063542495+1062861538+1062824692+1063343375+1064230448
3360+1065141623+1065498931+1064953653+1063921205+1063250983+1063397466
3352+1064151838+1065002827+1065556970+1065778046+1065854785+1065739399
3343+1065061074+1063741339+1062393692+1061742516+1061850630+1062238066
3335+1062553057+1062792002+1062996317+1063048746+1062781405+1062252264
3326+1061927438+1062382472+1063623875+1064886818+1065360620+1065007329
3318+1064459280+1064208908+1064144635+1063821610+1062986413+1061926538
3309+1061450519+1062211124+1063832345+1065134766+1065351824+1064691576
3301+1063803256+1063249806+1063285336+1063639181+1063777007+1063591323
3292+1063450173+1063619581+1064067896+1064607841+1064892912+1064656669
3284+1064199073+1064203644+1064903440+1065752212+1065984369+1065270791
3275+1063892601+1062572796+1062079116+1062666296+1063877849+1065034894
3267+1065767726+1065965669+1065604413+1064893467+1064266185+1063989841
3258+1063922590+1063723678+1063278825+1062876429+1062800382+1062821229
3250+1062485737+1061793422+1061155959+1060909881+1061201393+1061954380
3241+1062743174+1063150973+1063262134+1063323290+1063110664+1062235504
3233+1060972353+1060226154+1060589488+1061755606+1063016471+1063999052
3224+1064624810+1064791517+1064591704+1064418487+1064391475+1064163682
3216+1063632048+1063232629+1063257286+1063492352+1063715228+1063956527
3207+1064148098+1064020315+1063485910+1062820814+1062393692+1062349504
3199+1062591773+1063001165+1063521579+1063928408+1063824796+1063283743
3190+1063118767+1063876810+1064883562+1065000057+1064041023+1062808001
3182+1062063879+1062025717+1062497927+1063014809+1063065922+1062522098
3173+1061853331+1061735175+1062272142+1062781336+1062630836+1062051135
3165+1061724301+1061850422+1062031604+1061883736+1061462085+1061146540
3156+1061181308+1061364707+1061301889+1060863893+1060243330+1059743763
3148+1059653380+1060082926+1060770185+1061221063+1061166418+1060826355
3139+1060618923+1060587964+1060338284+1059712181+1059165933+1059109348
3131+1059293785+1059293439+1059093072+1058798651+1058307533+1057660860
3122+1057232699+1057258602+1057592986+1058068520+1058643025+1059107963
3114+1059093003+1058455471+1057382853+1056133346+1054922833+1053933395
3105+1053135736+1052094007+1050251572+1047634888+1045116690+1043626231
3097+1043153536+1042883841+1042221930+1041144602+1039526428+1036923042
3088+1033393658+1029948148+1027653658+1026648498+1026463784+1026927682
3080+1028225324+1030259815+1032342718+1033467904+1032900463+1030743591
3071+1027744180+1024352830+1020454434+1016179960+1012222762+1009044593
3063+1006376795+1003724442+1001030880+998818947+997703526+997584954+997544784
3053+996782516+995241636+993217880+991061493+989354460+988562064+988326721
3043+987764959+986489758+984740199+982510813+979222521+974398682+968223180
3033+961403843+954845821+949300508+944920414+941310759+938277203+936235371
3023+935671669+936552232+938445503+940819988+943029428+944373889+944518779
3013+943798206+942939460+942469467+942456169+942853440+943952308+946266121
3003+949991577+954797340+960173244+965768977+971337977+976545027+981008787
2993+984568090+987382718+989632674+991243852+992162854+992751073+993493878
2983+994424238+995241290+995854858+996404776+996882042+997066064+996743177
2973+995830340+994398889+992574877+990314185+987418732+983841630+979762189
2963+975324055+970485741+965080194+958928863+952011801+944550500+936841389
2953+929100835+921567158+914629457+908750384+904191115+900716655+897688086
2944+894594136+891323574+887760393+883409664+877662253+870271804+861499009
2934+851956744+842310244+832991548+824190634+816113341+809126674+803608095
2924+799765937+797709006+797635799+799816358+804387193+811266370+820226857
2914+830886551+842653285+854835644+866784184+877870792+887525535+895480862
2904+901862965+906916952+910761881+913457036+915123830+915933401+916146997
2894+916228169+916722680+917937280+919899256+922663948+926417592+931120781
2884+936183218+940665401+943867604+945720358+946572594+946639844+945846064
2874+944237310+942205797+940055227+937627621+934667618+931257291+927510573
2864+923148139+917797445+911403083+903938250+895118705+884945835+874364265
2854+865033241+858516359+855729989+856807733+861207566+867970041+876018315
2844+884409144+892561376+900324717+907737952+914733623+921152295+926940500
2834+932141940+936755300+940803712+944512200+948187166+951908882+955544024
2825+959039539+962476045+965814481+968822272+971363464+973630320+975974816
2815+978573077+981364710+984229828+987085041+989854858+992503679+995086426
2805+997658507+1000098442+1002081127+1003354320+1004066375+1004688116
2796+1005583915+1006786394+1008132102+1009408412+1010425069+1011133591
2788+1011660723+1012174973+1012785563+1013534048+1014354216+1015037320
2779+1015309786+1015061353+1014606666+1014559985+1015221896+1016251574
2771+1017137746+1017718416+1018051761+1018173103+1018215005+1018408584
2762+1018803362+1019264352+1019745565+1020269927+1020708546+1020883010
2754+1020837438+1020770187+1020776836+1020850112+1021026446+1021333542
2745+1021675475+1021894196+1021875842+1021589178+1021146334+1020768733
2737+1020546687+1020321110+1019945448+1019531693+1019319967+1019427319
2728+1019838511+1020532420+1021476077+1022491488+1023298289+1023841489
2720+1024425414+1025282844+1026147338+1026569612+1026539692+1026441067
2711+1026474657+1026470640+1026256906+1025916982+1025638075+1025519226
2703+1025585576+1025807898+1026039848+1026080434+1025885815+1025650334
2694+1025642646+1025992751+1026607289+1027253755+1027707957+1027811431
2686+1027492007+1026881833+1026309751+1025971281+1025725688+1025377591
2677+1024979488+1024708892+1024643927+1024765616+1025028385+1025372258
2669+1025740509+1026110284+1026490864+1026877746+1027159355+1027163372
2660+1026916670+1026717688+1026738189+1026705568+1026268888+1025566668
2652+1025112189+1025157485+1025485220+1025823759+1026120466+1026327689
2643+1026292367+1025986587+1025581421+1025242050+1025084347+1025264698
2635+1025840520+1026566565+1027014187+1026924704+1026435457+1025977930
2626+1025892741+1026154887+1026544540+1026999643+1027610787+1028305041
2618+1028736111+1028621833+1028134525+1027773892+1027811292+1028025580
2609+1028069006+1027878543+1027622076+1027458970+1027462225+1027584399
2601+1027620898+1027393936+1026982951+1026602372+1026306357+1025990189
2592+1025604969+1025276818+1025296696+1025872656+1026726830+1027212823
2584+1027065508+1026677310+1026536160+1026849973+1027654489+1028727038
2575+1029526567+1029717584+1029553855+1029444149+1029475662+1029558565
2567+1029684755+1029897797+1030260992+1030837784+1031499764+1031822027
2558+1031438954+1030508248+1029571101+1028954486+1028632014+1028613799
2550+1028964390+1029421501+1029569785+1029499695+1029781164+1030630698
2541+1031480994+1031551362+1030629729+1029162402+1027805405+1027071326
2533+1027109626+1027539380+1027745773+1027561405+1027382023+1027518395
2524+1027815517+1027987141+1027981670+1027944131+1028038255+1028296661
2516+1028485393+1028163614+1027087325+1025614804+1024515451+1024234743
2507+1024507348+1024796367+1024942365+1025297042+1026258222+1027609886
2499+1028519607+1028536921+1028269027+1028482553+1028948322+1028883564
2490+1028132863+1027168220+1026238483+1025253617+1024419596+1024320071
2482+1025136361+1026210572+1026798514+1027020074+1027574495+1028605973
2473+1029351549+1028994448+1027590217+1026062011+1025404602+1025887754
2465+1026888689+1027466242+1027127288+1026025165+1024624327+1023506759
2456+1023293995+1024159112+1025507036+1026619409+1027364501+1027825698
2448+1027822235+1027389849+1027070911+1027110319+1026981843+1026258638
2439+1025391650+1025090580+1025316920+1025381331+1024862786+1024086944
2431+1023736700+1024176981+1025140101+1026045804+1026560331+1026625920
2422+1026115340+1025039813+1023949187+1023390750+1023134560+1022671631
2414+1022183492+1022279069+1023051864+1024026827+1024822270+1025418938
2405+1025893434+1026182106+1026120881+1025592364+1024645728+1023578581
2397+1022866180+1022835706+1023391650+1024136187+1024642473+1024563171
2388+1023766620+1022534567+1021401208+1020644066+1020118457+1019668272
2380+1019514170+1020105160+1021712736+1024318062+1027703525+1031326408
2371+1034292090+1036010204+1036878577+1037905761+1039643476+1041681500
2363+1043102007+1043324122+1042546825+1041474622+1040682435+1039975159
2354+1038189447+1034374093+1029564383+1026221515+1025958953+1028633330
2346+1032718658+1036197135+1037956182+1038218259+1037647216+1036850458
2337+1036143944+1035257910+1033771814+1031845229+1030103843+1028909398
2329+1028025372+1026943196+1025327724+1023150628+1020676826+1018490726
2320+1017262413+1017112605+1017389157+1017293718+1016526741+1015269339
2312+1013899183+1012815275+1012274984+1012281563+1012621072+1012970070
2303+1013186297+1013645625+1014924428+1016878301+1018414679+1018544471
2295+1017458070+1016305804+1016028420+1016499522+1016762638+1016155857
2286+1015122163+1014720598+1015421917+1016677380+1017654905+1018107376
2278+1018452356+1019244959+1020638179+1022222069+1023348779+1023566946
2269+1022739713+1021028663+1018925051+1017075274+1016027659+1016235436
2261+1017877020+1020312730+1022222138+1022761807+1022191249+1021068764
2252+1019414852+1017130751+1014878440+1013806168+1014137365+1014712148
2244+1014558254+1014184946+1014542394+1015538411+1016416411+1016990224
2235+1017864414+1019590702+1021524975+1021797579+1019473446+1016353385
2227+1015068695+1015929726+1017213931+1017789130+1017755193+1017263521
2218+1016532282+1016488302+1017772577+1019499972+1020272836+1020031814
2210+1019723125+1019609748+1019370388+1019517079+1021063569+1023695214
2201+1025675960+1025955767+1025279589+1024723506+1024118526+1022641088
2193+1020221861+1017620691+1015630734+1014711317+1014961204+1016152741
2184+1017780403+1018949430+1018831135+1018007227+1018380119+1020699473
2176+1023396291+1024677033+1024243193+1022510188+1020188201+1018805302
2167+1019489237+1020979766+1020663528+1017980562+1015209707+1014531451
2159+1015946902+1018775174+1022963767+1027248838+1028690192+1025745357
2150+1020186262+1015258465+1013217117+1014412671+1017094182+1018452495
2142+1017271555+1015077768+1014047328+1014766309+1016339672+1017602060
2133+1017859081+1017229930+1016475628+1016109592+1015929033+1015688011
2125+1015622561+1015824937+1015756162+1014972217+1013740856+1012559293
2116+1011726589+1011659823+1012849212+1015075205+1017257842+1018383997
2108+1018210641+1017085178+1015665433+1014803847+1014997496+1015844191
2099+1016541909+1016773719+1016544610+1015654490+1014176012+1012975056
2091+1012909745+1013751453+1014511642+1014722606+1014795328+1015044177
2082+1015056851+1014408792+1013383686+1012530065+1012116103+1012345213
2074+1013308886+1014497375+1015124518+1014889175+1013852433+1012109454
2065+1010251574+1009394906+1010052800+1011620484+1013229584+1014483869
2057+1015372189+1016140828+1017212823+1018708546+1020068314+1020508456
2048+1019975160+1019297112+1019027555+1018840485+1018615600+1018910783
2040+1019510499+1019149936+1017853887+1017345801+1017793147+1017037320
2031+1014644967+1013224182+1014373193+1016726346+1018704183+1020362873
2023+1021933881+1022573560+1021256110+1018350268+1015707196+1014496475
2014+1013850978+1012991263+1013150213+1015441171+1018126838+1018513443
2006+1016738189+1014898663+1013548454+1011767798+1009683787+1008659581
1997+1009060176+1009231316+1007324816+1003702556+1000910576+1000898387
1989+1003133522+1006040264+1008681743+1010491211+1010891945+1009842113
1980+1007877643+1005498934+1003437709+1003170299+1005784975+1010357679
1972+1014114787+1014482069+1011542359+1008527642+1008731679+1011745219
1963+1014270759+1014160636+1011970728+1009039675+1005620969+1001461742
1955+997319345+994810566+994630284+995581006+995768353+994306913+991588902
1945+988702384+987224114+988448895+991892050+995804991+999062531+1001247800
1935+1002005912+1001461257+1000492943+999960478+1000078773+1000296177+999335759
1925+996273668+992228304+989671113+989253064+989426074+989527331+990732996
1915+993199111+994739922+993373575+989813302+986871030+986229551+986745948
1905+986423269+984668447+982155028+979577406+977019799+974204687+971331743
1895+969448168+969028734+968712981+967333406+966385316+968102184+971769185
1885+975007818+976985793+978217638+979091344+979832072+980698436+981572488
1875+982064160+981687805+979460704+974503264+968349716+965757411+969708306
1866+977160119+983502190+986901712+988036802+988462192+989309372+990750103
1856+992299156+993521097+994133903+993485983+990766656+985935614+979859152
1846+974205588+972090548+975720495+982279764+987203475+989039884+989408136
1836+990126354+990475629+988054532+982243957+976253307+974046083+975027764
1826+976540040+978703423+982641297+986992996+989331466+989132622+987860814
1816+986630423+984760285+981306948+977196272+974827813+975300923+977231456
1806+978378251+977035729+972867983+967795642+965003455+965498520+967037461
1796+966894164+963771679+958944308+957534327+963423443+972598911+978857594
1786+980282465+978701484+976290846+973916499+972606045+973300646+974514345
1776+973141211+967492910+959283401+953999334+955720358+962102253+969226054
1766+974786950+976796230+974383722+969926681+967392345+967176395+967384450
1756+968027591+968797131+966554378+958661730+947630460+940942092+942202680
1747+947318377+951870651+954910509+957105543+959020008+960966263+962006398
1737+959427391+951719873+943984860+944835710+952946732+962679876+971394631
1727+977152362+978908153+977855274+975408136+970316541+959738504+944345216
1717+933861440+937522554+949775558+961400172+968326999+969736772+966130719
1707+959530380+953752494+950603691+946796717+938403809+927736497+922383586
1697+924826291+933276268+943577338+949713640+949096401+943592506+936571694
1687+928216879+916089235+904315159+904231632+913959581+924066586+930616505
1677+932872695+931861717+929998574+927725969+923701313+920592472+924637560
1667+934374513+941738435+943343380+942426457+944530346+949647497+952637004
1657+949745846+939410977+921900433+907012392+906420502+907802571+899293377
1647+880645319+860885442+846726215+832131209+810987809+783298230+751500122
1638+717089278+685389795+669536072+671130489+679176546+688772210+701460370
1628+718679748+738509992+759652562+783705475+808961560+829057968+841222735
1618+849162133+859751460+874209263+886730023+893737952+895446440+893638842
1608+889838794+884126428+875994559+866194926+857252724+851592925+849196347
1598+848024549+846339194+843767113+840709316+837862760+836480137+838029467
1588+842866188+849766281+857363538+865477677+874122065+881636073+885493052
1578+885644730+887296286+895996636+906893681+912404087+911977312+911037325
1568+914434838+919743215+922723580+921868921+915584958+899871346+873974127
1558+857713783+865269068+879346361+890587279+898524945+904604108+910720879
1548+915899118+915828266+907845858+894160988+879842812+871667448+879969625
1538+900673922+916268200+921167393+920072058+921340126+926827676+929949330
1528+926446266+918075175+908746713+898036529+881757830+859550677+835299682
1519+808678843+780294109+760192784+756627525+764830939+774584029+779171971
1509+779953423+791094885+820527096+844831004+850733626+842391000+826826226
1499+811366726+801152924+795209578+788131073+776922984+764517056+760673305
1489+774687087+800298610+823048410+836767494+843309101+847545206+852938148
1479+858747200+862017277+861186165+858100042+859038020+869517917+884450839
1469+894666096+896841253+893067176+888633614+886296252+882140557+870719981
1459+848736950+818439968+792559095+777683243+767444576+758953459+754378745
1449+756835233+767682274+784260588+800983585+813577621+820296809+820646637
1439+814708694+804477923+796660629+797496588+804021019+811186445+818724000
1429+828401598+839139624+847880352+853747304+857813516+859479478+855987218
1419+847401354+839981193+837517641+835526368+829941785+822305328+817878968
1409+820358865+828655294+839785952+852458251+865425802+875301758+879396920
1400+878503545+875913041+874418910+875324337+878734456+882121926+881383692
1390+874298192+862445160+850765485+842580840+835998508+828159952+819373236
1380+812247774+808620873+808706547+813238320+823894897+839503097+855321290
1370+868127537+877867537+884589357+887148002+886023786+885499493+889830829
1360+897522279+904039992+907339296+908287247+908391552+908108835+907055887
1350+905211859+903220447+901573392+899894894+896858706+890889596+882064510
1340+873892609+871315610+875195722+881634410+886835227+889517293+890060701
1330+889378982+888321739+887459184+887097443+887113303+886827747+885734490
1320+884548148+884767007+886702942+888825185+889746402+889820717+890063818
1310+890406997+890064441+889010384+888084041+887960344+888715963+890120056
1300+891829444+893466941+894764721+895543057+895538139+894381510+891788027
1290+887849529+883200640+878650029+874451255+870235304+865870100+862032237
1281+859730474+859556148+861444710+864763476+868585410+872281846+875916088
1271+879791352+883732204+887157075+889691687+891309515+892036529+891972949
1261+891537239+891224603+891121684+891011354+890838205+890726698+890704604
1251+890704466+890719356+890736879+890630982+890278937+889704500+888967928
1241+887945315+886363918+884126082+881512722+879001450+876972223+875627554
1231+875032548+875081029+875469227+875835332+875998853+876049066+876196588
1221+876582501+877232707+878081895+878968136+879642583+879817186+879218093
1211+877660037+875125424+871797101+868098033+864760290+862733002+862785777
1201+865069463+869047092+873785673+878227547+881383276+882650236+882046988
1191+879937143+876456033+871271839+863960415+854779337+845204866+837467428
1181+833228969+832679258+834960589+839326001+845723964+854261208+864271389
1171+874217297+882598707+888710214+892529586+894257397+894031473+891724586
1162+886930390+879425802+869855279+859977937+852177474+848509711+849818018
1152+855373443+863229175+871125979+877458215+881809913+884926719+888143258
1142+892399725+897570968+902833772+907525395+911378011+914240566+916071435
1132+917053046+917383967+917075002+916059661+914264391+911450456+907249674
1122+901640504+895374688+889727979+885673334+883173144+881080544+877789621
1112+872468847+865982023+860445991+857812131+858961973+863748412+871246351
1102+879939844+888161335+894672953+898882462+900599191+899755475+896408936
1092+890891743+883997675+877262558+872784600+871982854+874304425+877584821
1082+879730473+879873701+878446545+876846102+876794434+879375242+884412815
1072+890675031+896601962+901048615+903657196+904658823+904347157+902774348
1062+899863173+895534261+889537516+881462232+871344007+860075316+848819092
1052+838279285+828857254+821035736+815134777+811006163+808336841+807092044
1043+807508985+809713577+813318730+817363679+820650585+822000310+820228658
1033+814465040+805084287+794294524+785353568+780811407+781344773+786192506
1023+794418568+805433077+818478892+832216537+845150636+856350275+865618412
1013+873091626+878917923+883329600+886675308+889126532+890531318+890843123
1003+890674061+891135951+892920070+895597218+897988463+899183947+899104922
993+898234749+897040165+895696812+894276582+892977416+891958682+891112611
983+890293758+889614394+889231044+889018003+888673438+887944484+886592127
973+884308234+880824700+876172070+870942719+866243339+863150843+862112092
963+862877892+864887381+867555040+870286903+872511649+873827990+874040409
953+873062260+870948536+868018177+864750871+861497832+858345427+855190944
943+851872941+848289535+844524324+841011979+838701905+838950269+842895208
933+850651484+861047093+872137372+882076769+889780132+895019110+897970525
924+898688744+896944310+892346534+884334275+872019908+854402705+831233817
914+803995739+776036742+751445754+733359181+722996193+719959382+723089001
904+731038441+742526060+756408042+771507532+786411573+799656923+810254630
894+818033901+823433561+826929908+828685353+828655017+826795545+823164212
884+818133773+812574539+807601100+804097551+802421753+802259687+802781001
874+803303216+803778265+804471343+805593066+807666065+811796965+818924436
864+828782870+839882499+850509018+859621460+866929975+872540114+876723097
854+879752844+881721054+882555766+882161750+880453955+877533015+874060632
844+871210683+869966855+870478127+872096786+873974474+875659205+877094465
834+878090968+878176434+877140869+875347816+873238525+870743529+867272947
824+862043318+854400281+844081204+831236795+816058003+798421130+778050871
815+754996538+729966723+704565263+681350595+663083809+651205082+644911216
805+641801821+639231471+635162212+628714866+620993358+615552211+617244354
795+629422488+651505321+679253286+707491744+732639161+753390346+770016034
785+783227170+793383003+800384284+803724728+802352148+794998406+781309450
775+762783150+742588255+724569210+712091460+707112203+709722793+718178311
765+729481978+740556050+749359734+755240192+758683694+760978046+763802369
755+768544552+775506008+783522977+790503688+794637150+795096131+791415901
745+782636181+768038266+748969112+729015378+711620081+697726464+685975175
735+674703575+663119408+650514706+635138109+615428168+593605334+576942766
725+572775921+581531574+596319397+609954400+621401849+634673310+652323966
715+671859028+688394332+699295048+705373034+707753890+704525300+691120792
705+663859720+623016975+573421244+523841096+485980759+471229816+485296131
696+524667186+578074740+632554600+679462310+716092568+743736851+765036154
686+782146864+796166256+807406758+815836512+821554765+825152576+827509123
676+829072512+829636144+829173284+828447032+828307959+828470164+827406411
666+824862172+821935137+819033450+816010630+812705993+808883574+803891435
656+796615957+785986737+771687745+754445234+735901619+718460334+704703089
646+696420650+694353746+698431316+707743640+720684596+735383214+749972332
636+762892649+773562455+782710219+791431415+799828825+806965646+812192228
626+816277416+820895763+826637980+832035839+835451014+837524429+840685837
616+846362535+853675690+860854967+866774280+871014817+873489382+874539352
606+875092457+876215842+878370221+881289776+884537136+887769881+890301585
596+890842499+888441073+883952449+879845374+877613910+875675551+870656539
586+860271389+844815560+827180280+811986112+803525053+803018768+807867748
577+813742596+816819509+814902135+807724312+796213145+781644111+765773073
567+751000071+739543687+732817781+731878902+737490635+749006027+763830419
557+778739377+791417217+800170065+802557294+795450946+777386051+751323719
547+724968351+707499778+704472455+714990099+733788034+755252520+775196142
537+790515946+799105481+800502925+795826401+786827890+775444368+764220834
527+756527514+754712714+756988781+758349933+755127784+747097311+736744227
517+727820655+723042043+721724039+719909377+713202102+700239606+684444614
507+672410331+669439732+676430139+691020158+709815462+729652009+748536657
497+765078818+777229318+782973889+782141185+776667556+769245940+761844271
487+755402190+751008728+750953459+757171556+768453891+781331544+793552411
477+804630778+813589603+818629184+819398447+817703118+814891746+810746302
467+806140145+804247358+807804930+816162030+825507945+832117496+836030506
458+840847211+848631745+857645909+866313983+874439342+880781898+883382861
448+882539560+880866810+880339885+881353079+883907015+886599677+886250610
438+881792806+876976032+876395362+879703254+883104092+884613598+884563316
428+882530002+877097374+868736118+860037847+852017208+844536445+842874915
418+854059664+870760705+881132281+883260618+881894617+882325202+886218820
408+891602135+895280841+894844300+889725140+880620940+868085427+853687256
398+844009243+846739028+858626066+871096474+880935100+888637007+893250852
388+891505588+882861338+874771648+877076250+888127952+898411845+903774659
378+903847451+895671879+878402981+863347678
##END=
