##TITLE=X8047
##JCAMP-DX=4.24
##DATA TYPE=INFRARED SPECTRUM
##DATE=30/10/2018
##SAMPLING PROCEDURE=Diamant-ATR
##ORIGIN=ComPlat
##XUNITS=1/CM
##YUNITS=TRANSMITTANCE
##RESOLUTION=4
##FIRSTX=3997.453
##LASTX=373.96442
##DELTAX=-1.4165319
##MAXY=0.96679217
##MINY=0.50896233
##XFACTOR=1
##YFACTOR=9.0039537e-010
##NPOINTS=2559
##FIRSTY=0.93362767
##XYDATA=(X++(Y..Y))
3997+1036908558+1036501240+1036434578+1036383539+1036104514+1035659065
3989+1035384806+1035674556+1036598088+1037708234+1038453759+1038797990
3980+1039085754+1039314999+1039057818+1038239806+1037511558+1037543201
3972+1038222396+1038878884+1039114881+1039117926+1039212789+1039370605
3963+1039340816+1039151092+1039177968+1039594356+1040000813+1039806918
3955+1038853199+1037566106+1036547380+1036141121+1036368314+1036997065
3946+1037585237+1037843411+1038098075+1038916220+1040058141+1040625129
3938+1040294734+1039416415+1038261718+1037082726+1036557111+1037120988
3929+1038069809+1038391268+1037888889+1037054856+1036494157+1036407768
3921+1036463706+1036286426+1035972183+1036028650+1036749616+1037933374
3912+1039316521+1040790824+1042013242+1042189130+1040686230+1037845264
3904+1034989138+1033297044+1032994650+1034041973+1036250282+1038715573
3895+1040272822+1040223835+1038785346+1037488786+1037766687+1038856576
3887+1039037826+1037804751+1036194742+1035033425+1034308289+1034548589
3878+1036199508+1038158978+1038922575+1038004272+1036123512+1034503177
3870+1034282273+1035772661+1037621448+1038210282+1037376183+1036478402
3861+1036655879+1037511161+1038111911+1037889816+1036496805+1033929370
3853+1032119839+1033684767+1037213997+1040300361+1041975906+1042059845
3844+1040754746+1038570003+1036241014+1034464120+1033761491+1034412154
3836+1036096437+1038006589+1039412972+1039987309+1039990354+1040039010
3827+1040566411+1041548993+1042443133+1042400899+1040921036+1038806463
3819+1037495141+1037172226+1037663285+1039136925+1041007557+1042201245
3810+1042234741+1041288436+1040137645+1039745288+1039842665+1039070065
3802+1037125556+1035818404+1036714001+1039043321+1041532774+1043485624
3793+1044708042+1045347451+1045500767+1045140383+1044456819+1043914126
3785+1043797352+1043844220+1043461925+1042379186+1041162726+1040834382
3776+1041621215+1042851180+1043856070+1044298539+1044154426+1043687728
3768+1043185349+1042834564+1042948293+1043572410+1043943981+1043158605
3759+1041357216+1039901317+1039639635+1039686967+1038524988+1035427636
3751+1031781963+1030495465+1031739795+1033363639+1034157688+1034146765
3742+1034027078+1033925663+1033100236+1030858033+1027554076+1025151409
3734+1025538404+1028141189+1031248868+1033867938+1035497674+1035853490
3725+1035156951+1034258508+1034055544+1034897983+1036539304+1038435223
3717+1040099846+1041095799+1040859736+1039095882+1036897040+1036424781
3708+1037943833+1039779049+1040636251+1040233699+1039162213+1038600190
3700+1039162743+1040216553+1040985447+1041403688+1041851056+1042553354
3691+1043252209+1043418433+1043013895+1042714215+1042811064+1043007606
3683+1043024090+1042722225+1042025885+1040832529+1039159036+1038032340
3674+1039035245+1041006101+1041372045+1039995253+1039728076+1042271481
3666+1045620652+1047665915+1048078462+1047632749+1046977452+1046103436
3657+1045052604+1044535993+1044823624+1044693346+1042772602+1039115212
3649+1035900689+1035494562+1037426361+1040136586+1042531839+1043869376
3640+1044156941+1044167070+1044375263+1044357323+1043547784+1041961474
3632+1039737741+1036686595+1033623070+1033236803+1035857859+1038809244
3623+1040525236+1040944801+1040526825+1040007565+1040174054+1040877941
3615+1041288304+1041280890+1041536548+1042338540+1043383811+1044693743
3606+1046235237+1047158438+1046787662+1045532012+1044306880+1043464639
3598+1042599295+1041341461+1040003196+1039426543+1039919720+1040629101
3589+1040478566+1039632949+1039919919+1042325433+1045253317+1046848763
3581+1046889541+1046583506+1046945412+1047682795+1048171868+1048579054
3572+1049077593+1048880322+1047103494+1044331837+1042730699+1043372094
3564+1044767885+1045715779+1046493079+1047604416+1048948043+1049995102
3555+1050204818+1049422023+1048331208+1048023187+1048623473+1049203436
3547+1049118239+1048655314+1048526824+1049265133+1050988474+1053095433
3538+1054404174+1054221268+1053123236+1052160912+1051618880+1051101474
3530+1050355088+1049534229+1048874365+1048526559+1048767918+1049895606
3521+1051597366+1052888232+1053098478+1052630721+1052367980+1052468535
3513+1052256370+1051325555+1050235534+1049826826+1050120614+1050377662
3504+1050137892+1049756126+1049803656+1050182575+1050336420+1050100622
3496+1049844633+1049894149+1050096187+1049981134+1049263875+1048238729
3488+1047634073+1047849880+1048461552+1048718931+1048360004+1047699941
3479+1047019952+1046295411+1045639055+1045436885+1045713396+1045887166
3471+1045527180+1044742730+1043608819+1041988616+1040130628+1038705445
3462+1038060673+1037963560+1038083843+1038289256+1038470639+1038368959
3454+1037749541+1036783311+1036019449+1035732280+1035533487+1034919432
3445+1033910569+1032852588+1032025904+1031580853+1031284615+1030499437
3437+1029004812+1027489533+1026633522+1026155703+1025349342+1024136324
3428+1023075364+1022563320+1022325337+1021652034+1020134637+1018127835
3420+1016341871+1015139313+1014422517+1013891806+1013161638+1011931872
3411+1010263013+1008579061+1007347309+1006667188+1006076765+1004940339
3403+1003123460+1001042781+999064379+997199705+995329868+993388470+991388951
3393+989505741+988018464+987005961+986196290+985173062+983700812+981906904
3383+980220105+979031515+978257127+977322010+975776478+973811580+971883753
3373+970055290+967998840+965467946+962562900+959697109+957249890+955098379
3363+952823475+950536456+948867861+947823782+946358416+943537640+939593082
3353+935421596+931575673+928152162+925117301+922259321+919166735+915593219
3343+911647667+907559062+903470125+899351068+894965828+890186178+885378990
3333+881109199+877476369+874023796+870163972+865572458+860437720+855416976
3323+851085555+847361900+843659893+839635168+835619248+832237111+829769172
3313+828020875+826564909+824935438+822908314+820808768+819275219+818619524
3303+818583049+818611250+818301971+817761065+817501965+817886312+818853138
3293+820186107+821741436+823438231+825266032+827207430+829071707+830607110
3284+831833765+833116357+834855651+837094478+839436904+841497062+843392054
3274+845510930+847865074+850067359+851930576+853641273+855335353+856952644
3264+858577482+860464861+862580228+864542280+866187043+867785533+869530785
3254+871198122+872593251+874067156+876223169+879170979+882347041+885083083
3244+887181106+888956081+890798512+892655043+894062022+894884404+895689309
3234+897008244+898685576+900327361+901836218+903177661+904237165+905205580
3224+906556555+908411696+910349982+911989913+913411389+914814925+916103541
3214+917121473+918034347+919075249+920108472+920827121+921242118+921653541
3204+922237344+922878871+923421234+924000734+925047329+926871622+929276077
3194+931638363+933379908+934388307+935008850+935596426+936245235+937082710
3184+938455332+940439494+942494223+944032142+945104819+946128576+947146705
3174+947867737+948312193+948879181+949814828+951069153+952555239+954138769
3165+955593874+956849788+957964170+958795356+959157527+959145611+958884062
3155+958398034+958083062+958578689+959864194+961194118+962043574+962462543
3145+962619301+962596661+962489486+962407599+962583752+963392298+964881562
3135+966479456+967507648+967799781+967684067+967610851+967803356+968021016
3125+967742520+966676727+964907776+962614998+959976400+957294376+955014043
3115+953629240+953506641+954591830+956347806+958185008+959923905+961700468
3105+963499076+964972981+965802115+966081803+966176467+966354606+966774303
3095+967534790+968390800+968660690+967727162+965495816+962308963+958617878
3085+954735480+950762391+946844643+943576101+941935046+942583723+945258796
3075+949025612+953070924+956993372+960414633+962856622+964203890+964875008
3065+965428095+966249881+967456543+968750720+969588989+969715759+969273157
3055+968420920+967375384+966772450+967339769+969059072+971101356+972749561
3046+974047710+975312759+976444220+977190209+977768915+978576137+979497617
3036+980191773+980819068+981800127+983091258+984240527+984876031+984825058
3026+984180882+983412916+983050480+983285683+984002412+984839622+985264151
3016+985135462+985053905+985642739+986815111+988136959+989391483+990475348
3006+991280054+991894375+992524185+993159888+993564161+993561513+993289769
2996+993198878+993658890+994538004+995350125+995770087+995825164+995745328
2986+995726528+995664037+995194426+994163123+992795731+991271382+989529109
2976+987568448+985467049+983092251+980308083+977475855+975328448+974324220
2966+974370823+975133428+976378353+977937257+979553952+981017596+982333751
2956+983544055+984564634+985396813+986197481+986949494+987460148+987818347
2946+988392021+989242603+989981839+990340833+990509639+990800911+991306666
2936+992052258+993137777+994427453+995391432+995678402+995712560+996345019
2927+997939471+999970766+1001568992+1002420037+1002966504+1003635570+1004207259
2917+1004228310+1003707395+1003064742+1002647428+1002498085+1002441882
2908+1002343446+1002314583+1002544424+1002959288+1003277305+1003326557
2900+1003114391+1002707338+1002219258+1001808497+1001555686+1001393632
2891+1001197685+1000924816+1000656978+1000529281+1000629108+1000944477
2883+1001402106+1001944733+1002519070+1002954853+1002976235+1002469421
2874+1001694106+1001136187+1001150420+1001698211+1002359399+1002629224
2866+1002289097+1001543704+1000863583+1000689680+1001147838+1001944998
2857+1002587982+1002802067+1002748116+1002741959+1002755729+1002411696
2849+1001558930+1000576613+999931113+999652352+999367700+998693801+997584251
2839+996376662+995438102+994791610+994270761+993908259+993862450+994074152
2829+994353112+994734149+995409968+996322247+997136751+997644028+997916103
2819+998075773+998210619+998516456+999192142+1000144603+1001061185+1001784666
2809+1002417323+1003074871+1003720834+1004243602+1004543083+1004496148
2800+1004013165+1003292398+1002870053+1003166622+1004063145+1005092198
2792+1005887239+1006321897+1006462834+1006556570+1006880346+1007479441
2783+1008150625+1008707287+1009149823+1009533773+1009794197+1009850929
2775+1009818889+1009889059+1010061241+1010249045+1010526416+1011007744
2766+1011646094+1012348260+1013047049+1013542279+1013576569+1013166206
2758+1012616363+1012185942+1011885269+1011568179+1011159007+1010794255
2749+1010654907+1010683174+1010664837+1010597646+1010692640+1010961935
2741+1011123657+1011051038+1011059445+1011522039+1012350047+1013052213
2732+1013234986+1012864805+1012144369+1011381566+1010909638+1010855025
2724+1010967363+1010899841+1010642462+1010471207+1010504571+1010562097
2715+1010437115+1010093877+1009597389+1009032983+1008516702+1008174391
2707+1008055896+1008046959+1007888348+1007396031+1006672616+1005991038
2698+1005513351+1005288674+1005430537+1006013016+1006820304+1007496255
2690+1007945345+1008306258+1008580517+1008671077+1008776001+1009300225
2681+1010260233+1011164038+1011615511+1011722355+1011792856+1011941140
2673+1012167869+1012570289+1013224328+1013973892+1014521285+1014686649
2664+1014516585+1014223790+1014020561+1013923581+1013783174+1013569155
2656+1013490114+1013760733+1014381938+1015140901+1015703388+1015824134
2647+1015619912+1015505257+1015744630+1016199942+1016558538+1016656843
2639+1016511405+1016157244+1015589792+1014926551+1014523470+1014737357
2630+1015523395+1016444611+1017167629+1017765068+1018355756+1018694691
2622+1018480341+1017911300+1017481078+1017317303+1017206090+1017171865
2614+1017470486+1018039791+1018501591+1018736793+1018970672+1019256119
2605+1019354159+1019193892+1018978417+1018738250+1018256591+1017625324
2597+1017389592+1017831796+1018498479+1018827617+1018889182+1019066527
2588+1019319603+1019288622+1018969282+1018814444+1019183301+1019945773
2580+1020683156+1021196590+1021667524+1022227231+1022663676+1022873326
2571+1023209084+1023916347+1024655186+1025133866+1025733159+1026864488
2563+1028081544+1028473306+1027764322+1026478420+1025192121+1024171806
2554+1023569666+1023407878+1023443492+1023402979+1023179560+1022712332
2546+1022137069+1022060345+1022985665+1024461027+1025450559+1025471213
2537+1024865167+1024249060+1024146982+1024810090+1026040783+1027348994
2529+1028332038+1028836403+1028992631+1029120593+1029280991+1029086170
2520+1028368779+1027705405+1027767168+1028424054+1028878770+1028502830
2512+1027399040+1026296970+1025815907+1025729783+1025226809+1023954146
2503+1022359164+1020919417+1019594326+1018256127+1017200728+1016877349
2495+1017325975+1018112874+1018696147+1018778763+1018518471+1018491727
2486+1019268895+1020958276+1023177441+1025256465+1026483782+1026656228
2478+1026495698+1026959748+1028032557+1028756171+1028546124+1027937298
2469+1027858257+1028548970+1029446553+1030049222+1030567820+1031420520
2461+1032353254+1032680406+1032323134+1031904099+1031801359+1031873979
2452+1032109909+1032716683+1033507223+1033963660+1033978092+1033918977
2444+1034018340+1034204093+1034391831+1034526809+1034505030+1034359923
2435+1034372170+1034773861+1035492775+1036310854+1037061145+1037526784
2427+1037458600+1036936759+1036394396+1036047384+1035693091+1035224804
2418+1034809542+1034482523+1034151862+1034018208+1034414074+1035295372
2410+1036301453+1037171895+1037858835+1038440254+1038977123+1039283422
2401+1038979175+1038006325+1036852554+1036054004+1035731221+1035770411
2393+1036141187+1036817006+1037561803+1037867110+1036986076+1034264002
2384+1029728624+1024114611+1018033370+1011430553+1004054539+996026406+987664171
2374+979113535+970372446+961462817+952527502+943766951+935279601+927384593
2364+921167778+917793253+917041770+917616172+919191427+922956323+929717686
2354+938784470+948882226+958580013+965834817+968512936+965652242+958661437
2344+951406103+947346691+946635125+947499609+948832511+950749283+953509554
2334+956305042+957798674+958003293+958479656+960227821+962591498+964637952
2325+966432853+968746152+972252345+977129439+982976470+988883808+993786918
2315+997059563+998959786+1000512864+1002783466+1006174010+1010384884+1014755760
2305+1018477693+1020966220+1022497386+1024192791+1026935320+1030431981
2296+1033504178+1035138746+1035298814+1034982121+1035418037+1036990313
2288+1039049213+1040810551+1042108766+1043148476+1043967018+1044440071
2279+1044554197+1044412996+1044106498+1043717318+1043373617+1043252540
2271+1043528984+1044217380+1045065380+1045764104+1046277935+1046739999
2262+1047021938+1046744567+1045875052+1044960125+1044517391+1044579617
2254+1045015136+1045644152+1045979447+1045928143+1046595687+1048834646
2245+1051267632+1051689249+1050228583+1049107780+1049462206+1050280549
2237+1050454055+1050336089+1050880306+1052207052+1053564647+1054197569
2228+1053848373+1052891145+1052213142+1052416967+1053072595+1053213200
2220+1052335609+1050665095+1048973199+1048233830+1048895349+1050540112
2211+1052428949+1054077154+1055361600+1056424281+1057226604+1057184502
2203+1055769116+1053275360+1050591615+1048640221+1047966984+1048194111
2194+1048130362+1046963815+1045086233+1043578434+1043001251+1042682109
2186+1041606056+1040260840+1040484326+1043024950+1046705510+1050182178
2177+1052776424+1053660634+1052160647+1049023576+1046253640+1045581396
2169+1047189353+1049584143+1050917641+1050786635+1050631003+1051985089
2160+1054271578+1055161019+1053885841+1052427956+1052567435+1054307987
2152+1056749844+1058821057+1059871624+1060211022+1060307738+1059765044
2143+1058265057+1056503653+1054985262+1053396106+1052140059+1052638797
2135+1055114614+1057823779+1059286034+1059749951+1060005477+1060055192
2126+1059359646+1057784193+1056009880+1055025842+1055102897+1055413698
2118+1055069069+1054336188+1054127332+1054477190+1054504332+1053943963
2109+1053656729+1054316262+1055447194+1056130030+1056166703+1056168491
2101+1056594146+1057074481+1056997492+1056485051+1056196757+1056339746
2092+1056582164+1056783010+1057105991+1057519002+1057774925+1057795645
2084+1057574079+1056927454+1055995448+1055617324+1056315914+1057345430
2075+1057797565+1058041439+1058807817+1059677928+1059822902+1059417702
2067+1059215334+1059441202+1059783977+1059870829+1059317544+1057842513
2058+1055901447+1055019288+1056536355+1059443652+1060437090+1057377470
2050+1052203345+1049332920+1050988076+1055125272+1058539912+1060507657
2041+1062121241+1063400324+1063251709+1061847444+1060761594+1060597356
2033+1060437487+1060004881+1060324619+1061613500+1062541997+1062482220
2024+1062678101+1064023515+1065199263+1064400647+1061895835+1059874470
2016+1060422658+1063888735+1068285362+1070425023+1068944829+1065943928
2007+1064279769+1064138766+1063771895+1062386696+1060728693+1059871028
1999+1060319720+1061447607+1061694924+1060263849+1058414401+1058184626
1990+1059922596+1061991293+1062577810+1060873734+1057292141+1053451646
1982+1051575388+1053211479+1058208656+1064657827+1069915627+1072304327
1973+1071857290+1069522608+1066448822+1064269309+1064867411+1068382342
1965+1072224426+1073741823+1073042835+1072185766+1072362052+1072765729
1956+1071954535+1069495003+1066375872+1064319620+1064564024+1066835354
1948+1069435623+1070715766+1070405561+1069216308+1067722610+1066288887
1939+1065410502+1065252950+1065294324+1065037541+1064670008+1064518215
1931+1064526159+1064704100+1065159941+1065448103+1065022116+1064371851
1922+1064437916+1064934536+1064798168+1064005244+1063542253+1063604745
1914+1063271635+1062098733+1060979254+1061095167+1062381863+1063862388
1905+1065112543+1066291932+1067285105+1067800261+1067862421+1067600209
1897+1067017532+1066232354+1065411296+1064415144+1063011806+1061510958
1888+1060914644+1062106015+1064891838+1067882148+1069451048+1069262978
1880+1068396442+1067820782+1067570023+1067412537+1067364742+1067326479
1871+1066942993+1066070830+1065213430+1065241961+1066436642+1068192022
1863+1069594897+1070081917+1069700152+1068917556+1068406703+1068729420
1854+1069831489+1071009356+1071480092+1070938126+1069761650+1068707972
1846+1068273049+1068532149+1069381208+1070497179+1071447456+1072025433
1837+1072184640+1071820285+1070885499+1069433439+1067570619+1066013635
1829+1066023631+1067650123+1069586820+1070908006+1071561383+1071645720
1820+1071201463+1070571123+1070200942+1070042132+1069622634+1068740938
1812+1067752863+1067151716+1067105178+1067543676+1068237368+1068675137
1803+1068439471+1067710562+1067035074+1066690843+1066510387+1066094066
1795+1065119031+1063763819+1062829893+1062915223+1063652805+1064298172
1786+1064344643+1063757332+1062934090+1062276409+1062039751+1062330758
1778+1062870142+1063165320+1062873055+1061893585+1060728031+1060359307
1769+1060933114+1061812955+1062495261+1062531803+1061429667+1059154630
1761+1056299497+1053221409+1049828613+1046401924+1043470200+1041063693
1752+1038847970+1036815748+1035754986+1036230820+1037277415+1037608009
1744+1037000177+1035724734+1033836957+1031727482+1029900607+1027821186
1735+1024289176+1018995893+1013484818+1008631291+1003321062+996191770+986053897
1725+971258444+950731211+926290732+900432748+871437230+834916884+793964298
1715+761135765+740456409+727001273+716894513+707879695+698027269+686196904
1706+673629487+663693387+658165961+656433154+658075005+663850608+674808082
1696+691226916+710319698+728904871+747540885+767502387+787066368+804099059
1686+820720460+840899026+861627370+877211311+888731801+898497176+907342395
1676+915666699+923228332+929130043+933880632+939961807+948718584+957634767
1666+964411090+969406878+973809528+978271558+982499512+985906010+988220634
1656+989560024+990979514+994979613+1000803938+1004693750+1006985734+1010306373
1646+1016410916+1023129712+1027896718+1030648317+1032027823+1032455531
1638+1032326312+1032686629+1034631932+1037061145+1038243116+1037465551
1629+1034427909+1029070547+1021201157+1010053959+996559237+985608581+981159790
1619+982801641+989464235+999669762+1009040595+1014551472+1016724431+1016615535
1609+1014695652+1011128887+1006021092+999493807+991639577+982424707+971553027
1599+958365663+941977876+921663470+897331358+869680062+839873416+809605103
1589+781486911+758091504+740127337+726235888+714754256+705595588+700299261
1579+700655805+709141831+729354887+758337563+785205071+806839139+827972153
1570+851870203+875571446+895393204+911850631+925465769+935203605+941263795
1560+947438706+958302046+969361532+976612894+981321778+984442697+986637832
1550+988702623+990701481+991947797+991795673+989884396+985918720+979320801
1540+971157690+964819666+959183874+949294774+930497303+902709639+871278023
1530+837300619+796226227+747458997+700275297+664876616+643894865+637465885
1520+643690180+657803790+677142367+699229761+720279563+738818265+755120127
1510+769340581+784332511+807865875+838683038+862941009+879161579+891861193
1500+903254054+914202392+925251749+935624428+943400676+947492128+947241170
1490+941328471+929028627+912097088+892621481+870835885+846368926+820720857
1480+798122478+782725547+776112204+778335739+789773416+810859495+837173783
1470+859686833+874985128+885412552+893839530+902061690+910145231+916777903
1460+921038691+923033775+924029133+925945574+928514200+930189017+930584618
1451+930265675+930254157+931466314+933745190+935167395+932628292+923411304
1441+905955209+877164839+831053353+771583446+723459664+703662863+709283297
1431+734842594+773557479+814315907+849867837+879817935+904604234+923314721
1421+936666720+947624525+958131255+967198899+973812838+978198012+980909230
1411+982691950+984102305+985091572+985720390+986727796+988592800+990715383
1401+992323737+993322007+994093747+994990933+996251348+998114764+1000257670
1391+1001608843+1001308965+999539881+997331572+995191050+992480428+988510317
1381+983412982+978065483+973214207+968669958+963720046+958127945+952065769
1371+945045969+936059417+925075662+913582048+903036460+893802988+885885738
1361+878672572+869563024+854778692+831493969+799285847+760635968+719798633
1351+681177616+649100369+627550703+618474320+620600345+630136078+642703958
1341+655265549+666563481+676242268+684240546+691002636+697589169+705081029
1332+713320996+719983127+721426317+714928622+700282976+679795859+657003056
1322+634908975+615193863+598809254+586413820+577912899+572373293+568733445
1312+566395785+565265382+565473113+567235113+570919975+576861273+584908736
1302+594380720+604499527+614668248+624359217+632952087+639813938+644665082
1292+647896950+650373230+652843618+655522663+658073747+659952984+660895781
1282+661124827+661119001+661206251+661208899+660272126+657112084+650680456
1272+640863049+628848454+616898933+607552063+602767515+603379320+608926406
1262+618051048+629291122+641636179+654604360+668021564+681701642+695282290
1252+708350563+720623133+731997987+742539140+752355222+761395527+769444314
1242+776330526+781990547+786226444+788383516+787264500+781456459+769881753
1232+752269628+729460738+703428984+676844805+652497732+632920246+619879842
1222+613703276+613282255+616974134+623468055+631991086+642051772+653089478
1213+664359872+675192562+685302697+694773821+703794928+712460220+720740899
1203+728514765+735572364+741694185+746771925+750752363+753424457+754283314
1193+752560834+747639917+740048031+732158187+727290957+727615593+732867502
1183+740944025+749501215+757226160+764106613+770761660+777582469+784467224
1173+791125119+797350341+802997917+807911618+811985461+815191842+817497529
1163+818853668+819271180+818674800+816610869+812515842+806840728+801841498
1153+800528786+804339359+811960372+820512862+827635005+832322970+833992557
1143+831218319+822305909+807630275+790542706+775111352+763758741+757752569
1133+758427328+766254350+779435425+794729815+809441064+822215946+832747434
1123+841459263+849105166+856173490+862693758+868560516+873798854+878526869
1113+882842469+886779878+890382853+893839596+897461106+901427047+905597407
1103+909630208+913299712+916711639+920203533+923994908+927931391+931625785
1094+934872283+937872191+940993838+944393253+947964056+951538963+955007423
1084+958335278+961521932+964371570+966202946+965717712+960768529+947786512
1074+921714907+878098037+817582396+749486651+689576327+651877520+641030266
1064+651672239+674082946+700006532+724881603+747154949+766641279+783402094
1054+797629102+809798865+820418132+829761096+837970215+845174775+851479369
1044+857054921+862192902+867088266+871647409+875634401+878941271+881675989
1034+884032516+886105913+887916437+889679695+891832397+894559436+897539154
1024+900435793+903366061+906532591+909701040+912478853+914934281+917540640
1014+920586490+923935529+927353744+930840343+934553935+938499023+942397308
1004+945907606+948928499+951640776+954294070+956963583+959423114+961259191
994+962243228+962474856+961777523+958710821+950063932+931248190+897890138
984+848921532+789769179+732251592+689537668+669425697+671253167+688163589
975+711636250+734681335+753247774+766870657+778071674+789788112+802745966
965+815499400+826450188+834974411+841173087+845769103+850075832+855109021
955+860752361+866213191+870984433+875062514+878600350+881686250+884350202
945+886614978+888488986+889956006+891026631+891754217+892256596+892863039
935+894053880+896009113+898479369+901237587+904231472+907198744+909691574
925+911669513+913627526+915914280+918090219+918929878+916627302+909031775
915+895084190+877392098+862487352+856508123+860360136+869889447+880163225
905+888674076+895289008+900682183+905264562+909068913+912071072+914407673
895+916301474+917767105+918563735+918648270+918372223+917775710+915470686
885+907887869+890160758+859812278+820429386+780580855+749560926+735217938
875+742444410+769142913+805035368+838253080+863065263+880385321+893140211
866+903239821+911501435+918225462+923493986+927178848+928671488+927066179
856+921579994+910408170+889573645+856626551+816310726+777744985+744743014
846+714486219+685979376+662354129+644548573+631186049+625617646+635302193
836+662549745+700705652+740023141+774327962+802222006+824509253+841881277
826+854742614+863989193+870897979+876476311+881406429+886267569+891390325
816+896511492+900659345+902293649+898904891+886180320+860009947+822978153
806+788254297+772143815+780500688+804715564+831464974+853171794+868945526
796+880316805+888875451+895842293+901615248+905949119+908843772+910715463
786+911816274+911760469+909159803+901629415+886890495+864709695+838610154
776+816069897+805729722+812116733+832018127+856479062+877005897+890072383
766+896523143+898457987+897103569+891280171+876111293+845422753+798591162
756+744951671+699945960+676378769+678183070+700281784+733032203+767427053
747+797964793+822633458+841617079+855979132+866592441+873921983+878769552
737+882552123+886421216+890588531+894743468+898583962+901756516+903941788
727+905354195+906620039+907917658+908842779+909306233+909826287+910677200
717+911451522+911635950+911068631+909895200+908446516+907075748+906018296
707+905470638+905563911+906053712+906307318+905768199+904234053+901574139
697+897227426+890211068+880136547+868249120+856912727+848107426+842852737
687+841529036+843781830+848255644+853016295+856383736+857576497+856637077
677+853451813+847148014+837285857+825186330+813108516+804184058+804603225
667+816854016+830137963+835854252+835177772+832237905+829755138+827736752
657+825157004+821788834+817927024+813576604+808596042+803083511+796775673
647+787498511+770669711+742209671+703751304+664578194+636452124+625435469
637+629024476+640709403+655145796+669242857+681486167+691515673+699443582
628+705316761+709373194+712256263+714576050+716538830+718214772+719972867
618+722352431+725425687+728607773+731192287+732641831+732572853+731222606
608+729757174+729430088+730514417+732274166+733764687+734656577+735451883
598+736782337+738462648+739223664+737029455+729931276+717750259+702984132
588+689110887+678059478+669272183+660869698+652233733+645475217+643640134
578+647593695+655370142+664242899+672900843+681457768+689612207+695872713
568+699307081+701207965+703815715+707972107+712849863+717380541+721084667
558+723680170+725022275+725985857+728426257+733191608+738636750+742160353
548+743153857+743450624+744935584+747893722+751721639+755999836+760361179
538+764288327+767725144+771244378+775155109+779005997+782253487+785018987
528+787988511+791689658+795848301+799567587+802130851+803255560+803213193
518+803436480+805917129+810920662+816514154+820849017+823676876+825645481
509+827169896+828502070+830319876+833196390+836394430+838345493+839064671
499+840560554+844100641+848565121+851905553+853561305+854853231+857377372
489+861536612+866387756+870443064+872957805+874806260+877520854+881403980
479+885133394+887251408+887861624+888471509+890305401+893249769+896519502
469+899683648+902475032+904575901+906003997+906969500+907392904+907159290
459+906521734+905543787+903175873+897613363+887347330+871573069+850073184
449+823081555+793079425+766801546+752064281+751688341+761858916+776076192
439+790330342+803922972+817266365+830676221+843574762+853918776+860288774
429+864514410+869566731+875431503+879807277+882063050+883807773+886457823
419+891280171+899385028+908591689+914838757+915590107+911064129+904149055
409+897348768+890666248+883440968+875598190+866134481+852040863+828789768
399+792638147+749236091+717485333+707476481+711849143+722736778+737675021
390+754392674+768122996+776453589+784071491+797342198+813884095+825773840
380+829665770+827899004+825643363+828458975+836563501
##END=
