##TITLE=X7399
##JCAMP-DX=4.24
##DATA TYPE=INFRARED SPECTRUM
##DATE=29/10/2018
##SAMPLING PROCEDURE=Diamant-ATR
##ORIGIN=ComPlat
##XUNITS=1/CM
##YUNITS=TRANSMITTANCE
##RESOLUTION=4
##FIRSTX=3997.453
##LASTX=373.96442
##DELTAX=-1.4165319
##MAXY=0.94327998
##MINY=0.51929688
##XFACTOR=1
##YFACTOR=8.7849794e-010
##NPOINTS=2559
##FIRSTY=0.8961556
##XYDATA=(X++(Y..Y))
3997+1020099824+1020717719+1021297822+1021438065+1021078604+1020336275
3989+1019536343+1019281098+1019924911+1020998000+1021664407+1021720111
3980+1021594252+1021449735+1020961769+1020009178+1019034537+1018582599
3972+1018790079+1019438099+1020233349+1020895957+1021206227+1021127252
3963+1020830754+1020588264+1020657537+1021103776+1021593845+1021534342
3955+1020673278+1019511986+1018877061+1019114191+1019865001+1020581276
3946+1021030161+1021286017+1021559513+1022048157+1022645698+1022996949
3938+1022957732+1022618355+1022029838+1021348098+1021018355+1021222036
3929+1021445460+1021229499+1020778104+1020569809+1020810400+1021224207
3921+1021296533+1020759717+1019918465+1019465713+1019790096+1020677281
3912+1021772964+1022916481+1023981496+1024675585+1024677688+1023942755
3904+1022814572+1021816998+1021379105+1021713801+1022579003+1023368283
3895+1023700876+1023601003+1023305795+1023197169+1023545096+1024103556
3887+1024228600+1023394269+1021888510+1020558886+1019779987+1019672244
3878+1020398832+1021658572+1022677926+1022741771+1021823240+1020687051
3870+1020326709+1021248157+1022842526+1023954086+1023834537+1022718567
3861+1021617117+1021214369+1021614199+1022684982+1023970166+1024318974
3853+1022810976+1021249718+1021398645+1022725895+1024258589+1025255417
3844+1025254264+1024330169+1023178918+1022460743+1022228838+1022346690
3836+1022920959+1023731000+1023991334+1023282319+1022274228+1021899095
3827+1022222256+1022743196+1023236114+1023700808+1023831009+1023381853
3819+1022911121+1022958004+1023347996+1023735817+1024030619+1024235792
3810+1024306558+1024253229+1024297534+1024764670+1025421510+1025350948
3802+1023934952+1022241390+1022302453+1024254790+1026535512+1027664984
3793+1027485050+1026852635+1026396016+1026191453+1026215336+1026521875
3785+1026931068+1027006923+1026481641+1025434673+1024285254+1023652160
3776+1023746538+1024301876+1025161312+1026311138+1027408653+1027828498
3768+1027521756+1027157003+1027201512+1027553916+1027837862+1027673872
3759+1026882624+1025833960+1025224682+1025180173+1025174067+1024648446
3751+1023640219+1022865866+1022547589+1022165467+1021390910+1020591317
3742+1020512545+1021057639+1021504149+1021417303+1021064220+1021137293
3734+1021638625+1022149387+1023093701+1024930016+1027220577+1028959259
3725+1029348030+1028530254+1027391351+1026518550+1025915446+1025566027
3717+1025661761+1026214657+1026840219+1027031416+1026701130+1026488018
3708+1026896398+1027597136+1028022884+1027929592+1027429550+1026791368
3700+1026300214+1026283591+1026999459+1028387501+1030169470+1032147454
3691+1033961040+1034497042+1032707406+1029709594+1027499977+1026595626
3683+1026537683+1026776510+1027037047+1027388230+1027911138+1028432349
3674+1028832518+1029214301+1029329508+1028759581+1028158581+1028715480
3666+1030091241+1031115480+1031235504+1030746928+1030161125+1029690461
3657+1029496279+1029912936+1030872312+1031640287+1031530237+1030304217
3649+1028377934+1026812266+1026399476+1027235504+1028940601+1030750659
3640+1031971048+1032528354+1032702182+1032551966+1032124928+1031748505
3632+1031464492+1030613334+1028845681+1027512461+1027733646+1028694379
3623+1029663593+1030700994+1031878435+1032735088+1032781022+1032219034
3615+1031550388+1031180140+1031410281+1032196372+1033245308+1034301843
3606+1034969810+1034868716+1034207194+1033563381+1033168029+1032813250
3598+1032403853+1031982921+1031434503+1030870955+1030795236+1031320857
3589+1031887798+1031940245+1031731475+1031936513+1032370539+1032306829
3581+1031677807+1031305591+1031667494+1031979461+1031405396+1030448666
3572+1030098501+1030395066+1030743264+1030811587+1030478927+1029649073
3564+1028620085+1027791318+1027133663+1026491546+1026087645+1026238133
3555+1026669988+1026636538+1025811027+1024764331+1024165230+1023834537
3547+1022961736+1021039456+1018614963+1016929202+1016713648+1017484812
3538+1017932069+1017069852+1015032433+1012638200+1010511426+1008831365
3530+1007429482+1005963414+1004292309+1002646580+1001322044+1000391707
3521+999562804+998257266+996208924+993946452+992232128+991069817+989715971
3512+987548284+984670292+981866187+979925860+978800866+977608974+975524401
3502+972586974+969472870+966636266+964064406+961630889+959340803+957233230
3492+955199746+953043865+950714834+948442932+946521466+944836113+942798423
3482+940000832+936762362+933673768+930927063+928516411+926578391+925102689
3472+923742465+922181003+920287016+917912934+915073412+912275413+910122788
3462+908635552+907423781+906419354+905921007+905950589+906024069+905687473
3452+905057094+904644169+904720973+905053159+905273870+905284590+905181732
3442+905093800+905165787+905368179+905495937+905663251+906384344+907797489
3432+909296395+910237452+910596438+910774608+911132236+911716954+912220456
3422+912357035+912340344+912692545+913634552+914963226+916330303+917383106
3412+917961377+918338343+918957595+919897634+920914613+921923247+923026122
3403+924101247+924786651+924953626+924894869+924973302+925277059+925676143
3393+926054465+926408159+926840624+927517140+928506098+929635977+930665237
3383+931647409+932882114+934388415+935755288+936727352+937627564+938910644
3373+940562141+942126792+943150353+943597609+943989772+944885981+946149996
3363+947232517+948193250+949661149+951695175+953501773+954432042+954619982
3353+954566585+954719448+955449903+956808567+958238199+959038742+959139836
3343+959033518+959074023+959225257+959341957+959383005+959462795+959822934
3333+960635350+961806752+963016420+963945400+964568316+965238318+966311883
3323+967742194+969213486+970466102+971354644+971931559+972551625+973545875
3313+974793946+975852584+976378680+976353779+976129676+976237555+976942771
3303+978050735+979147978+979890307+980149149+980079333+979988688+980097652
3293+980507795+981284116+982370979+983520466+984463694+985083353+985334053
3284+985224817+985094209+985613588+987050413+988670699+989474567+989487865
3274+989654229+990467460+991486542+992226564+992705031+993020661+993151812
3264+993321840+993930508+994942263+995826734+996216251+996244205+996151456
3254+995895193+995348131+994727183+994572693+995220780+996393471+997409840
3244+997871480+998182429+999144926+1000814810+1002138463+1002200137+1001422188
3234+1000907490+1001075822+1001547979+1001867816+1001857503+1001695413
3225+1001909339+1002866951+1004199018+1005170199+1005610399+1005988111
3217+1006544264+1006929439+1006883574+1006750455+1006977612+1007473923
3208+1007830466+1007958563+1008157495+1008561871+1008834825+1008630398
3200+1008189858+1008116514+1008636233+1009418457+1010018168+1010191046
3191+1009950795+1009539769+1009159276+1008762295+1008370539+1008350659
3183+1008971200+1009940414+1010742924+1011199069+1011419305+1011433892
3174+1011213588+1010957054+1010998373+1011399289+1011919347+1012369046
3166+1012705642+1012897517+1013012113+1013249446+1013621595+1013808245
3157+1013493633+1012677824+1011722451+1011212028+1011529287+1012470615
3149+1013485762+1014165264+1014300892+1013847530+1013057639+1012304522
3140+1011768520+1011615997+1012168622+1013430941+1014761243+1015408585
3132+1015227837+1014752695+1014701198+1015368961+1016338175+1016839914
3123+1016455214+1015441559+1014470649+1014077332+1014270021+1014684371
3115+1015032230+1015174236+1014902639+1014102232+1013140550+1012722740
3106+1013204395+1014179444+1014886356+1015036844+1015059641+1015402614
3098+1015919144+1016212859+1016249837+1016249294+1016204446+1015929457
3089+1015528201+1015468834+1016061422+1017013877+1017652941+1017539973
3081+1016808907+1015945265+1015218813+1014333188+1012779122+1010404836
3072+1007247038+1003023816+997616234+992114818+988578765+988483506+991658809
3063+996583718+1001375101+1004729796+1006304420+1006348997+1005304336
3054+1003951643+1003325606+1003897568+1005114428+1006036555+1006275653
3046+1006217167+1006439981+1007037997+1007667765+1008191487+1008800765
3037+1009464797+1009883082+1010082217+1010462371+1011187331+1011935563
3029+1012245833+1011921518+1011188281+1010443238+1009783549+1008990808
3020+1007934681+1006637217+1005082200+1003404039+1002098365+1001659047
3012+1002114038+1003104827+1004195965+1005000782+1005281810+1005121959
3003+1004858029+1004713241+1004566485+1004181106+1003593675+1003158156
2995+1003207821+1003794981+1004749947+1005809670+1006676229+1007192013
2986+1007483896+1007699450+1007707253+1007355866+1006834452+1006439574
2978+1006251092+1006321179+1006809958+1007626242+1008300248+1008447614
2969+1008064203+1007269563+1006133646+1004913936+1004112511+1003966298
2961+1004054433+1003754000+1002937310+1001873176+1000668936+999217523+997496957
2951+995558529+993414114+991163041+988978392+986797338+984295634+981356171
2941+978350896+975812960+974071496+973338259+973707626+974724605+975427378
2931+975313664+974883098+974875771+975420932+976173371+976878722+977600086
2921+978561836+979786567+980894531+981467714+981567315+981681097+982214249
2911+983162227+984229074+985225631+986291868+987620678+989077043+990295328
2901+991052516+991403971+991590689+991883726+992367892+992875941+993246800
2891+993543297+993908254+994368062+994882217+995394404+995761803+995861201
2881+995817574+995873685+995984210+995791724+995048513+993876772+992661472
2871+991815199+991503640+991476908+991281911+990704658+989961107+989536919
2861+989857978+990961396+992461794+993926912+995236589+996512138+997799425
2851+998926047+999689544+1000136869+1000541856+1001126776+1001912053+1002738243
2842+1003330830+1003568978+1003747351+1004266120+1005103776+1005953509
2833+1006738039+1007592589+1008501961+1009312206+1009982751+1010603089
2825+1011219423+1011759971+1012102809+1012152338+1011900757+1011547470
2816+1011505065+1012020713+1012815420+1013376933+1013576950+1013769300
2808+1014330881+1015240864+1016069767+1016361718+1016028040+1015331373
2799+1014633689+1014278638+1014482794+1015149675+1015925793+1016491919
2791+1016726946+1016717583+1016698518+1016880555+1017309153+1017899637
2782+1018487272+1018851753+1018872786+1018660760+1018440999+1018337870
2774+1018297432+1018203462+1018071565+1018069937+1018347844+1018963228
2765+1019896143+1020919907+1021626751+1021816184+1021678587+1021473550
2757+1021287442+1021135665+1021023308+1020898603+1020734342+1020596745
2748+1020539481+1020523130+1020471429+1020314293+1019969080+1019401461
2740+1018763279+1018387331+1018522349+1019085016+1019732629+1020140194
2731+1020147657+1019756986+1019152389+1018663610+1018525878+1018668766
2723+1018877943+1019128235+1019573388+1020219237+1020839982+1021247140
2714+1021464797+1021602190+1021723299+1021895838+1022230941+1022743535
2706+1023239371+1023473176+1023415098+1023228719+1023002241+1022672159
2697+1022274092+1022081335+1022307202+1022779495+1023162974+1023424868
2689+1023730865+1023946419+1023731814+1023183668+1022870072+1023076874
2680+1023466120+1023628753+1023580716+1023512393+1023385652+1023050278
2672+1022568690+1022186772+1022078350+1022213232+1022390181+1022409653
2663+1022322536+1022397373+1022754391+1023229533+1023683235+1024221883
2655+1025029889+1026106778+1027135631+1027626242+1027403971+1026919534
2646+1026782548+1027084066+1027467884+1027669462+1027657046+1027432875
2638+1027021306+1026542704+1026121909+1025841695+1025834164+1026195388
2629+1026764908+1027239914+1027562465+1027886848+1028117940+1027902046
2621+1027242289+1026648005+1026432043+1026346080+1026181005+1026178223
2612+1026530424+1027003191+1027365569+1027732222+1028234299+1028745740
2604+1029089799+1029198289+1028986941+1028375763+1027572642+1027098789
2595+1027293718+1027901843+1028414098+1028714802+1029068970+1029569148
2587+1029955545+1029996186+1029800240+1029667867+1029671124+1029536445
2578+1029102758+1028682641+1028620832+1028768877+1028867257+1029078808
2570+1029582379+1030090291+1030456130+1031239100+1032823291+1034401919
2561+1034741025+1033733613+1032394082+1031568911+1031399697+1031724555
2553+1032254858+1032544909+1032292106+1031521213+1030386382+1029214369
2544+1028679860+1029308543+1030797136+1032269241+1033080301+1033112936
2536+1032640576+1032176018+1032168758+1032715548+1033606465+1034434079
2527+1034698688+1034291190+1033777171+1033636793+1033518465+1032917600
2519+1032198611+1032152067+1032846156+1033630619+1034092191+1034466782
2510+1035171726+1036233825+1037180377+1037445596+1036921400+1035994252
2502+1035009094+1033998425+1033026768+1032427464+1032525640+1033336768
2493+1034465900+1035154832+1034805413+1033762923+1033170403+1033776289
2485+1035274992+1036869700+1037902555+1037929966+1036914683+1035528134
2476+1034670734+1034532527+1034568826+1034410536+1034279521+1034426073
2468+1034640270+1034553696+1034163093+1033826090+1033803021+1033958394
2459+1033998628+1033890274+1033822630+1033800579+1033629058+1033344163
2451+1033267562+1033540109+1033981327+1034444460+1034895651+1035182514
2442+1035176951+1035062287+1035110256+1035317397+1035529830+1035700876
2434+1035846818+1035982786+1036197254+1036606991+1037187230+1037758377
2425+1038141924+1038264662+1038125980+1037836132+1037761023+1038281013
2417+1039182854+1039704336+1039467613+1038915667+1038633960+1038715853
2408+1038924216+1039074364+1039166367+1039272753+1039309934+1039041322
2400+1038436861+1037789248+1037331204+1037017338+1036804633+1036870174
2391+1037402920+1038283252+1039003055+1038919127+1037796508+1036215709
2383+1035185839+1035159921+1035656978+1036007822+1036095143+1036113733
2374+1036105388+1036069971+1036078995+1036101656+1036035233+1035769810
2366+1035184685+1034651669+1035151372+1036950371+1038851414+1039680454
2357+1039644358+1039534987+1039501062+1039106660+1038193692+1037304947
2349+1037158734+1037890817+1038786212+1038910850+1038281285+1037716040
2340+1037580479+1037693921+1038032349+1038733494+1039671226+1040538667
2332+1041203717+1041581293+1041338600+1040284779+1038920959+1038051482
2323+1037942179+1038284948+1038877740+1039708475+1040460574+1040666562
2315+1040235996+1039413877+1038501045+1037905065+1038044833+1038925437
2306+1040043374+1040776679+1040785161+1040236403+1039774559+1040021527
2298+1040980632+1042021697+1042433944+1041999578+1041184312+1040703268
2289+1040762024+1040955189+1040999697+1041107101+1041467104+1041923385
2281+1042343977+1042781056+1043126879+1043073211+1042507016+1041671396
2272+1040945690+1040579512+1040553730+1040678164+1040902199+1041426260
2264+1042297365+1042999595+1042874958+1042041102+1041354680+1041224072
2255+1041119992+1040578562+1039856113+1039266443+1038901961+1039245953
2247+1040846631+1043020900+1044075942+1043431789+1042569369+1043092819
2238+1044553391+1045181463+1044431942+1043586144+1043823749+1044853755
2230+1045689444+1045974882+1046216150+1046975102+1048122147+1049094821
2221+1049620917+1049670853+1049005600+1047473855+1045573016+1044291021
2213+1044522723+1046416235+1049118025+1051596661+1053577223+1054973203
2204+1055123758+1053803090+1052154510+1051421884+1051528948+1051636081
2196+1051237811+1050198646+1048490292+1046463525+1045024869+1044908170
2187+1045721061+1046310460+1046310188+1046609467+1047913648+1049831315
2179+1051822257+1053819238+1055175255+1054390996+1051247242+1048036590
2170+1047083388+1048057623+1049189876+1050050193+1051457300+1053912733
2162+1057487459+1061445190+1063266783+1060921875+1056116515+1052438998
2153+1051915616+1054071023+1056707271+1057885186+1057582990+1056802598
2145+1055736089+1054026446+1051750202+1049154934+1046675484+1045713869
2136+1047872465+1052752526+1057635708+1059950490+1059333817+1057166469
2128+1054974831+1053486374+1052609162+1052035436+1051880403+1052412741
2119+1053209213+1053448446+1053146589+1052999358+1052954307+1052203565
2111+1050687629+1049448039+1049306982+1049949031+1050432044+1050294312
2102+1049921824+1049811639+1049947946+1050240440+1050947759+1052072617
2094+1052952136+1053073720+1052744452+1052440898+1052054027+1051377782
2085+1050803107+1050676502+1050512173+1049912122+1049684151+1050726302
2077+1052402428+1053407059+1053670853+1054034520+1054650584+1055052314
2068+1055385381+1056406838+1058256453+1059901232+1060038625+1058304964
2060+1055461100+1052754425+1051366519+1051887798+1053409501+1053551983
2051+1050921570+1047529898+1047177290+1051048514+1056739499+1061882337
2043+1066163840+1069346674+1069847259+1066725081+1061984449+1059345826
2034+1060458267+1063429890+1065771540+1067105371+1067823682+1067425683
2026+1066002428+1065523215+1067555342+1070447039+1070660761+1067066901
2017+1062492633+1060544571+1061921282+1064223037+1064576595+1062638032
2009+1061103302+1062147081+1064164145+1064099282+1061871345+1060126896
2000+1060692616+1062811927+1064245292+1063534105+1061268852+1059265358
1992+1058816948+1059893769+1061547437+1062455723+1061491734+1058637218
1983+1055265968+1053292395+1054191725+1058368131+1064426447+1069371099
1975+1071052721+1070088799+1068345504+1066579207+1064591115+1062824750
1966+1062333257+1063112360+1063780598+1063391216+1062786009+1063485593
1958+1065358005+1066264730+1064379292+1060448769+1057397764+1057698332
1949+1061155070+1065167147+1067253484+1067196899+1066435301+1066007178
1941+1065967758+1066276807+1066845580+1067013030+1066135886+1064471905
1932+1062847005+1061864968+1061662915+1061822359+1061581972+1060708899
1924+1059857199+1059606431+1059657928+1059628686+1059952322+1061174339
1915+1062699299+1063325878+1062784652+1061911715+1061311325+1060558683
1907+1059250702+1057888850+1057113479+1056918890+1057021137+1057402106
1898+1058179580+1059329542+1060728304+1062157190+1063226074+1063552967
1890+1063152458+1062738583+1063406143+1065626141+1068478554+1070197493
1881+1070025565+1068950711+1068249363+1068241560+1068616286+1069108187
1873+1069670311+1070293634+1070552475+1069710952+1068103489+1067237201
1864+1067837319+1069193744+1070080522+1069882201+1069071481+1068619747
1856+1068975340+1069753018+1070292412+1070271922+1069883355+1069601309
1847+1069711359+1070029364+1070149184+1069984245+1069892514+1070181277
1839+1070795508+1071350575+1071435182+1070997900+1070281760+1069494516
1830+1068796085+1068512207+1068945894+1069874331+1070509866+1070202445
1822+1069078877+1067725777+1066779428+1066686204+1067292361+1068068411
1813+1068774373+1069355359+1069592353+1069535293+1069698061+1070344588
1805+1071210129+1071910867+1072237693+1072295703+1072481608+1072985178
1796+1073534478+1073741823+1073382362+1072588062+1071924098+1071775510
1788+1072002462+1072260083+1072201530+1071702301+1070992065+1070298179
1779+1069607619+1068966859+1068531408+1068197323+1067617694+1066720128
1771+1065997543+1065984449+1066743875+1067874975+1068951593+1069896924
1762+1070653569+1070978766+1070963975+1070983448+1071162296+1071465578
1754+1071833520+1071954426+1071424734+1070424513+1069630552+1069265188
1745+1069021748+1068579648+1067917245+1067180208+1066363450+1065515616
1737+1064889376+1064456775+1063835962+1063116091+1062695567+1062476417
1728+1062292887+1061981463+1061184245+1059813776+1058274297+1056750626
1720+1054943892+1052584669+1049696432+1046603904+1043638591+1040737260
1711+1037743926+1034664356+1031225802+1026892259+1022026717+1017652059
1703+1013115582+1006039812+995594489+984585414+973884099+961232144+946776372
1693+931244187+911631600+884954236+854011313+822421252+784053411+730514677
1683+677052883+643290725+624578962+612727481+604147039+596883125+591344189
1673+591119068+599878698+619758471+647875442+675578606+698721478+719217247
1663+738880787+756546668+770716866+782456057+793357525+804806053+820926281
1653+846148773+870017216+884154236+894868645+907457773+921365397+932651158
1643+940762769+947336121+953239268+958326809+961613927+961662099+958625478
1633+955166704+953027852+952844730+955463948+961163821+968484659+975068121
1623+978814300+978598068+974839268+967848513+956581885+941225495+925351692
1613+910360258+893745280+873355966+849556729+824731217+801337442+780844998
1604+764648577+755759899+758368329+774152504+799820149+829261723+857175828
1594+880562072+898542227+911972335+922630362+932017861+940650208+948081029
1584+953456586+956268087+956521025+953936342+946588365+931063913+908507183
1574+885733949+863525417+837175692+807265556+784511659+776325619+779899192
1564+789718614+801581221+815295953+836416333+865548248+888671172+904414299
1554+918498058+931992825+944330575+955307015+964413554+971426767+977035520
1544+981870055+986119330+990587958+996122078+1000989655+1003521416+1004058572
1534+1003785482+1004352152+1006147284+1007813436+1007986517+1005680690
1526+1000535003+991984617+976914207+952533984+921975015+886744686+842908607
1516+793827442+750952300+720192160+700942698+692428814+695484162+712604406
1506+739232920+763231632+783184342+802377421+821766379+840530997+857595606
1496+871729912+882376405+890822237+899013976+908057417+917274141+925043186
1486+930784717+934653567+936814808+937610398+937523824+936691935+934853719
1476+931867577+927916428+923531185+919946620+918096260+917450615+917129489
1466+916744449+916432211+916560716+917109880+917607616+917623085+917439488
1456+918194233+919914189+921614197+922852023+923560835+923839556+924029735
1446+924547961+925445187+926409177+927173149+927631668+927470529+925756475
1436+921258808+913616368+902661640+886989008+866115867+844398625+829357390
1426+824947721+830416299+842136153+855364277+867841658+881004511+896574489
1417+913243610+929067611+943411637+956026207+966689052+975156934+981263558
1407+985288119+987744501+988776136+987971590+984444968+977202155+965981326
1397+951185023+933568400+915920974+902126452+892842083+885574031+877996386
1387+870411143+865504961+865213620+869626681+878335221+890714426+904940124
1377+917632109+925132271+926379663+925241642+927527386+936010805+949391791
1367+963922874+976627276+987012011+995553373+1002274431+1007189570+1010704726
1357+1013205277+1014880317+1015785482+1015799256+1014582531+1011780936
1349+1007421137+1002115191+996845952+992456570+989103775+986168180+982793742
1339+978499891+973182276+966672497+958537343+947957952+933604767+914168993
1329+889663455+862479941+837267491+819493256+813141292+818982358+834746246
1319+856392654+879454990+900643083+918864236+934700993+949152626+962728540
1309+975225665+986027327+994560819+1000513291+1003691241+1003853873+1000634061
1299+993299315+980466815+960632093+934283997+906401170+885917004+880606513
1289+891339106+911494682+931996082+946430889+952074583+948544840+937271292
1279+921867543+907736426+900170520+901907913+912018607+926927199+942526419
1269+955884676+965801799+972416607+976490426+978701876+979207210+977916259
1259+975257961+972299908+969885931+967959038+965842576+962847274+958442287
1249+952140803+943611586+932939717+920627207+907152455+892121669+873604562
1239+849026290+817849019+783479753+751751621+727160187+710383255+698608579
1230+687659618+674498121+658898358+643226541+630426947+622000113+617716575
1220+616744376+618681379+623924903+633425167+647239364+662277342+672222012
1210+671718103+661352705+647735403+638540051+637831918+645422589+658933979
1200+675639399+693082669+708873493+720411242+725339001+722500361+712252477
1190+695987393+675827271+654752281+636406559+624093846+619432392+621796975
1180+629211512+639853120+652719205+667250084+682867488+699010173+715251103
1170+730997079+745133014+755744565+759045388+749172094+723276479+689237906
1160+664050424+659982643+674105415+693732385+708932860+717332623+720816704
1150+722236702+724638467+730598402+741004644+754734710+769792568+784694443
1140+798784783+811772859+823510354+834063555+843672308+852644914+861260435
1130+869655448+877820795+885663794+892985718+899485115+904834145+908688271
1120+910679281+910419761+907472360+901566093+893079755+883009023+872099007
1111+860145890+846241929+829407597+808860536+784203763+756133675+727228510
1101+701570703+683024896+673509164+672351263+676789700+683535862+690931605
1091+699923548+712435464+728632021+746223472+762469627+776225271+787903738
1081+798210447+807383545+815186920+820949282+823406342+820875056+812373792
1071+799265285+785712439+776830614+775818724+782541343+794464471+808503382
1061+822168856+834001474+843718174+851797149+858703298+864606377+869577287
1051+873635230+876667644+878453345+878693596+877152353+873880433+869054855
1041+862597048+854184937+843461639+830061045+813847865+795365090+775802508
1031+756598708+739328926+725655921+716616212+711359796+706955352+700956403
1021+694852765+693478157+699827068+711696867+724365784+735080804+743988412
1011+752234498+760534388+769010548+777425508+785430597+792803204+799599506
1001+806147823+812815417+819672375+826430547+832735560+838454023+843712406
992+848748790+853694393+858452395+862834653+866809684+870525875+874091645
982+877447765+880506097+883344669+886170418+889095089+892054974+894960919
972+897775676+900397337+902666525+904595318+906382715+908090527+909571385
962+910884793+912458061+914554983+916758697+917918362+916084013+908677483
952+894003172+873557611+852822270+839291136+838588023+850850597+870314799
942+889364786+903601543+912976423+919229735+923792673+927543194+930837164
932+933471580+935175931+936003206+936031024+935100077+933071479+929991027
922+925853363+920572047+914600645+909506386+907383207+909317836+914526011
912+921000102+926693868+930004665+929506522+923827547+912619880+898082961
902+884388652+873954049+864992638+855221660+847710982+849648459+864226426
892+886488762+908405072+925649614+938309168+947732831+954887372+960520075
882+965214639+969290562+972950641+976336953+979471819+982404361+985343959
873+988396321+991226683+993188315+993582446+991284761+983956663+967448614
863+936119634+886420032+824089032+767106384+736103686+739101566+767148789
853+804277786+838585106+864956542+882673242+893050377+897380392+894601662
843+880709710+852669001+815153539+782233379+768782306+778934049+803987259
833+830352250+847053870+847868593+833024051+811632277+797887353+800506164
823+816974657+838949248+860219438+878423288+892711678+902718497+909205411
813+914229446+920072547+927766144+936624697+945155136+952093173+956656586
803+958506268+957811298+954940769+949622815+940387499+925087898+902064642
793+870921295+833017944+792567973+757573621+737999844+740410361+763007732
783+796393739+829903162+857216673+876847171+889642829+896868408+899304164
773+896692273+887781680+871557984+849669492+828155863+814931268+812505418
764+812558543+801400473+775624134+751362646+751505942+782377353+828266999
754+868925061+896167059+913076567+924791672+933944280+941192927+946629413
744+950427157+952436283+951281775+943874159+926617268+899913171+872497209
734+857311389+860135645+875075989+892729251+908988025+924392791+939234213
724+952273582+962346011+969296532+973910831+977431415+980708016+983762956
714+986298653+988191351+989038980+987352881+980369656+964877636+939697685
704+909259554+883882503+873546145+880501212+898665643+919544415+937651039
694+951410415+961439896+968894056+974628938+979072870+982497720+985228006
684+987488917+989140753+989618134+987587161+980352083+965255280+943965822
674+924634806+916102807+920146502+933050106+950414198+965881724+973672412
664+973133154+964330846+947812145+928992028+917177661+918166687+929668476
654+944642067+957689645+967332526+974358631+979983802+985032331+989700298
645+993717260+996805921+998865390+999203750+996111900+989082335+980918889
635+974123672+965622408+951018116+934639183+928169774+937449665+956192096
625+973955951+985535359+991403903+993911646+995475415+997835317+1001298365
615+1005127251+1008533646+1010793607+1011099875+1009305828+1006742517
606+1005477892+1006374711+1008262388+1009362007+1009152898+1008464373
598+1008179003+1008392929+1008504200+1007512189+1004419525+998790689+990370029
588+977425105+956022747+921896447+873687948+815678007+758608783+715349144
578+692828102+689613854+700860330+722627984+751606493+783288896+812377930
568+835600185+853445389+868289729+881441523+892664320+901769298+909183292
558+914644407+916712086+914132966+906811381+895726995+883383207+873960291
548+871038673+874802561+882367788+890555186+897843728+904063048+909078806
538+912454397+914205021+915039488+915610025+916022678+916203223+916208854
528+915550115+912023018+902484420+886833228+870100601+858834585+856462674
518+861682995+870521193+879569111+886763819+890839538+891772996+890872105
509+889525723+888514578+888418709+889163141+889062657+886191993+881272512
499+876909184+873893528+870064777+861867678+845184852+815480093+771617621
489+721471984+681106484+665683059+677798808+704648508+728892084+738681042
479+728823760+703037788+676175672+665788427+678834649+706350552+733481415
469+753884977+768958983+780692882+790106910+797914288+804345295+809639706
459+814634363+819839147+824538867+828022880+830464471+832009311+832516545
449+832530657+833542616+836679517+841490848+846487065+850395131+852509150
439+852124450+848062640+839480433+827334694+813868084+801309013+793123584
429+793874801+803931081+815659281+817642353+805284995+786641351+776560035
419+788131301+816788074+839977761+847742599+843810447+833549468+820859518
409+807817299+796654684+791318071+794512168+804644574+817340495+828321820
399+834566108+836841946+840872613+848280026+854245661+856694851+858025086
390+859645508+859942209+857799761+855226545+855491967+859318343+863865405
380+864563429+857219047+840132523+817967075+801556524
##END=
