##TITLE=NiM- X13557
##JCAMP-DX=4.24
##DATA TYPE=INFRARED SPECTRUM
##DATE=10/10/2019
##SAMPLING PROCEDURE=Diamant-ATR
##ORIGIN=Fabienne
##XUNITS=1/CM
##YUNITS=TRANSMITTANCE
##RESOLUTION=4
##FIRSTX=3997.453
##LASTX=373.96442
##DELTAX=-1.4165319
##MAXY=1.0020564
##MINY=0.23851319
##XFACTOR=1
##YFACTOR=9.3323771e-010
##NPOINTS=2559
##FIRSTY=1.0000867
##XYDATA=(X++(Y..Y))
3997+1071631219+1071588810+1071120589+1070277523+1069565643+1069411911
3989+1069794165+1070346629+1070681364+1070691839+1070602678+1070634293
3980+1070696118+1070582496+1070380990+1070412094+1070730990+1070959193
3972+1070827177+1070652815+1070912186+1071494093+1071817332+1071624832
3963+1071255224+1071152779+1071369869+1071592642+1071538354+1071202405
3955+1070722049+1070175078+1069640050+1069280725+1069180834+1069251217
3946+1069429155+1069732468+1070014192+1069927395+1069300652+1068364209
3938+1067476690+1066864190+1066689509+1067129820+1068081335+1068865004
3929+1068847503+1068271344+1067871079+1067969948+1068309474+1068616043
3921+1068914182+1069211491+1069288517+1068990569+1068463653+1067911764
3912+1067414099+1067067612+1067016070+1067243123+1067560422+1067881873
3904+1068306855+1068841819+1069284876+1069493152+1069413763+1068951737
3895+1068134665+1067324683+1067081279+1067551289+1068101070+1068216481
3887+1068181800+1068469209+1068941454+1069114027+1068903708+1068489264
3878+1067981317+1067478479+1067072593+1066758551+1066596900+1066902192
3870+1067731590+1068368297+1068289866+1067910870+1067733570+1067628698
3861+1067291024+1066936106+1066994290+1067633232+1068847887+1070487778
3853+1071538354+1070851702+1069179812+1067803698+1067161562+1067070613
3844+1067153004+1067150896+1066947794+1066576462+1066371252+1066663834
3836+1067182639+1067499428+1067701380+1067967521+1067976718+1067302776
3827+1066162593+1065273924+1065056834+1065440110+1066304062+1067289300
3819+1067678835+1067357639+1066905641+1066741881+1066655403+1066358733
3810+1065938988+1065720430+1065993979+1066597794+1066980048+1067070613
3802+1067415887+1068245030+1068907157+1068888954+1068412813+1068033306
3793+1068072713+1068298680+1068193680+1067516097+1066567456+1065824919
3785+1065465786+1065340731+1065320293+1065555776+1066270275+1067251617
3776+1067907037+1067981828+1067807594+1067883406+1068316563+1068622558
3768+1068301810+1067509519+1066746097+1066258076+1066007967+1065979609
3759+1066180157+1066350558+1066122228+1065589371+1065332875+1065941160
3751+1067338990+1068572868+1069148261+1069568134+1070203882+1070556118
3742+1069891373+1068560605+1067384400+1066801662+1066738624+1066744245
3734+1066531243+1066299080+1066269956+1066375275+1066408998+1066234062
3725+1065894217+1065617985+1065691625+1066225439+1066955650+1067430897
3717+1067446928+1067121772+1066692639+1066470567+1066739454+1067332603
3708+1067802868+1068031965+1068091171+1067984574+1067731718+1067397621
3700+1067013515+1066686635+1066638925+1066875367+1067013068+1066689190
3691+1066022209+1065541470+1065575193+1065820704+1065886169+1065687346
3683+1065278778+1064842619+1064674133+1064887966+1065273477+1065580494
3674+1065714426+1065574618+1065052683+1064252345+1063612956+1063524625
3666+1063928339+1064529152+1065005676+1065188468+1065179782+1065150913
3657+1065098157+1064861652+1064385575+1063916459+1063844607+1064453531
3649+1065487437+1066127465+1066076434+1065696798+1065346670+1065185594
3640+1065126451+1064900165+1064352491+1063646359+1063067389+1062713813
3632+1062548393+1062737763+1063577509+1064687993+1065213313+1065058303
3623+1064526469+1063762472+1062925793+1062406349+1062473794+1062782280
3615+1062749132+1062205354+1061562452+1061376467+1061769323+1062440710
3606+1063021787+1063332764+1063463184+1063592518+1063574826+1062923621
3598+1061661512+1060742442+1060972753+1061776540+1061836960+1060833775
3589+1059656611+1059362496+1060098582+1060999386+1061422133+1061379149
3581+1061072452+1060755791+1060717534+1061014906+1061335271+1061334760
3572+1061027999+1060691028+1060531229+1060617260+1060882826+1061001174
3564+1060637953+1059893819+1059198481+1058834111+1058693663+1058583107
3555+1058520196+1058597860+1058788189+1058982094+1059057076+1058846373
3547+1058283052+1057725798+1057791966+1058605397+1059655462+1060367980
3538+1060408920+1059688865+1058563435+1057795734+1057830989+1058378408
3530+1058952715+1059422788+1059838445+1060099860+1060080316+1059851411
3521+1059637642+1059584887+1059578947+1059343080+1058778098+1058100771
3513+1057580560+1057312695+1057273224+1057386144+1057502321+1057516117
3504+1057483352+1057431874+1057200223+1056782202+1056587275+1056942257
3496+1057536746+1057700697+1057136609+1056121864+1055168944+1054659144
3488+1054629764+1054892137+1055355951+1055982758+1056498242+1056638434
3479+1056661746+1057075423+1057842933+1058255205+1057693927+1056348981
3471+1055033095+1054410120+1054538113+1055032903+1055461781+1055595714
3462+1055440321+1055121936+1054770531+1054495001+1054386233+1054487593
3454+1054756224+1055031498+1055058834+1054658633+1053930722+1053238769
3445+1052913102+1052909015+1052811934+1052328513+1051773749+1051800319
3437+1052592162+1053611442+1054180065+1054066123+1053500694+1052836141
3428+1052273330+1051859014+1051629470+1051584634+1051624360+1051717417
3420+1051956988+1052213613+1052033503+1051181687+1050052425+1049361047
3411+1049569450+1050583557+1051806131+1052549243+1052483075+1051639114
3403+1050232790+1048771794+1047939841+1047906246+1048013162+1047483244
3394+1046163334+1044421636+1042722538+1041379124+1040336277+1039152152
3386+1037536594+1035935981+1035223654+1035741310+1037006740+1038423219
3377+1039824944+1041160438+1042135010+1042546196+1042664673+1042921425
3369+1043398013+1043877219+1044250149+1044607174+1044978698+1045258443
3360+1045417157+1045526436+1045530013+1045269365+1044778534+1044307758
3352+1044075148+1044180979+1044615030+1045176563+1045576254+1045702777
3343+1045617066+1045346837+1044946892+1044641025+1044631508+1044847384
3335+1045048826+1045054830+1044825414+1044495724+1044281955+1044195094
3326+1044031334+1043809838+1043877794+1044385806+1045033306+1045470359
3318+1045559648+1045243051+1044594848+1043950860+1043609737+1043494135
3309+1043342447+1043034856+1042612109+1042237072+1042172437+1042505640
3301+1042916188+1042987018+1042697821+1042382565+1042296406+1042431169
3292+1042674381+1042952210+1043168597+1043147967+1042789153+1042266005
3284+1041901506+1041827738+1041913450+1041989964+1041980703+1041889754
3275+1041793632+1041764189+1041794590+1041906935+1042181379+1042559609
3267+1042843250+1042988806+1043142027+1043343022+1043480212+1043558579
3258+1043720869+1043947219+1044001572+1043809774+1043628004+1043633624
3250+1043634838+1043462329+1043337018+1043540312+1043953670+1044183981
3241+1044041298+1043738880+1043568734+1043446170+1043056763+1042471853
3233+1042116871+1042051789+1041885347+1041514015+1041347573+1041695274
3224+1042378797+1042979609+1043180157+1042891854+1042283249+1041750585
3216+1041723313+1042329809+1043209664+1043790166+1043791635+1043404016
3207+1043039774+1042989573+1043247155+1043557429+1043644290+1043424518
3199+1043007775+1042539810+1042080083+1041588677+1040957847+1040113311
3190+1039148384+1038289350+1037688985+1037398957+1037511749+1038054888
3182+1038755847+1039211741+1039272991+1039073785+1038797361+1038551850
3173+1038331056+1038036175+1037634888+1037246311+1036974805+1036784732
3165+1036609540+1036430644+1036251620+1036152049+1036304695+1036731019
3156+1037115444+1037081849+1036593956+1035904111+1035243390+1034708745
3148+1034252084+1033637795+1032556499+1030828085+1028419853+1025371594
3139+1021747813+1017428951+1011904503+1004536231+995099763+983975822+971976817
3129+960250275+950312630+943825362+941986583+944951367+951663133+960158495
3119+968306795+974709884+979178200+982320410+984618533+985984683+986135605
3109+985109299+983345183+981446559+979913073+979015463+978839952+979344578
3099+980348338+981617216+983058094+984735476+986654282+988692268+990821457
3089+993218831+995992073+998898288+1001484331+1003471157+1004920656+1006101396
3080+1007287948+1008639217+1010145751+1011612048+1012724704+1013204230
3071+1012947287+1012110543+1011130223+1010523854+1010436929+1010460816
3063+1010111071+1009388205+1008678561+1008238569+1007910348+1007171132
3054+1005370803+1002076968+997246134+991000928+983433514+974887184+966251694
3044+958649151+952941336+949771024+949818159+953579129+960879828+970748558
3034+981698585+992093593+1000615844+1006824006+1011212486+1014530144+1017174051
3024+1019298833+1021141444+1022917440+1024579495+1025972023+1027113228
3016+1028076048+1028742709+1028988348+1029013513+1029166286+1029428659
3007+1029341925+1028528813+1027142736+1025685572+1024464020+1023399585
2999+1022348434+1021334008+1020353816+1019249335+1017980712+1016788092
2990+1015847818+1014999834+1014017214+1012916119+1011778745+1010476527
2982+1008802146+1006729481+1004282991+1001265261+997413470+992788420+987691062
2972+982215346+976200898+969587809+962494108+955012342+947239589+939435286
2962+931905107+924804955+918196975+912200858+906991155+902727730+899603402
2952+897904752+897789149+898903338+900410383+901499471+901695931+900701369
2942+898287516+894423973+889234708+882784165+875081476+866219380+856356270
2932+845699784+834693233+824097933+814701320+806996651+801283855+797981015
2922+797593907+800279584+805578192+812732824+821197849+830627354+840445437
2912+849828446+858251892+865750137+872522578+878577966+883878171+888583950
2902+893004301+897328592+901460256+905222248+908722187+912287591+916022822
2893+919729248+923251988+926591106+929709749+932511795+934967545+937060521
2883+938695814+939788735+940326892+940263215+939518762+938229829+936844837
2873+935819808+935309179+935195428+935222828+934996094+934001276+931737834
2863+927855833+922276075+915299190+907597588+900085100+893768617+889620220
2853+888404416+890469417+895653956+903401289+912924362+923265273+933436102
2843+942754221+951042521+958502892+965474348+972179025+978514157+984150184
2833+988880680+992790336+996162602+999308261+1002338957+1005077837+1007335339
2823+1009145057+1010594812+1011713088+1012667350+1013762634+1015093146
2815+1016378375+1017235940+1017582555+1017775694+1018295648+1019261279
2806+1020358862+1021190432+1021534939+1021400623+1021055796+1020921992
2798+1021234309+1021839848+1022394356+1022719128+1022921145+1023209320
2789+1023694977+1024394786+1025263847+1026119432+1026709898+1026976166
2781+1027083146+1027163748+1027237708+1027341495+1027490628+1027583110
2772+1027560245+1027544853+1027640400+1027771267+1027882399+1028084351
2764+1028420684+1028682354+1028649908+1028408038+1028251687+1028309105
2755+1028397755+1028297353+1028017289+1027711933+1027501677+1027524990
2747+1027935090+1028655720+1029371752+1029911506+1030370402+1030799217
2738+1031097483+1031242529+1031325047+1031420531+1031608432+1031886006
2730+1031946681+1031391854+1030293696+1029221724+1028642436+1028550465
2721+1028647481+1028667281+1028583932+1028623850+1028978193+1029526570
2713+1030007501+1030364846+1030691470+1030994846+1031304226+1031810449
2704+1032581088+1033327521+1033772558+1034065588+1034527550+1035151930
2696+1035643335+1035854230+1035913755+1035954248+1035941985+1035833792
2687+1035718125+1035691748+1035714740+1035708928+1035712569+1035835644
2679+1036097825+1036393984+1036614075+1036738236+1036768701+1036642944
2670+1036325900+1035945562+1035703755+1035645826+1035580808+1035238983
2662+1034526272+1033650186+1032949355+1032577639+1032462740+1032520924
2653+1032729711+1033019227+1033288753+1033517531+1033738836+1033950560
2645+1034122622+1034220341+1034203544+1034071336+1033912239+1033845049
2636+1033924821+1034154812+1034584010+1035304895+1036280297+1037265472
2628+1038047671+1038708137+1039484652+1040395994+1041144024+1041432582
2619+1041357792+1041403778+1041924307+1042666525+1043018505+1042700120
2611+1041973486+1041259243+1040805967+1040632627+1040566843+1040421286
2602+1040204899+1039986979+1039645857+1039081896+1038568456+1038487790
2594+1038819141+1039221577+1039462170+1039459616+1039142763+1038611184
2585+1038259012+1038451002+1039144168+1039929753+1040355310+1040241943
2577+1039874443+1039817663+1040322864+1041005940+1041344444+1041327646
2568+1041305356+1041401478+1041502455+1041655292+1042058879+1042753833
2560+1043598497+1044387211+1044857987+1044876125+1044697229+1044746791
2551+1045128598+1045617768+1046033042+1046358134+1046671537+1047155406
2543+1047889257+1048469632+1048290352+1047413244+1046638837+1046477760
2534+1046586592+1046410378+1045857340+1045215715+1044822348+1044836782
2526+1045110459+1045386691+1045645040+1045967066+1046227906+1046281236
2517+1046242787+1046285771+1046366948+1046314511+1046015989+1045501463
2509+1044986618+1044762567+1044933288+1045318671+1045687002+1046003152
2500+1046334630+1046572030+1046493024+1046150880+1045945798+1046228608
2492+1046995032+1047928664+1048599541+1048750845+1048501694+1048142433
2483+1047754494+1047230899+1046574457+1045936984+1045431591+1045097622
2475+1044978762+1045028324+1044981828+1044565404+1043894592+1043436909
2466+1043466672+1043741179+1043836152+1043634199+1043360203+1043275130
2458+1043422475+1043575312+1043421772+1042914399+1042383587+1042181251
2449+1042321187+1042588733+1042799691+1042788131+1042373559+1041548121
2441+1040526350+1039480692+1038357562+1037045189+1035683317+1034785196
2432+1034959430+1036330434+1038245983+1039736550+1040323886+1040326569
2424+1040389352+1040798367+1041320046+1041663340+1041946534+1042595886
2415+1043868789+1045561308+1047115361+1047983974+1048034814+1047671273
2407+1047427487+1047418034+1047356593+1047082085+1046768937+1046585315
2398+1046457194+1046277021+1046116008+1046109812+1046254219+1046356665
2390+1046126546+1045356801+1044160860+1043049354+1042606680+1042935157
2381+1043494391+1043692894+1043568606+1043577484+1043787101+1043804984
2373+1043552256+1043464309+1043782630+1044263114+1044674556+1044999264
2364+1045190678+1045263233+1045440980+1045805350+1046079028+1046039876
2356+1045807394+1045594137+1045519921+1045659283+1045983800+1046328052
2347+1046531920+1046566920+1046441227+1046034767+1045342750+1044767357
2339+1044686244+1044909784+1045014912+1044973972+1045018105+1045065815
2330+1044687010+1043590130+1041878769+1039877700+1037982589+1036635024
2322+1036103764+1036179002+1036365818+1036485124+1036834230+1037657753
2313+1038704624+1039518247+1040019297+1040480237+1041008878+1041468988
2305+1041903933+1042601698+1043580869+1044368689+1044531618+1044194647
2296+1043783652+1043434737+1042934454+1042187446+1041499197+1041331287
2288+1041889946+1043011799+1044360897+1045605569+1046440141+1046679712
2279+1046512377+1046489512+1047006017+1047804248+1048208601+1047891365
2271+1047245653+1046955306+1047342222+1048182095+1049004723+1049559934
2262+1050072480+1050890765+1051830081+1052267071+1052038421+1051736833
2254+1051863357+1052237947+1052514306+1052784088+1053402145+1054464217
2245+1055597311+1056248324+1056241235+1056000450+1056106344+1056673498
2237+1057268370+1057455953+1057367175+1057550606+1058300488+1059465708
2228+1060868391+1062415674+1063850994+1064893139+1065517264+1065858578
2220+1066070941+1066180731+1065643979+1063599990+1060344030+1057762011
2211+1057346737+1058458435+1059377186+1059460087+1059438436+1059975188
2203+1060734459+1061057954+1060985079+1060985399+1061024039+1060694605
2194+1060144376+1060099030+1060880654+1061900573+1062341203+1062157964
2186+1062067526+1062455464+1062752325+1062157133+1060719130+1059396283
2177+1058972514+1059014540+1058272194+1056180751+1053231679+1050068328
2169+1047349439+1045986546+1046194055+1047002058+1047899221+1049959496
2160+1054131780+1059296392+1063319990+1065293787+1065376561+1063794598
2152+1061262972+1059313892+1059174467+1060641338+1062483502+1063562499
2143+1063430994+1062352508+1060855618+1059159266+1057362257+1055912694
2135+1055073652+1054331945+1053280603+1052456761+1052447117+1052841825
2126+1052831350+1052400876+1052233220+1052592290+1052963048+1052915018
2118+1052746341+1052979270+1053656853+1054434326+1054999117+1055166453
2109+1054828715+1054020457+1052976141+1052052153+1051541714+1051506395
2101+1051744753+1051942363+1051934315+1051837107+1051888266+1052211952
2092+1052775721+1053338595+1053388732+1052537427+1051143302+1050178246
2084+1050305920+1051335674+1052606086+1053594134+1054023395+1053765621
2075+1053063832+1052619307+1052890046+1053437400+1053480320+1052914891
2067+1052279525+1051960821+1051955775+1052186852+1052555055+1052786323
2058+1052616305+1052028010+1051110601+1050049168+1049455700+1050101604
2050+1051987326+1054103742+1055418734+1055833178+1055951654+1056160185
2041+1056004601+1054801699+1053076095+1052500830+1053826935+1055746316
2033+1056728936+1057349036+1059301629+1062215445+1063208156+1060491822
2024+1055940796+1052952573+1053184736+1056027594+1059639494+1062101248
2016+1062987234+1063765091+1065798797+1068668863+1070880571+1071538354
2007+1071180498+1070506173+1069979384+1069612267+1069510396+1069829804
1999+1070231090+1069998225+1068937750+1067668296+1066704901+1065744764
1990+1064356898+1062924260+1062146276+1062052261+1062065801+1061724679
1982+1061027361+1060438811+1060818063+1062843849+1066099746+1069082796
1973+1070325233+1069282577+1066494646+1063367764+1061395563+1060847953
1965+1060745508+1060659796+1061395947+1063390373+1065657839+1066963250
1956+1067107338+1066627493+1065989189+1065283249+1064347892+1063094150
1948+1061794934+1060957871+1060800818+1060925362+1060639997+1059686310
1939+1058541145+1058023809+1058618682+1059924924+1060936539+1061064596
1931+1060569678+1060024303+1059842661+1060307944+1061570691+1063413813
1922+1065173395+1066217392+1066489345+1066435184+1066554363+1067058798
1914+1067820432+1068482813+1068742184+1068655897+1068537740+1068619556
1905+1068963361+1069461920+1069853882+1069946300+1069750670+1069338462
1897+1068805861+1068384711+1068387777+1068999064+1070031309+1070797989
1888+1070664695+1069948472+1069597194+1070030862+1070717578+1070844677
1880+1070257276+1069522531+1069156947+1069181984+1069436373+1069823353
1871+1070166136+1070171373+1069687057+1068961126+1068400614+1068108160
1863+1067893944+1067634893+1067396791+1067235011+1067159519+1067178679
1854+1067165267+1067001571+1066863360+1066954564+1067189792+1067414993
1846+1067533917+1067379802+1067001508+1066761425+1066784993+1066892101
1837+1066891526+1066695513+1066373487+1066055613+1065718003+1065309307
1829+1065015384+1064995137+1065147975+1065348906+1065548623+1065819362
1820+1066366206+1067105741+1067454400+1067022456+1066112903+1065243331
1812+1064739152+1064700703+1064953303+1065260384+1065579536+1065934709
1803+1066298314+1066577739+1066526005+1065991361+1065215612+1064430411
1795+1063555091+1062447736+1061032342+1059368244+1057820451+1056717248
1786+1056082776+1055900304+1056179346+1056644374+1056906299+1056905277
1778+1056805450+1056760551+1056883434+1057049876+1056917093+1056446636
1769+1055799966+1054969290+1054053861+1053136962+1051964717+1050320290
1761+1048457688+1046842003+1045829748+1045507978+1045519027+1045664201
1752+1046212258+1046996437+1047194430+1046580780+1045523370+1044217384
1744+1042899965+1041671515+1040266532+1038688401+1037236156+1035807542
1735+1034016345+1031417465+1027877097+1024077998+1020496690+1016841551
1727+1012781292+1008301735+1003464578+998660633+994258294+989119932+979939451
1717+962524638+934576988+895664494+845291344+784085621+715280102+641973950
1707+564901654+489499492+428839112+390222841+372677896+376637529+404146305
1697+456581200+530039519+604554003+664129478+713314927+758636577+796977191
1687+825026072+846994402+867555193+883745197+892801645+898013264+902511151
1677+907257104+911966140+915816590+917918444+917908034+916074364+913318304
1667+910971450+909980655+910500354+912061624+914234883+917190661+921033958
1657+925439810+930308709+936227738+942831310+946536076+946131915+943007971
1647+937552501+930382541+923272490+916814474+910187015+902783679+894416373
1638+883861118+868476563+848941502+829983175+812059393+791961904+767306684
1628+738880084+709788419+682590459+661181237+652188337+658394902+678524453
1618+712810237+756442433+794184661+818708823+834447530+844768898+848270114
1608+841404105+820627693+782497335+725354298+653993074+581599605+523653707
1598+489789903+482228843+499152251+536959050+590193772+651620800+713164516
1588+767722980+811505460+844765002+870119201+890056379+905705734+917719302
1578+927469556+936324179+943522369+947564234+949319728+950785705+953433189
1568+957323876+961772840+966531374+971181779+975115323+978648537+983115384
1558+988175889+991201029+992507526+993380738+994140520+994740822+995182282
1548+995501625+995661680+995460110+994522135+992416130+989067432+985963990
1538+985206061+986479027+989041565+992868959+997049738+999774630+1000674476
1528+1000537733+999870944+998744684+997050440+994662263+991955190+989924613
1519+989084485+989360909+990661019+992815948+995696425+999213544+1003170272
1509+1007713633+1013094057+1017320118+1018455128+1017637482+1015844816
1500+1012983564+1008438925+1001486183+992543612+983541579+975593507+968362361
1490+961583788+955518820+949338122+940997002+928880606+912301515+891951170
1480+869449027+844440932+813464886+772322418+716576891+643780603+567104548
1470+510754153+481217164+470457050+471763516+482335664+500341836+523917069
1460+552406070+587189263+627359075+658850222+667418522+656495448+633997073
1451+607539160+586081461+575872247+574537519+574637665+573944627+577250916
1441+589435651+611570550+643692336+683216692+720697569+749647382+771366113
1431+786335650+791166867+784019964+768417680+751596654+741817659+743580306
1421+755652122+774486161+795952610+816969999+837232843+856247310+871037377
1411+877657427+874142735+861562077+842567154+820810741+802256000+793950136
1401+801053417+824727231+859188973+894531017+924642537+947478330+962156626
1391+969589151+971743504+969799023+964319347+956201065+945763010+931285580
1381+909259259+876543558+833298022+782785319+727165613+666364179+604401229
1371+552185340+519714958+508731560+513960679+533510749+574140065+637712696
1361+706541783+758701915+790346730+810484583+828082252+846498909+861895919
1351+865251706+848417523+811395350+765804238+730181938+719289585+736142673
1341+772677720+814653163+847297842+862848009+862287370+848329384+820449755
1332+776568982+717932567+652501166+592405991+545759002+510566635+477710902
1322+439979691+398067350+359089774+330363501+314821541+311885275+320092877
1312+337544415+361791290+390619689+422352451+455480551+488752772+521564595
1302+553816673+585323978+615539540+643902528+670252311+694729976+717341846
1292+737691552+755214750+769869031+782514899+794271714+805458183+815332151
1282+822701381+826661110+827043747+824649694+821355157+819816625+822448780
1272+830170757+841959124+855584992+868731718+879449710+885889906+886330281
1262+880287539+869922613+859754594+854073540+854450046+859854548+868625632
1252+879756152+892277539+903456407+907558181+897634012+871341775+836079694
1242+805889552+791430900+794171824+809826800+833663543+861380052+888392408
1232+911185921+928833726+942284403+952693781+960727182+966679550+970651670
1222+972641945+972463176+969287052+961070604+944497771+915983224+873635682
1213+819018267+757333912+696206045+644581835+611782019+604940727+625308827
1203+666835210+718689219+769782106+812488654+844036005+865609754+880382575
1193+891690522+901892455+912025155+922103885+931638646+940063690+946982007
1183+952062312+954765553+954468692+951107348+945621924+939518507+933781440
1173+928270916+922327617+915736052+908654550+900692619+890652848+877609909
1163+862348620+847830634+838210289+836892678+844769345+859817760+878217492
1153+895849841+909035271+914573323+910150737+896044066+877261122+863026011
1143+861793665+875365756+897994806+921087160+938327548+947245465+947754371
1133+939802147+921608648+889451287+839523173+771415739+690873842+608571469
1123+535107210+476992699+436325381+411233459+395326107+379358654+356426993
1113+326189365+294276014+268552878+255576027+258430382+276140827+304863778
1103+340094020+378316253+417379541+456134120+493990034+530567522+565469319
1094+598273605+628652799+656371990+681230951+703206434+722602005+739851845
1084+755264503+769153127+782065199+794665465+807400748+820292957+832997201
1074+845117876+856492310+867103578+876752728+884881995+890528879+892118506
1064+887131577+872271638+844916946+805713147+760683632+720733400+697667743
1054+698488966+721845098+759329808+800364593+836693919+863546413+877530584
1044+874206667+849778628+807917063+764426527+740580778+748076724+780776969
1034+821998570+858204054+885286539+905481555+922037462+936682930+949844281
1024+961641398+972202528+981302663+988119749+991355655+989110991+977536584
1014+949063359+894459612+810753215+708030178+606467699+525951861+477698735
1004+462271643+473162176+503313869+548905748+606742015+670243497+730612860
994+781503986+821536991+853153768+879819062+903702621+925090001+943181055
984+956906559+964984603+965433344+956125700+938038159+918450662+908090270
975+912721579+928459264+946254224+959327947+965386848+963801947+952645944
965+928018507+885600645+823446089+743903035+654296706+568461119+506825592
955+488441699+517582320+579020972+647967896+703472127+734155335+737183285
945+715998433+680108715+646063652+633569153+654172098+702654864+762100558
935+817065610+860950982+894112677+919091392+937831033+951293333+960284955
925+966154358+970707746+975669703+982115200+990147643+999064922+1007895850
915+1015923886+1022924913+1028936742+1033806983+1037120490+1038440208
907+1037280545+1032960532+1024835799+1012692706+996956809+978836183+960328961
897+943681722+930290698+919583436+908448637+891510221+862389879+816067279
887+751674190+673612825+589320049+505536339+427310447+360511969+313001923
877+290414834+290276431+302247941+315614662+326318699+336999583+351964490
867+372963101+398116752+422347214+438371318+439893500+426668631+406112981
857+388244637+379501177+381958747+395843858+420092841+451588906+486203869
847+520917957+554655396+587571389+619845055+650904322+679464408+703908733
837+722136083+730818773+725914043+706506400+679400220+657425376+650082396
827+656044983+665933257+670647211+665783868+651581329+633137465+620008814
817+621244162+638871274+667158002+698161576+726993295+752528689+775270149
807+795520475+812947422+827124030+838071886+845994921+850520016+850719094
798+846476107+839878538+834719164+834248133+839464414+849225717+861261511
788+873183555+883452423+891844446+898966057+905419027+911419552+916883389
778+921670920+925797985+929397431+932454058+934786541+936441506+937832246
768+939380167+941434694+944565344+949207958+954809239+959783139+962191499
758+960322574+953651492+944071129+935419288+931026465+932079723+938137730
748+947592975+956514086+956896787+935592692+876783449+773081817+641261686
738+523407078+463136105+476892042+547608320+642401997+732840535+800166792
728+827451421+798112393+715233286+618619479+562084599+566096701+604917415
718+644744445+678043777+714140621+755636858+795242582+826541995+849373573
708+866773760+881077339+893284876+904263899+915085039+926283195+937567894
698+948177820+957191349+963821683+967843875+969901277+971368915+973622201
688+977197824+981756961+986648087+991100372+994108202+994596223+991390719
679+982248367+963452713+933370254+898861121+874367489+870988836+891987703
669+933753593+977294394+1003289003+1015120865+1021474328+1025557196+1027737991
659+1028075090+1025484641+1015383046+989298637+938913862+863831778+778122012
649+708714978+681461006+703097601+757486750+819624700+872388582+911880876
639+941405634+964652614+983920576+1000566857+1014967644+1026573027+1034269201
629+1036191775+1028195100+1001402323+944050946+853395894+748809042+666452764
619+634079591+648644393+677152745+681879601+650019741+603055388+578506446
609+598623861+655161679+723148977+783281706+829542417+862754633+883533025
599+890605521+882184310+857189118+816108346+764556564+718760050+701996825
589+726966854+783695575+848753345+902809865+939333351+960084535+964460178
579+943368190+883178937+778158162+643609179+516240918+436137097+424044651
569+469223044+537281842+596154762+635822056+664766312+695184913+732416703
560+772988696+809054500+832620951+836827916+818990484+785731772+752346280
550+734094533+737434353+758612690+788666792+819221241+845610815+866551433
540+881833033+891543624+897604313+903808771+912736780+923610164+933834387
530+941176601+942927497+933361695+906333435+865384042+826932041+806755994
520+804413930+802763947+784756753+748790456+705719027+669170440+650931274
510+655752336+677065309+701802153+720876019+734204195+746676659+761951808
500+780192443+799424510+817130437+831479490+842693166+852493557+861847506
490+870327029+877298358+882701774+887100792+891449035+896604258+902921380
480+910036093+917039867+923519790+930162195+937350996+943820827+948025685
470+950425869+952860734+956306704+959799809+960686561+956187333+945520436
460+931128847+918536054+914240503+920291548+932478136+945682344+956567863
450+963586071+967524915+970064972+971662519+972032191+971813249+972763806
441+976683618+984349454+994936579+1005824206+1013722013+1017470082+1019130476
431+1021276016+1024059029+1026202206+1027760218+1029495082+1030538313
422+1029196496+1025307214+1021355085+1021739958+1027121148+1033129529
414+1035830023+1035082632+1034599977+1037831795+1044351955+1050978457
405+1054845832+1055311435+1053948797+1052836715+1052733823+1052953020
397+1052898604+1052554991+1051739899+1051087800+1052415118+1056470012
388+1061594834+1066024892+1069680032+1071538354+1071979942+1069191372
380+1067994474+1070581091+1073741823+1073404341+1071538354
##END=
