##TITLE=X8419
##JCAMP-DX=4.24
##DATA TYPE=INFRARED SPECTRUM
##DATE=31/10/2018
##SAMPLING PROCEDURE=Diamant-ATR
##ORIGIN=ComPlat
##XUNITS=1/CM
##YUNITS=TRANSMITTANCE
##RESOLUTION=4
##FIRSTX=3997.453
##LASTX=373.96442
##DELTAX=-1.4165319
##MAXY=1.0239409
##MINY=0.75929463
##XFACTOR=1
##YFACTOR=9.536193e-010
##NPOINTS=2559
##FIRSTY=0.92575383
##XYDATA=(X++(Y..Y))
3997+970779258+970142909+969799701+969840079+969992712+969932709+969643442
3988+969393053+969324549+969248169+968940277+968484938+968199734+968293052
3978+968696138+969182166+969528686+969583126+969341675+969016781+968902587
3968+969125287+969568625+969952648+969971899+969571188+969115537+969001093
3958+969160602+969267608+969274796+969392428+969624754+969736385+969681382
3948+969660756+969657943+969422867+969014531+968847646+969057908+969267858
3938+969115724+968585569+967915217+967479192+967672954+968605445+969893894
3928+970950830+971369729+971035710+970180161+969321174+968940277+969196979
3918+969844329+970396423+970575183+970509305+970450614+970462489+970362734
3908+969966711+969353925+968814269+968633571+968925963+969499871+969900332
3898+969807639+969355426+968863835+968560317+968647510+969169040+969714196
3888+969892582+969830390+969791888+969666694+969224481+968694887+968487188
3878+968546879+968589256+968688325+969016906+969427742+969706383+969937959
3869+970206975+970399548+970526368+970639062+970461864+969611628+968190296
3859+966702398+965533330+964785474+964754098+966129802+968342867+969850704
3849+970318106+970085030+969499184+968899962+968605320+968695137+969015218
3839+969487058+970117220+970678127+970877076+970749318+970587684+970587997
3829+970635749+970458364+969891707+969074534+968471562+968593319+969278296
3819+969719259+969875268+970312043+970963893+971290725+971215595+970894202
3809+970339295+969650568+969100536+968787893+968707513+968974029+969381302
3799+969489746+969516685+969938147+970584809+970904640+970848074+970857137
3789+971192532+971585992+971591305+971165092+970701753+970458239+970281229
3779+969983649+969705696+969662068+969760886+969777450+969695508+969703821
3769+969898394+970219163+970727442+971467797+972097584+972194777+971821943
3759+971490236+971582117+971828006+971670934+970964143+970223726+970343983
3750+971288162+971937325+972113772+972469418+972988573+972772873+971697248
3740+970314043+968915275+967720144+967318558+968209609+969897019+971414107
3730+972184026+972042331+971258348+970614061+970717067+971118027+970952643
3720+970231289+969713196+969773575+970127220+970492741+970941705+971484986
3710+971710749+971350353+970584309+969746636+969268358+969484558+970132220
3700+970473740+970286917+970003025+970005713+970275791+970527368+970579621
3690+970621811+970867075+970938579+970449926+969618691+968849709+968369181
3680+968187733+968208797+968421247+968951027+969599502+969874893+969927709
3670+970450364+971686748+972836126+973226024+972978260+972552673+972303471
3660+972192402+972025267+971914198+972050894+972075833+971473048+970353108
3650+969435993+969546562+970603560+971746251+972599050+973198960+973560043
3640+973601796+973232399+972483919+971589304+970839074+970282542+969745886
3631+969336674+969724759+971112402+972405414+972966759+973073328+973055202
3621+973026012+972932007+972635115+972136649+971635682+971269348+970992708
3611+970890452+971384168+972565486+973589545+973648798+973033013+972605363
3601+972841939+973423160+973707177+973468225+972980197+972589862+972381288
3591+972291782+972319347+972450042+972576924+972673304+972811937+973006886
3581+973304028+973844872+974613104+975253766+975417338+975171136+974843930
3571+974576664+974268334+973954941+974065822+974863243+975818986+976276450
3561+976127941+975730543+975461590+975341021+975178199+974983375+975000501
3551+975282893+975510906+975435776+975209701+975109320+975158010+975287830
3541+975588473+976095189+976593468+976781166+976514651+975916679+975304644
3531+974946998+974839617+974806803+974833492+975101945+975659539+976297764
3521+976844045+977387639+978032676+978559144+978610585+978211312+977804663
3512+977771411+978120619+978582145+978855849+978880975+978882788+979031484
3502+979122989+978889538+978501641+978404323+978738154+979157679+979332751
3492+979410068+979710648+980164174+980397750+980313120+980163174+980093858
3482+979983289+979713461+979358878+979115051+979139240+979382129+979603454
3472+979694522+979847406+980222615+980648577+980885653+981013786+981279551
3462+981643385+981787643+981599132+981343367+981261550+981260862+981134105
3452+980868902+980607512+980516319+980775772+981425747+982194166+982743635
3442+982995963+983010588+982761011+982231606+981603882+981198359+981247299
3432+981684449+982177103+982473620+982667506+982973211+983411987+983887201
3422+984359791+984739251+984817068+984573366+984363854+984550365+985050456
3412+985456354+985492357+985150212+984515488+983768757+983280166+983392985
3403+984054774+984830381+985343035+985622364+985920256+986244525+986303841
3393+985966759+985484356+985162713+985086771+985234092+985570424+985971072
3383+986267964+986398971+986380595+986202835+985906255+985720245+985928882
3373+986520853+987123701+987428843+987537912+987719860+988001564+988219076
3363+988308582+988310582+988225077+988058755+987917434+987902746+987972125
3353+987999689+987953624+987921372+987976500+988151635+988539532+989204821
3343+989932613+990321323+990239755+989985303+989884735+989937176+989979490
3333+990038556+990265944+990550898+990501146+989959302+989290138+988948118
3323+988965432+989043061+988939430+988657227+988410400+988452090+988804360
3313+989203508+989386831+989330641+989160443+988965869+988791609+988710355
3303+988805985+989069438+989382956+989631533+989759165+989722163+989522777
3293+989299639+989227510+989329078+989518714+989775854+990151688+990670405
3284+991284003+991827972+992030046+991695277+990912482+990058870+989572029
3274+989594593+989821481+989836045+989578155+989317077+989274762+989443835
3264+989661222+989742227+989650346+989526589+989436272+989234635+988850300
3254+988491092+988396962+988551221+988712792+988590723+988050879+987333963
3244+986954441+987167891+987697234+988147510+988451090+988709105+988871552
3234+988832174+988636788+988404587+988203951+988072880+987973750+987751737
3224+987333900+986898125+986692176+986772555+987007381+987214518+987253646
3214+987117263+986949628+986877186+986827434+986584482+986060139+985530359
3204+985497232+986118455+986870124+987064385+986629797+986080641+985842814
3194+985920694+986066640+986016449+985717120+985446791+985543172+986020950
3184+986590982+986931127+986842309+986319217+985612864+985097709+984969826
3174+985086771+985163275+985160337+985360911+985917319+986501477+986662924
3165+986349781+985840814+985374100+985050394+984912011+984931387+984998703
3155+984984515+984814067+984545989+984385668+984480986+984682372+984681872
3145+984457859+984384855+984745001+985293783+985515795+985233279+984778065
3135+984564116+984630119+984677435+984502237+984215970+983991958+983797759
3125+983527806+983264041+983207037+983383672+983592809+983668501+983639000
3115+983565120+983396861+983122657+982847579+982544999+981987092+981182858
3105+980615200+980707206+981230611+981571818+981458311+981108729+980778022
3095+980506319+980263180+979996727+979532075+978733154+977785412+977043807
3085+976592906+976220947+975820861+975489904+975210888+974766050+974051947
3075+973229837+972494857+971893384+971369292+970827135+970190286+969503309
3065+968908900+968442123+967955470+967309995+966534825+965799595+965322005
3055+965257939+965545768+965883850+965971230+965746217+965328068+964818539
3046+964279570+963806855+963453960+963099377+962489967+961436219+960016887
3036+958651808+957886764+957987207+958764627+959807625+960824371+961791677
3026+962856113+964058682+965112493+965560019+965238001+964531647+964074558
3016+964177002+964616027+965031114+965381821+965872287+966596579+967455191
3006+968276176+968891649+969223980+969354363+969438055+969614316+970013839
2996+970692690+971518175+972248718+972727495+972936570+972941320+972842627
2986+972723057+972598675+972459105+972363787+972436416+972670929+972806312
2976+972553798+971892322+970977582+969885206+968593882+967068981+965291004
2966+963359017+961502848+959820938+958176906+956497746+954935031+953606454
2956+952431824+951349324+950494212+950008622+949775858+949498467+948996251
2946+948216331+946967071+944937767+942014036+938330198+934043826+929316803
2936+924458835+919794191+915343997+910850988+906222408+901820779+898185882
2927+895560731+893836131+892866200+892679939+893427795+895229837+898023123
2917+901498823+905232164+908900000+912376263+915655452+918721004+921488351
2907+923866426+925846165+927529763+929116479+930783388+932465360+933838626
2897+934660299+935063260+935439406+936140759+937362517+939172997+941501381
2887+944078842+946517483+948552475+950164068+951426579+952369258+953048360
2877+953574265+953976413+954178487+954167174+954066981+953985539+953825155
2867+953281873+952078679+950191070+947774681+944906578+941507694+937520589
2857+933119585+928766271+925062683+922513911+921396721+921741054+923306644
2847+925661280+928461879+931624061+935107012+938665655+941992534+945015021
2837+947854998+950550341+952980043+955047413+956796013+958313726+959595362
2827+960585545+961379340+962250578+963343829+964458081+965284441+965730091
2817+965927290+966109488+966519512+967218927+967968908+968436810+968500001
2808+968327241+968267863+968584256+969161039+969589189+969644505+969534436
2798+969591627+969883769+970237289+970527368+970778258+971012021+971167593
2788+971224846+971267786+971352916+971409857+971330540+971133653+970984895
2778+971016584+971196969+971452734+971786003+972133148+972298220+972222966
2768+972161025+972428790+973089203+973921064+974572039+974768488+974528599
2758+974180954+974079948+974272272+974498222+974510473+974317962+974142202
2748+974212831+974558538+974938060+975061442+974911434+974723173+974654856
2738+974638855+974558538+974441657+974416780+974533474+974735861+974998689
2728+975312332+975516781+975415213+975097382+974914684+975087944+975517906
2718+975950994+976204696+976254574+976167631+976006934+975841050+975776484
2708+975881615+976109503+976339766+976466211+976447085+976319077+976181194
2698+976174319+976404582+976794605+977087997+977124374+977007242+976917299
2689+976903049+976927175+976962864+976990366+976974240+976885735+976750790
2679+976658972+976697599+976903049+977254006+977619465+977771911+977630528
2669+977398765+977301009+977323948+977347387+977325135+977237255+977068183
2659+976893798+976829607+976889673+977028181+977235880+977487207+977717033
2649+977947609+978271065+978592646+978622585+978296004+977991361+978102993
2639+978541081+978885788+978919165+978754155+978516204+978217999+977985611
2629+978065741+978472202+978852724+978873350+978580895+978282566+978189685
2619+978257502+978292504+978161496+977921732+977767473+977848791+978138995
2609+978460701+978620898+978582395+978538393+978687776+978904226+978876287
2599+978640149+978600584+978895413+979184368+979224432+979208432+979380879
2589+979712211+980076919+980419314+980626013+980504756+980035854+979481135
2580+979110676+978964480+979014920+979351315+979975101+980588511+980871340
2570+980911842+981124042+981674886+982171915+982120600+981578256+981054038
2560+980856152+980885528+980983659+981122354+981307615+981502251+981619258
2550+981571880+981399558+981272363+981340367+981642259+982057096+982307673
2540+982232481+982058721+982141976+982512747+982909833+983116782+983111157
2530+983039653+983101531+983348670+983634249+983756131+983578559+983139033
2520+982740760+982740823+983156534+983665939+983998583+984106839+983999770
2510+983667189+983212350+982887331+982863892+983007213+983035402+982890769
2500+982755636+982725884+982741073+982801389+982923458+982916020+982563250
2490+982023156+981729139+981897149+982371677+982919958+983447364+983912765
2480+984210720+984210220+983879389+983345108+982839579+982606065+982759449
2470+983125095+983325232+983195912+982996900+983022839+983207350+983323606
2461+983339357+983365171+983450676+983580621+983690565+983645000+983371297
2451+982992087+982654005+982328362+981989779+981866772+982233919+982977211
2441+983637687+983929391+983987707+984069712+984246660+984450671+984615181
2431+984665309+984491924+984078838+983654313+983568871+983895514+984265223
2421+984295037+984027710+983716567+983424112+983200599+983348858+984017959
2411+984731625+984832694+984297850+983718192+983568871+983828386+984236347
2401+984632619+985020204+985460542+985957071+986404972+986629360+986463225
2391+985870441+985083333+984509050+984335727+984294412+983967519+983243789
2381+982276046+981074414+979435570+977349137+975228827+973521603+972231654
2371+971061587+969869018+968655073+967286306+965737217+964508146+964196315
2361+964661842+965147620+965202686+965105368+965462388+966747025+968999030
2351+971568928+973427223+973875186+972839689+970846512+968852209+967675016
2342+967532133+968207547+969279109+970354671+971266598+971819068+971631869
2332+970701316+969806952+969782388+970586184+971519300+972075583+972341348
2322+972773685+973649486+974782551+975873614+976947926+978168809+979354627
2312+980109421+980466942+980902654+981609883+982294297+982780325+983266041
2302+983856450+984339290+984556053+984637870+984827006+985282157+986004261
2292+986831309+987556038+988028503+988127884+987832929+987371840+987045259
2282+986892812+986765055+986658736+986748429+987151515+987790052+988398212
2272+988655039+988471091+988134321+988011189+988140134+988292831+988352772
2262+988368710+988286643+987992938+987647106+987638543+988124321+988809610
2252+989196258+988954431+988158760+987305274+986980192+987328337+987869369
2242+988014377+987716610+987389779+987272397+987274584+987393341+987746299
2232+988075443+987622104+985722995+982435680+978473952+974452470+970180911
2223+964886918+958236472+951036556+944909140+941357810+941077982+943889144
2213+948905558+954682517+959777936+963715913+967107546+970529868+973800307
2203+976607594+979067361+981246674+982819202+983524931+983471803+983017464
2193+982826015+983656501+985496982+987416218+988756295+989755040+990561899
2183+990671968+989870797+988785359+987920934+986982818+985634490+984323977
2173+983908203+984841194+986977817+989797042+992501386+994279489+994856647
2163+994499876+993463504+992080862+991274315+991769219+992921160+993490193
2153+992939099+991386509+989262574+987566789+987595103+989597843+992153741
2143+993471192+992949974+991272753+989646659+989196258+990279945+992068923
2133+993326559+993614263+993278243+992657707+991885850+991137370+990614090
2123+990394077+990426579+990561337+990621527+990636528+990877355+991413886
2113+991727841+991154058+989788667+988568409+988275642+988776421+989390144
2104+989707412+989832419+990012805+990300634+990639966+991115306+991850848
2094+992683521+993206552+993103921+992249121+990718533+989049249+988237577
2084+988961307+990762348+992415381+993205927+993452316+993635701+993640952
2074+993264117+992889221+992969725+993187051+992870282+992110426+991761156
2064+992246496+993008978+993350310+993230115+992997227+992763714+992312563
2054+991550894+990945171+991283691+992745525+994337304+994815269+994106729
2044+993064481+992272748+991957980+992453133+993883778+995824015+997693748
2034+998891692+998502482+996135908+993106296+991395010+991638961+993103171
2024+994759079+995562563+994906150+993381249+992123739+991573645+991561519
2014+991838535+991916415+991250501+990019243+989095377+989087814+989746164
2004+990442392+991049115+991891788+992845468+993266180+993118422+993202926
1994+993821587+994147356+993484005+992465009+992243496+993090045+994402871
1985+995520623+996042340+995808827+995181978+994940339+995269671+995428742
1975+994914713+993955907+992730774+991301067+990342199+990917482+993037917
1965+995130538+995718259+994981904+994051788+993551259+993572510+994184358
1955+994977029+995021406+994055601+992882845+992213682+991927165+991651024
1945+991419761+991500703+991849786+992115864+992173367+992084737+991688464
1935+990936358+990423454+990753348+991589646+992088550+991959605+991544643
1925+991242376+991248876+991580895+992138553+992763151+993127235+992791465
1915+991706528+990352637+989259699+988650601+988472591+988610411+988931242
1905+989149693+988988433+988609036+988552846+989040061+989651472+989908299
1895+989848420+989809106+989913862+990073371+990284008+990620402+991038802
1885+991448075+991883600+992423506+992984914+993342997+993397563+993339997
1875+993427314+993624701+993688392+993571573+993521695+993739270+994115229
1866+994464624+994697075+994739828+994612758+994478125+994429310+994405996
1856+994423059+994659010+995194291+995813202+996211412+996329107+996319169
1846+996212100+995910083+995668756+995956585+996734505+997532426+997987952
1836+998062019+997804067+997223596+996508055+996076342+996165347+996559745
1826+996960456+997208845+997264661+997278912+997469860+997822630+998059019
1816+997996453+997763190+997534364+997252723+996755131+996123032+995656943
1806+995472370+995380865+995196166+994999843+995009156+995237669+995470620
1796+995521373+995370176+995191666+995268796+995623566+995946335+996072717
1786+996124595+996267291+996460552+996528868+996450364+996382547+996374484
1776+996280166+996039340+995884831+996103344+996524931+996765069+996800196
1766+996775945+996707691+996565120+996419987+996379422+996470552+996688440
1756+996964456+997062524+996753069+996085468+995521248+995661193+996428175
1747+997134653+997401106+997383230+997382355+997455672+997360041+996857387
1737+995975086+994993405+994435560+994551942+994868335+995006530+994944777
1727+994771329+994618633+994599132+994661511+994630946+994455186+994347305
1717+994644322+995324986+996042153+996593872+996937017+997135653+997353478
1707+997720562+998136649+998363912+998416852+998595363+999035700+999368970
1697+999462725+999748304+1000352964+1000897870+1001153698+1001144635+1000928935
1687+1000561413+1000194642+1000180954+1000712110+1001396649+1001867239
1679+1002014185+1001898241+1001755107+1001784547+1001871364+1001836049
1670+1001798735+1002040686+1002490025+1002835420+1003011555+1003239318
1662+1003756473+1004423011+1004843348+1004791345+1004363883+1004019550
1653+1004397260+1005066048+1005173242+1004944604+1004976918+1005679959
1645+1006693767+1007500751+1007995342+1008143538+1007939527+1007637384
1636+1007788830+1008555562+1009252852+1009481678+1009394736+1009262603
1628+1009226413+1009166910+1008937772+1008616003+1008312423+1007908150
1619+1007132043+1005626893+1003205754+1000304586+997377792+994502064+991922103
1609+990067996+988940055+987834054+985707181+981509939+974410405+964132812
1599+951103873+936213263+920588362+905565495+892388735+881594987+873050932
1589+866728505+863120171+862957600+866745693+874328943+884473716+895107517
1579+904830828+914293686+925217067+936579472+945158530+951057557+956568313
1570+962882302+968864397+973258463+976344829+978532830+979831780+980521757
1560+981573005+983653750+985479606+986577419+987526474+988615287+989941051
1550+991478139+992959475+994117229+994882961+995224918+995273483+995828015
1540+997707499+999818621+1001019877+1001707855+1002588280+1003797163+1004730279
1530+1005027421+1004859349+1004412573+1003774099+1002869984+1001223764
1521+998292345+994015786+987720985+977799288+964094685+948629230+933362787
1511+919881384+910383898+908044326+916670261+931570746+940851469+943321361
1502+941711706+936578597+926995419+912544898+896132514+882236962+871773421
1492+862648332+852913895+843259026+836520574+833977053+835021800+838673699
1482+843684988+848622460+852876706+857147514+862797528+871452277+884262641
1472+898944926+910740606+918495179+924039874+928985972+933704119+937428646
1462+939543393+940322188+940413318+940368128+940093550+938845853+936334520
1452+932996515+930064471+929443185+932521300+938556524+945190594+950428584
1442+953025171+952226625+947724740+939638586+930304360+924809356+925601901
1432+931614311+941105733+951326198+959196652+963766166+965917227+966717586
1422+966876908+966982476+967730894+969370989+971142591+972357411+972969384
1412+973106329+972804750+971932574+970315606+968119792+966061486+964960922
1402+965027301+966026171+967753021+969936334+972242467+974557976+976820794
1392+978834472+980578448+982348488+984460797+986821683+988914116+990399015
1383+991299442+991730841+991839660+991840410+991986919+992574203+993803899
1373+995461307+997086150+998484544+999710802+1000793427+1001736356+1002636658
1363+1003603901+1004567832+1005325813+1005797403+1006046980+1006130422
1354+1006035729+1005738900+1005227933+1004485702+1003462331+1001993309
1346+999828746+996849074+993106733+988583410+983141158+976844608+970143909
1336+963605469+957621374+952273878+947320654+942442748+937635096+933390413
1326+930431430+929080977+928826462+928610950+927560389+925482519+922963562
1316+921128518+921178334+923854800+929032787+935827616+943141351+949987808
1306+955558942+959349786+961161390+960855373+958232659+953266872+946391976
1296+938470644+930448868+923035816+916650697+911436522+907109897+902921905
1286+898059000+892163222+885430334+878358426+871503905+865318548+860053120
1276+855812125+852706258+850947782+850841026+852697945+856684425+862688522
1266+870315149+878981587+888036984+896867618+904981837+912087122+918104719
1256+923070193+927067361+930280046+932967326+935321150+937443584+939466826
1247+941543946+943692195+945763002+947607358+949232015+950787104+952426949
1237+954156486+955801206+957154784+958182406+959065519+960026200+961132389
1227+962318520+963572342+964991299+966598892+968200546+969525123+970468490
1217+971116465+971553240+971707999+971383918+970421800+968845021+966845781
1207+964680156+962648414+961081011+960127706+959543297+958817818+957534869
1197+955572818+953107426+950553528+948403092+946982135+946333160+946244405
1187+946286407+945930512+944854637+943193916+941458191+940244184+940030734
1177+941115109+943561687+947100579+951126749+954982659+958341228+961261271
1167+963859483+966030484+967550259+968321616+968367119+967654952+966166679
1157+964229067+962628850+962290830+963845483+967358123+972195714+977163876
1147+981129980+983703316+985239717+986263401+987095699+987922434+988849425
1137+989805105+990588026+991076241+991289691+991267940+991010675+990565087
1128+990071558+989609969+989008059+987921434+986186897+984079713+982182603
1118+981002285+980701643+981127792+982015656+983118845+984206782+985073020
1108+985614801+985874504+986022637+986312029+986946065+987923122+989083564
1098+990293696+991453075+992391255+992929848+993053293+992971913+993092358
1088+993860964+995398616+997236659+998556485+998733245+997643433+995582501
1078+993048042+990642716+989056437+988856051+990129312+992504324+995662506
1068+999585357+1004156683+1008867955+1013173954+1016893168+1020053788
1060+1022618374+1024577549+1026097262+1027357022+1028394832+1029242131
1051+1030014738+1030741030+1031267623+1031465134+1031374191+1031076549
1043+1030585333+1029944609+1029266882+1028530715+1027398024+1025377783
1034+1022202037+1018006045+1013256708+1008765324+1005712961+1005218182
1026+1007578756+1011985448+1016991924+1021210042+1023802004+1024691806
1017+1024450479+1023929074+1023901760+1024807187+1026582102+1028740039
1009+1030696465+1032018228+1032452878+1031901909+1030445513+1028362705
1000+1026159828+1024541234+1024137899+1025080453+1026855118+1028665410
992+1029921482+1030426136+1030302692+1029874480+1029489645+1029323573
983+1029341011+1029391889+1029253131+1028710725+1027773171+1026690046
975+1025614296+1024407914+1022907953+1021217730+1019603887+1018209994
966+1016951359+1015648721+1014259016+1012966129+1012005074+1011462792
958+1011325347+1011594863+1012247338+1013162953+1014191700+1015233197
949+1016219004+1017090555+1017842785+1018575765+1019419939+1020361743
941+1021194604+1021684132+1021738135+1021456181+1021107349+1020964216
932+1021028282+1021034907+1020763641+1020157794+1019160487+1017645649
924+1015501025+1012685675+1009278666+1005424757+1001171011+996630874+992448883
914+989725476+989227822+990823227+993612075+996341357+997880446+997767190
904+996421612+994739015+993454378+992823530+992740087+993025041+993541571
894+994082102+994307803+993909342+992812591+991229063+989540778+988093944
884+987048446+986419348+986248400+986659674+987747112+989500525+991837910
874+994565818+997262723+999358344+1000385966+1000068698+998244092+994987154
864+990849478+986746554+983519805+981640822+981186046+981886961+983239289
854+984698686+985788561+986128393+985589300+984367729+982577063+979822842
844+975596098+970096968+964276258+959075395+955026286+952544706+952038927
834+953416756+955763204+957914641+959427665+960839622+962980183+966214119
824+970350983+974965812+979597579+983878951+987742611+991396510+994952840
815+998274532+1001251891+1003927608+1006240366+1007943589+1008894019+1009198974
805+1009007213+1008322924+1007063601+1005248871+1003147875+1001236140+999976255
795+999695113+1000614229+1002721413+1005533763+1008313423+1010761877+1013296773
785+1016408640+1019958345+1023348478+1026142577+1028223947+1029519459
776+1029871792+1029157688+1027396149+1024751122+1021377864+1017171309
768+1011724558+1004621773+995661631+984705061+971507862+955993217+938747722
758+921115330+904750511+891214792+881941945+878077659+879835323+885927050
748+893879696+901279748+907098334+912117248+918124157+926440450+936930055
738+948201080+958511862+966420256+970979019+971754501+968759516+962480029
728+954050980+945173218+937566904+932451421+930433430+931629499+935877619
718+943040407+952978668+964921857+976950926+986471413+991323255+990322510
708+983018589+969415679+950027873+926060928+899330636+871934430+846022435
698+823629331+806605161+796836035+796224062+805867618+824841963+849697835
688+875610455+898504463+916460186+929818770+940348877+949936993+959551297
679+969048033+977562712+984159780+988441402+990624215+991208936+991124244
669+992432694+996394923+1000194705+1001132384+999033450+994780580+989682848
659+985088458+982116537+981377307+982631129+985125085+988280142+991729404
649+994877336+996864513+996843136+994072727+988559971+982398116+979600517
639+983088343+991649212+1000644356+1005862844+1006584761+1005181493+1004140995
629+1003324698+999913564+991846161+981655698+975200388+975648976+980436877
619+984864258+987136451+989102627+993202864+1000023882+1008558000+1017659900
609+1026684108+1034928584+1041334266+1045284369+1047186666+1047821453
601+1047541374+1046354993+1044310625+1041506901+1038093891+1034550812
592+1031691084+1030100930+1029825289+1030776844+1032857152+1035429425
584+1037457292+1038563481+1039340651+1040420276+1041732476+1042736347
575+1043124182+1043282878+1043859036+1044791840+1045138173+1043934791
567+1040782796+1035618686+1029001679+1023022459+1020681637+1023303538
558+1029132374+1035154159+1039696796+1042634028+1043825597+1042402640
550+1037565236+1029787475+1021187478+1014509468+1011590175+1012825434
541+1017571395+1024321284+1030900289+1035302543+1036299350+1033377244
533+1027022940+1019338122+1013259959+1010135716+1008157852+1003779974+995172040
523+983589934+971594555+961655606+955525440+953007920+951658530+948659732
513+942614133+933770185+923553471+914202556+908475226+908459787+913786970
503+921650236+929359056+936955994+946349723+958236597+970906953+981164419
493+985572611+981722327+970095656+955130230+943987650+943069909+953023046
483+967096545+977500333+982750198+986732178+992794778+1000567289+1007720076
473+1013229707+1018173555+1023542677+1028770041+1033177045+1037341098
465+1042103560+1046858585+1049822318+1050037580+1048480928+1047099348
456+1046847521+1047326049+1048518930+1050997511+1054002184+1055043244
448+1052741236+1049135653+1047626066+1048900140+1050597613+1050799999
439+1050148337+1050447229+1052563601+1055500271+1057679271+1059020474
431+1060336925+1061217100+1060088535+1056261439+1051108892+1047208730
422+1045811962+1045535508+1044467884+1043565832+1044471322+1045760834
414+1046168357+1046894524+1049538927+1053070505+1054940738+1054790855
405+1055005617+1057691522+1062507425+1067698599+1071806211+1073741823
397+1073409054+1072780018+1072938777+1072189983+1068713658+1063682243
388+1060491684+1061349483+1064971942+1066752170+1063603613+1058296682
380+1055466144+1056419449+1059518002+1064093891+1070881783
##END=
