##TITLE=X7405
##JCAMP-DX=4.24
##DATA TYPE=INFRARED SPECTRUM
##DATE=29/10/2018
##SAMPLING PROCEDURE=Diamant-ATR
##ORIGIN=ComPlat
##XUNITS=1/CM
##YUNITS=TRANSMITTANCE
##RESOLUTION=4
##FIRSTX=3997.453
##LASTX=373.96442
##DELTAX=-1.4165319
##MAXY=0.89090914
##MINY=0.38151428
##XFACTOR=1
##YFACTOR=8.2972379e-010
##NPOINTS=2559
##FIRSTY=0.76225901
##XYDATA=(X++(Y..Y))
3997+918690069+919817619+920638066+920495111+919636877+918836760+918646033
3988+919095803+919869054+920520828+920742516+920671757+920725994+920980296
3978+921049834+920695104+920178885+919937730+920139519+920564505+920795101
3968+920649560+920414510+920412068+920501504+920359052+920076374+920049508
3958+920361063+920659545+920630020+920372485+920255823+920484694+920905514
3948+921200979+921159529+920776495+920300649+920115166+920280965+920450500
3938+920441233+920380459+920277948+919983777+919613028+919534007+919841253
3928+920300290+920685981+920852930+920798477+920707316+920625494+920316525
3918+919729547+919326040+919496580+919993259+920399281+920675565+920991000
3908+921310601+921399463+921135392+920673338+920308838+920252734+920626285
3898+921445295+922512214+923484812+924003976+923847731+923322820+923211042
3888+923655783+923767058+922575071+920435558+918761834+918198347+918596394
3878+919693269+921048756+921966255+921896143+921035898+920141602+919825808
3869+920373850+921501112+922326157+921995205+920663137+919562239+919486020
3859+920229674+921227055+921880195+921491845+920101733+919550314+920606099
3849+922321632+923716629+924112521+923341713+921965034+920858533+920383261
3839+920344325+920642304+921344724+922195343+922677870+922577298+922257050
3829+922146781+922215529+922339806+922739578+923510673+924075382+923827904
3819+923263555+923012342+922950275+923022830+923414340+923872874+923908289
3809+923376913+922731388+922688861+923149334+923085615+921889031+920605452
3799+920861909+922448352+924101818+925012779+925176711+924957177+924646555
3789+924419264+924313520+924226382+924117981+924115682+924180335+923957929
3779+923341210+922863783+922975202+923503346+924184645+924926862+925530363
3769+925716995+925581223+925461974+925457305+925511398+925588191+925515924
3759+925060120+924472064+924439594+925036342+925456586+924726294+922795969
3750+921197459+921006445+921480136+921438974+920550712+919972499+920262001
3740+920447986+919618631+918080319+917195578+917592548+918759607+920553873
3730+922825063+924757040+925489344+924996329+924204329+923915689+923996218
3720+923924812+923641631+923579421+924032567+924711137+924869609+924093772
3710+923243656+923376123+924206699+924843316+924733047+923944998+923159248
3700+923052139+923561965+924252387+924995395+926059297+927686901+929524485
3690+930376684+929273272+927236126+925823241+925161337+924719254+924308635
3680+924259140+924884838+925820583+926218918+926029915+926014614+925983078
3670+925320456+924687933+925176926+926257710+926807404+926461151+925613550
3660+924789798+924183352+923869785+924135940+924992306+925692139+925477922
3650+924381478+923169018+922276590+921816619+922305756+923775463+925355081
3640+926159150+926254908+926235440+926149811+925635029+924791522+924055411
3631+923258742+921824378+920414582+920340087+921333661+922617311+923954552
3621+925253935+926198875+926757406+927250637+927434036+926791600+925770872
3611+925545089+926446353+927652420+928271652+928188897+927762546+927190653
3601+926398510+925436041+924677230+924257560+923831065+923359385+923387042
3591+923994206+924387943+923881710+923122180+923362618+924446778+925305011
3581+925446026+925289063+925334751+925407809+925195029+925001716+925271032
3571+925814190+926112240+926018493+925852479+925847522+925871372+925810454
3561+925687757+925539630+925412048+925337768+925191078+924703738+923842343
3551+923077641+922933465+923402990+923983215+924113311+923770507+923607581
3541+924206555+925367940+926281488+926383424+925895868+925342079+924836851
3531+924190536+923363192+922538291+921962376+921898369+922554239+923827186
3521+925150490+925823026+925606510+924998412+924774856+925109400+925344737
3512+924862425+923992841+923715192+924438588+925536900+926153044+926033866
3502+925552417+925082461+924646053+924218480+924016404+924292113+924982177
3492+925715845+926122441+926087744+925836531+925733445+925875682+925985448
3482+925809161+925440567+925103437+924888645+924887352+925228289+925802121
3472+926258500+926357204+926012100+925116080+923751254+922428525+921674023
3462+921491630+921565622+921792195+922270843+922944097+923535169+923822947
3452+923917916+924195133+924766307+925112345+924684270+923801612+923281873
3442+923365347+923631862+923662033+923347891+922839071+922504600+922695398
3432+923347245+923976965+924165321+924009436+924008214+924408632+924804093
3422+924646124+923983000+923373034+923268871+923759659+924590810+925222614
3412+925226350+924742170+924287731+924177102+924345631+924603238+924825285
3403+924943313+924898918+924675578+924325517+923921148+923495947+923048547
3393+922576077+922138592+921899016+921996211+922342105+922685844+922914644
3383+923192867+923739545+924501445+925134040+925360900+925256737+925090578
3373+925049847+925101426+924956315+924382843+923726758+923633155+924066833
3363+924342542+924341321+924761135+925838902+926711790+926550085+925689194
3353+925048841+924892165+924813289+924642892+924675362+925088998+925655933
3343+926010807+925957073+925575117+925084831+924592534+924159790+924019133
3333+924341680+924932106+925495737+925969429+926377821+926680110+926892746
3323+927095110+927272619+927280090+926978160+926431411+925919359+925666062
3313+925704064+926038464+926622137+927160482+927322761+927126790+926840306
3303+926645915+926538160+926389961+926081207+925656939+925287842+925112704
3293+925230085+925684884+926309145+926747205+926790451+926566105+926318412
3284+926150098+926113246+926403826+927145181+927993932+928382712+928254196
3274+928146441+928458428+929053739+929608462+929888338+929700916+929065951
3264+928484505+928601886+929485550+930523087+931090598+931084420+930727104
3254+930105860+929156465+928061314+927380159+927533674+928267558+928899146
3244+929120044+929363140+930206359+931487567+932278562+931954506+931036145
3234+930546075+930791038+931259845+931449638+931316452+931103528+931095985
3224+931383907+931650709+931444681+930825448+930424671+930623156+931023718
3214+931024149+930581994+930073102+929691865+929361631+929043969+928805759
3204+928638738+928420426+928108942+927888403+928029347+928632416+929531597
3194+930350464+930663600+930338970+929711189+929180603+928821850+928708851
3184+929221909+930483074+931851061+932572158+932699669+932853255+933216821
3174+933336932+932925595+932366562+932291708+932929259+933910692+934576906
3165+934591920+934320880+934333020+934595440+934565987+933931237+932829765
3155+931633468+930893909+931092537+932093726+933169840+933700354+933557686
3145+932912233+932025481+931155107+930482931+930219577+930652753+931761265
3135+932907133+933348713+933079972+932838313+933253961+934251198+935225448
3125+935593324+935219486+934514839+934109536+934285752+934768495+935161441
3115+935369912+935401017+935066761+934260681+933318111+932781922+932871430
3105+933244837+933214882+932351548+930976018+929756446+928813732+927687045
3095+926105057+924227388+922206046+920078889+918105103+916776411+916374987
3085+916579147+916485472+915067127+911761776+906763160+900862491+895055713
3075+890288053+887378665+886765251+888087478+890302348+892443658+894092670
3065+895244141+896128810+897031798+897941179+898640222+899219729+899977032
3055+900843526+901626403+902687216+904605472+907219683+909641802+911281044
3046+912390203+913442181+914423686+915144927+915857044+916947095+918286131
3036+919493635+920546977+921596727+922564799+923291715+923700035+923728554
3026+923496090+923356871+923466781+923652479+923866265+924236942+924625579
3016+924725360+924599287+924636355+925063424+925865337+926986062+928254268
3006+929244537+929524557+929062790+928250748+927454510+926625657+925470954
2996+923927182+922200515+920360345+918219898+915614954+912528848+909063444
2986+905537267+902359713+899570939+896703073+893155775+888523024+882734780
2976+876191028+869648282+863809321+859095179+855690262+853561021+852456316
2966+852037364+852125005+852919878+854855088+858054696+862120224+866537034
2956+870930424+874915495+878167400+880649072+882434933+883515286+884007008
2946+884208869+884240909+883947958+883228873+882142629+880669402+878670904
2936+876117683+873066633+869336008+864528191+858598859+852181828+846154008
2927+841065884+837074276+834250805+832839572+833157378+835167082+838245430
2917+841560121+844649818+847568904+850535833+853481426+856007708+857886383
2907+859373475+860734134+861719662+861855793+860963581+859128009+856523640
2897+853558579+850940202+849330484+848963183+849627457+850979425+852812913
2887+855028502+857455362+859848244+862065556+864161680+866225118+868101207
2877+869385073+869802731+869517755+868991551+868639838+868601837+868711316
2867+868716919+868586823+868508305+868631721+868974885+869494695+870095897
2857+870666281+871196077+871791459+872564135+873578398+874855224+876355247
2847+877969921+879549180+880924422+881902551+882310081+882227612+882168491
2837+882747207+884114907+885960033+888000915+890132885+892163782+893829460
2827+895117924+896309551+897615112+898911549+899873659+900286792+900214309
2817+899962233+899928111+900346344+901083174+901761887+902152176+902394984
2808+902833476+903623895+904514958+905059050+905047268+904665384+904280052
2798+904219565+904686432+905648542+906753894+907507461+907685544+907550276
2788+907546037+907843944+908317204+908812016+909209991+909376150+909316166
2778+909300721+909597622+910099043+910363474+910112620+909638713+909549923
2768+910097750+910978252+911823124+912562899+913206628+913589087+913589446
2758+913419193+913440744+913728450+914006889+914044603+913926863+913872195
2748+913934549+914012995+914065723+914122187+914074272+913701224+913052107
2738+912577985+912661674+913186298+913732976+914028296+914051141+913897051
2728+913739585+913784483+914084473+914453714+914688620+914823960+915056208
2718+915448437+915840953+916051865+916070615+916028734+916048058+916150569
2708+916282964+916375777+916372042+916225207+915891095+915349374+914642788
2698+913853877+913057207+912351412+911819604+911338586+910617776+909600065
2689+908569711+907736836+907065162+906614315+906612591+907052878+907619023
2679+908117427+908624235+909168542+909637851+910054360+910600966+911303026
2669+911953508+912389054+912627768+912771800+912953475+913286079+913729168
2659+914114213+914363918+914575261+914907794+915478536+916242807+916914984
2649+917202977+917179702+917216842+917519921+917920195+918136855+918074859
2639+917828531+917524446+917220218+916940126+916817286+917122592+917976371
2629+919060675+919862086+920211284+920297201+920217677+919934210+919659362
2619+919800881+920408404+921082161+921546226+921922650+922335352+922667597
2609+922884113+923207378+923786167+924486431+925108035+925521814+925553279
2599+925069746+924335000+924015111+924562506+925707225+926794833+927491865
2589+927879352+928060165+928068498+928035310+928115910+928319568+928531270
2580+928646425+928705905+928883558+929199999+929401070+929377363+929417305
2570+929741647+930192279+930680482+931426578+932384952+932894202+932313331
2560+930775234+928997132+927564204+926668831+926313599+926434213+926918679
2550+927653210+928423515+928852812+928803891+928734568+929185919+930062327
2540+930845634+931282689+931465154+931540152+931704227+932182660+932969559
2530+933769317+934258454+934307662+934078431+933935260+933973908+933737135
2520+932869850+931899982+931749915+932577474+933644753+934222248+934208096
2510+934019237+934174261+934862816+935807541+936585748+936957288+936847737
2500+936328788+935710849+935388086+935556543+936172472+936991770+937568116
2490+937540171+937075459+936799606+937213027+938343234+939854966+941200827
2480+941762088+941276543+940259191+939620060+939673147+939844406+939551671
2470+938991560+938724400+938768651+938574764+937878522+937139466+936867779
2461+936835812+936382522+935309928+933977931+932646725+931346839+930348524
2451+930114265+930656201+931427153+931970238+932303202+932634800+933076524
2441+933639437+934178930+934390059+934159175+933827505+933825566+934187120
2431+934674604+935198797+935840873+936608305+937393696+938044393+938343162
2421+938177435+937866741+937959698+938519593+938961605+938759671+937989510
2411+937105774+936484961+936207528+936110477+936121539+936414130+936959659
2401+937200814+936662254+935640377+934809873+934388622+934125125+933875923
2391+933791874+934013347+934390849+934504423+934037771+933246346+932812740
2381+933011943+933357549+933397562+933441598+934016795+934998372+935783476
2371+936000566+935731107+935256625+934697951+934036694+933709765+934455933
2361+935993167+936982574+936908870+936667068+936919933+937199234+936814405
2351+935822411+934879195+934486751+934616991+934915616+935149804+935324583
2342+935331623+934987381+934461033+934278855+934888534+936265931+937922702
2332+939308720+940034773+939801735+938697676+937508850+937086019+937437732
2322+937955028+938414065+939062176+939842898+940295397+940135417+939488814
2312+938675407+938038718+937879815+938293092+939046875+939752096+940218532
2302+940612413+941225826+942145193+943213333+944158777+944604811+944274793
2292+943509301+943132804+943444863+943932203+944234780+944573274+945030874
2282+945427916+945977108+947024559+948202107+948742463+948442544+947714623
2272+947042662+946714799+946698205+946665878+946455828+946421705+946995968
2262+947974025+948555472+948215828+947279436+946434277+946080696+946440096
2252+947581581+948864082+949336912+949248193+949936748+951665428+953011145
2242+953063514+952731197+953080827+953696611+953517522+952423377+951302077
2232+950971628+951432964+952056938+952479194+953196412+954763818+956536676
2223+957197862+956595008+955836771+955532902+955315093+955106048+955570257
2213+957234929+959791527+962215801+963582136+963934710+963980758+963926736
2203+963450100+962623977+961822495+960919220+959419772+957238162+954954185
2193+953259556+952169003+951184050+950347080+950331060+951376141+953096343
2183+955200944+957398861+959137525+960294959+961257786+961774723+960832656
2173+958318371+955851498+955199651+956392284+957971543+958772882+958874962
2163+959397071+961736434+965715471+968524503+968026387+965950521+964942939
2153+965682139+967891334+971119892+974158155+975475928+974385662+971314354
2143+967628699+964868516+963301326+962065590+961286952+962477789+966052816
2133+970042269+972157789+971962968+970530974+968952578+967539693+966092039
2123+964743951+964277443+965157228+966498060+966835262+965984068+965229783
2113+965488251+966214880+966558834+966733685+967465917+968611353+969183030
2104+968698563+967782717+967225048+967010041+966675497+966212294+966058419
2094+966375148+966885979+967355360+967750175+968023226+968143696+968232486
2084+968291823+968059647+967597952+967664904+968849851+970631115+971997449
2074+972693907+973092888+973348339+973590932+974412959+976232871+978495585
2064+980051137+980114569+978647016+976123895+973292809+971196757+970906968
2054+972292483+973304950+971933156+968961270+967541632+969733874+974449165
2044+979119343+982449766+984882516+986592303+986383617+983769047+980657080
2034+979034863+978531790+978386536+979612358+982840486+986439793+988877644
2024+990704884+992555039+993304655+991784518+988876711+986683679+986524560
2014+988260782+990416172+990833471+988904152+986966787+987335525+988601720
2004+987706347+984780868+982886892+983931686+986847682+989026849+988660626
1994+986219039+983866745+983148019+983622285+984092312+983907046+982768074
1985+980862964+979337583+979642171+982585465+988191316+995328583+1001276233
1975+1003349369+1001199871+996633210+991777909+988233772+987309449+989413259
1965+992802660+994625086+993984302+992819972+993134689+994433282+994730183
1955+993013285+990177961+988322347+989274614+993072622+997681882+1000772370
1945+1001695185+1001199009+999992655+998645357+998040779+998659796+999870676
1935+1000606859+1000486101+999876423+999282046+999013376+999102885+999330751
1925+999533618+999894454+1000658437+1001573781+1002071538+1002043090+1001971756
1915+1002076351+1002048263+1001879087+1002120243+1003050026+1004151570
1907+1004867567+1005327106+1005865307+1006369457+1006590858+1006692507
1898+1006999537+1007581343+1008428657+1009595573+1010911263+1011885585
1890+1012094558+1011856347+1012297712+1014041836+1016119929+1016885852
1881+1016010593+1014669042+1013913966+1013843638+1014061735+1014321640
1873+1014829741+1015866345+1016864157+1016521927+1014841307+1013561751
1864+1013753842+1014834842+1015540781+1015235475+1014399583+1013910446
1856+1014187018+1015104588+1016312379+1017505444+1018632131+1019865209
1847+1021362502+1023083135+1024651690+1025562795+1025887425+1026136340
1839+1026537907+1026893714+1026885166+1026485825+1026081456+1026128438
1830+1026721450+1027594194+1028605727+1029819553+1031147742+1032325649
1822+1033149185+1033675820+1034293760+1035320307+1036494837+1037376633
1813+1037963898+1038467043+1038938364+1039389211+1039896019+1040485942
1805+1041078308+1041497547+1041625416+1041601710+1041631307+1041701994
1796+1041742510+1041738631+1041710687+1041888842+1042564107+1043654014
1788+1044954043+1046327490+1047583914+1048772597+1050274774+1052165805
1779+1054135352+1056128893+1058285791+1060542829+1062746780+1064629190
1771+1065826062+1066442565+1066783502+1066788530+1066259381+1064887299
1762+1062141268+1058066833+1053310595+1047760417+1041156179+1034309707
1754+1027793900+1020749806+1011870140+1000921863+988641373+974335088+955316889
1744+929157399+894008262+847448865+792505619+742036077+706361669+687950992
1734+689419550+709144193+736882941+766425078+795170977+820506068+842097100
1724+860945693+876717232+889099227+899515912+909910902+920491878+929329017
1714+935786134+941178486+946532837+951912043+957215821+962797032+968722054
1704+974154060+978509449+981984407+984787261+987127271+989856851+993772456
1694+998361027+1002622166+1006589781+1010665653+1014584347+1018024823
1686+1021849124+1027394416+1033555206+1038172512+1041397479+1043947323
1677+1046237478+1048644583+1051176110+1053359372+1055132230+1057087123
1669+1059523035+1061788406+1063399345+1064657134+1066088697+1067792664
1660+1069357699+1070538408+1071446065+1072296252+1073221869+1073741823
1652+1073085020+1071765882+1070185977+1068058604+1065282473+1062205562
1643+1058436576+1053084022+1045748486+1035528633+1017363279+981114536+926916596
1633+871173807+819313865+766890723+714853776+672957804+650916356+650691363
1623+668452995+694926698+720407186+743389409+767871510+794939016+819611269
1613+839767291+858295205+877322600+896260487+912928979+925417866+932845353
1604+935093771+932501184+925684596+915482344+902921332+888852755+873433072
1594+855854983+834396346+807366555+774956767+739891678+705841211+675513971
1584+649816104+628278375+610403456+596033668+584891108+577870289+577426733
1574+582874795+591433818+602974964+618453193+636379690+654998981+674605595
1564+694141881+711361218+727630082+749693872+777538005+795884028+803287665
1554+805751953+805744841+804795662+804656730+806308041+809230862+811981418
1544+813125849+812415887+812872194+820504846+834579458+849042994+863311852
1534+878807681+892825182+900045133+899574746+892641783+879305150+860748573
1524+837635895+804662189+758063857+709535631+672441370+648143314+636366903
1514+637244964+646981211+660164904+672894085+683212426+689801722+692579361
1504+694874544+699157019+706337531+717337244+732765187+751407968+769035768
1494+781827088+789955271+795467160+800172322+805305775+811350045+818211243
1485+825668183+833548673+841489721+848352283+852305818+851936864+847515457
1475+842117430+841556385+849486083+861995731+873865242+883805865+891959047
1465+897839961+900972833+901831353+900677224+895627174+881602058+857179940
1455+830337140+805375384+782998530+766809763+761658280+767824026+778264561
1445+783786435+778929913+763090345+739905471+713263454+683565719+652052094
1435+625516324+607801674+596951993+592031895+594022850+602483457+615764775
1425+632942518+652443892+671733347+690478711+710561316+730943911+747461402
1415+759321934+768574936+777169985+786596616+797178382+807430921+815091087
1405+818578401+818404484+817411701+818624233+823445052+831162831+839919298
1395+848599114+856791806+863820097+868909657+871014186+867948913+857401700
1385+840334945+821133633+804254229+792750079+787910941+789015287+794109158
1375+801013099+807765752+813519802+819312429+826794152+836003118+844178426
1366+846545805+837840343+815488272+785294216+758715632+742374068+735894683
1356+735062095+734073621+728693984+719821142+713685998+717204777+732024766
1346+753380821+774585659+791975894+806282036+820743775+837849107+857138921
1336+876589650+894909669+911660917+926585860+939535939+950723073+960725835
1326+970200885+979585635+988889426+997514072+1004287629+1008119975+1008991570
1316+1007954032+1006004311+1003405187+999822042+994372867+985510370+971429508
1306+950953669+923967124+890990472+852660045+809744135+763625672+716937257
1296+673762591+638836434+616134519+607672942+612766382+628135276+649433143
1286+673471437+699352056+727778066+759463380+793849109+828881440+861797893
1276+889947834+911031412+923191215+925331662+917286595+899573094+873197448
1266+839934024+802523322+763906482+726053410+689929160+656462438+626823322
1256+601841057+581927592+567633950+559642509+557773712+560045656+563002600
1247+563182659+558471606+548528361+534460610+518261175+502401134+489602917
1237+482398519+482260772+488636103+498351877+506024794+506226116+496898296
1227+481425167+466941553+459808777+462156473+472172704+486765079+503598436
1217+521547275+540378735+560251109+581178837+602731222+623925787+642867122
1207+656321136+660351033+652571402+634619331+612491966+593984740+585002419
1197+587307301+598665299+614403541+628974185+637062642+634787716+621318904
1187+599892629+576631752+557386835+545228433+540571760+542827326+551332364
1177+565121748+582655872+602135587+621927792+640297737+654380969+659951477
1167+653866690+637945946+619813422+608613213+609389409+621269265+639715644
1157+659065730+673193644+675912377+663223712+636453466+602949031+572674159
1147+553092759+546312988+549923789+559797137+572440941+585780088+598756280
1137+610713863+621124945+629566695+635675618+639063510+639429231+636875004
1128+632014890+625642469+618433510+611224981+605545857+603498797+606744883
1118+615473549+628360987+643425796+658710210+671953886+679797523+678319123
1108+665858108+645907970+626280236+614125102+611481079+615762548+623766453
1098+634302962+647483494+662917974+679126496+694039801+705454586+711033068
1088+708199611+694571824+669250885+634194345+594200574+555207884+522268875
1078+498375295+484205572+478626588+479724612+485741549+495367312+507482397
1068+520883108+534404254+547329585+559551563+571188898+582132470+592124492
1058+601158500+609505641+617340442+624554143+630921392+636229839+640246877
1048+642791549+643979729+644368006+644824385+646203219+648978632+652980656
1038+657323761+660506272+660656913+655953475+645288810+629181578+610401229
1028+593254233+581451709+576303853+576816839+581079092+587221635+593511696
1018+598460133+601289889+602137419+601706614+600893351+600740374+602425018
1009+606901775+614278832+623458992+632635991+640528549+647184725+653450468
999+659828923+666086836+671742901+676561278+680587512+683911469+686444145
989+687951782+688350117+687860621+686838097+685661124+684836295+684845490
979+685667087+686572589+686423815+684162754+679426486+673111894+667138957
969+663208051+661707669+661832019+662510014+663076734+663259989+662864959
959+661724120+659933015+657869361+655881854+654114024+652642377+651635441
949+651345724+651889671+652892440+653464333+652741224+650285485+645675076
939+637890273+625626665+608542741+588189348+567574074+549715319+536423979
929+528045302+523897306+522860773+523864045+526149962+529280858+532977397
919+536994974+541191963+545671019+550660906+556160870+561819054+567212484
909+572182975+576916261+581756620+586941005+592510651+598386752+604204521
899+608738568+609710304+605078415+595403875+584804222+578672418+579953806
890+587651506+598493393+609368217+618524168+625436873+630021924+632111583
880+631674312+629104856+624937679+619362933+612001752+602298298+591041805
870+581791748+579308317+585226406+595675454+603607342+603075391+591848999
860+571815135+547907584+526029456+510921796+504973715+508073865+518266814
850+532985299+550100148+568036774+585325002+600534383+612797846+622153647
840+629071165+633774387+636268128+636570919+634551158+630386208+625729105
830+623141402+623511361+625314822+627185810+629757134+634026175+639278590
820+643787709+646832150+649104633+651366556+653360959+654158922+653195950
810+650743588+647620486+644794788+643177959+643405035+645561789+649016777
800+652291957+652890501+647428754+632461140+606078885+570174636+531992084
790+502038897+488208818+491341797+506545790+527733746+550512491+572489431
781+592562517+610121282+624626483+635791850+643804735+649100898+652034997
771+652814210+651560946+648327863+643049515+635382524+624549402+609938314
761+592938403+578079801+570632774+572186890+579494517+587840401+594524773
751+599421811+603963509+610016759+618584726+629005937+639358975+647216908
741+650437348+648902054+645840947+645769828+650405165+657572316+664159241
731+668845295+671974503+674365589+676687567+678989647+680460432+680053477
721+677517928+673874082+670884381+669819186+670688697+672730010+675378846
711+678451015+681611544+684354271+686670574+689089604+691682120+693608709
701+694087357+693302254+692037281+690918424+690098767+689169343+687478091
691+684952527+682265546+679867276+677417500+674574274+671832266+670235048
681+670575698+673065200+677473246+683227009+689527808+695612236+700929519
671+705406096+709824702+715508568+722157201+727661331+731595901+734252782
662+734389200+730297093+723216362+717404698+714084476+706828823+687715870
652+658975287+634297287+626396037+635950250+654135216+672474990+687611492
642+699527912+708557574+713853162+713662364+707419464+697839965+689840083
632+686616050+687722767+690842995+693091700+690248187+678758046+661563708
622+648951405+649657704+661937188+675311894+680215397+674511273+661835323
612+647160085+634981029+628560693+628080608+629651031+627550022+618855407
602+606894304+599779127+603966885+618688889+637481019+654307624+666973876
592+676111006+683146120+689441460+695876164+702341110+708046815+712684881
582+716703500+720220411+722588006+723370164+722991728+722327095+722153178
572+722688793+722748920+719499170+710885946+699227419+690569010+689431834
562+695290479+704389607+713374298+720306543+724011594+723981351+719936440
552+710912526+696119762+677421595+659791065+648118602+643892663+645493041
543+651029714+659684316+670394095+681098917+690115505+696942077+701243373
533+702260581+699638900+694067890+686492922+677070026+665887202+654357048
523+643747624+632762639+619398205+606018830+599957857+605986000+620882855
513+637578358+651228127+660312528+664384737+663115525+657545521+649791320
503+641049796+632126381+625328327+622942773+624693650+628635475+633837532
493+640803971+649291265+657722383+665217037+672089729+678157993+682553180
483+685527077+688643211+692757947+697151338+700606972+702683915+703994576
473+705627785+708497375+713078618+719222383+725590709+729941716+730886800
463+728617119+724012456+718522693+714596313+714289858+716451497+717692117
453+715917391+710369871+700519546+686541483+670117595+653843702+639642514
443+628932735+623939867+625921699+633142080+642785371+652966935+662861726
433+672388283+681613627+690522747+699686887+709760480+719441341+725682157
424+727429370+726830539+725228006+721861952+716969008+709501293+692992637
414+660442481+612443260+560561875+519381864+496530780+491047805+496981627
404+507510126+517250828+523263059+525588235+527725054+534963251+548468916
394+563966290+576486606+584228163+589011484+593507816+598749240+604247911
384+609571228+615521033+622834587+630328595+636297724+641100010+646314854
374+650129671
##END=
