##TITLE=X8261
##JCAMP-DX=4.24
##DATA TYPE=INFRARED SPECTRUM
##DATE=31/10/2018
##SAMPLING PROCEDURE=Diamant-ATR
##ORIGIN=ComPlat
##XUNITS=1/CM
##YUNITS=TRANSMITTANCE
##RESOLUTION=4
##FIRSTX=3997.453
##LASTX=373.96442
##DELTAX=-1.4165319
##MAXY=0.94766396
##MINY=0.38028798
##XFACTOR=1
##YFACTOR=8.8258084e-010
##NPOINTS=2559
##FIRSTY=0.94272602
##XYDATA=(X++(Y..Y))
3997+1068146928+1068598126+1069072759+1068977670+1068498040+1068078719
3989+1067886988+1067991396+1068540790+1069416982+1070110764+1070296956
3980+1070238201+1070326672+1070499627+1070393531+1069931460+1069499442
3972+1069445954+1069632485+1069679353+1069488771+1069294137+1069281778
3963+1069416307+1069613102+1069897220+1070300941+1070651580+1070607075
3955+1070042351+1069380513+1069369843+1070410684+1071999838+1072936339
3946+1072507765+1071346510+1070750923+1071279853+1072151791+1072353922
3938+1071783458+1070879982+1069994740+1069499779+1069823269+1070721546
3929+1071209820+1070888288+1070398393+1070330521+1070364964+1069859265
3921+1068911149+1068219798+1068182587+1068466096+1068544234+1068433747
3912+1068577866+1069215729+1069998454+1070328292+1070182688+1070347810
3904+1071475366+1072965109+1073741823+1073713864+1073276375+1072553621
3895+1071739898+1071269183+1071388111+1071648929+1071261484+1070269740
3887+1069546446+1069756816+1070456540+1070785231+1070734647+1070591204
3878+1070250222+1069869395+1069953746+1070433038+1070642463+1070661710
3870+1071382641+1072683423+1073494579+1073554617+1073067018+1071837215
3861+1069999670+1068490544+1068027190+1068506685+1069494647+1070789485
3853+1072135650+1072798771+1072575840+1071951821+1071325439+1070761999
3844+1070107184+1069420291+1069263679+1070150204+1071688640+1072627436
3836+1072264101+1071182739+1070112722+1069243621+1068506482+1067964383
3827+1067782580+1067919877+1068236749+1069050067+1070792457+1072477712
3819+1072420443+1071147283+1070257179+1070020335+1069525307+1068476632
3810+1067377846+1066931780+1067798450+1069734394+1071290456+1071700053
3802+1071535539+1071451053+1071460103+1071514536+1071567280+1071221909
3793+1070312557+1069310683+1068700711+1068594885+1068967810+1069694684
3785+1070300468+1070263797+1069627960+1068813899+1068100397+1067549924
3776+1067181725+1067079006+1067411478+1068353651+1069697520+1070547239
3768+1070278114+1069635456+1069638563+1070135279+1070342340+1070047822
3759+1069511463+1068865360+1068246204+1067987952+1068337511+1069394831
3751+1070939817+1071898131+1071451661+1070109346+1068631556+1067337595
3742+1066186335+1065002658+1063586324+1062079630+1061346813+1062073755
3734+1063019643+1062739442+1062088139+1062228881+1063104871+1064258630
3725+1065419481+1066183768+1066084223+1065284479+1064572463+1064524243
3717+1064979831+1065426504+1065731895+1066322147+1067315984+1067766304
3708+1067024168+1065532871+1063877195+1062545888+1061980354+1062019862
3700+1061911874+1061545365+1061525239+1062231650+1063774070+1066292837
3691+1069519567+1072115525+1072371211+1070422503+1067844374+1065591558
3683+1064101815+1063703632+1064344467+1065544352+1066991819+1068707600
3674+1070063017+1070190117+1069453721+1068593399+1067856800+1067143906
3666+1066478084+1065896071+1065242608+1064340009+1063255811+1062413791
3657+1062526506+1063895497+1065544757+1066387385+1066713779+1067553908
3649+1068748593+1068421389+1066614166+1065191957+1064881636+1065153597
3640+1065336886+1065315342+1065154948+1064582323+1063357180+1061759787
3632+1060319073+1059445177+1059446123+1059974715+1060031309+1059586594
3623+1059479080+1060565709+1063141137+1066241713+1067977417+1067728012
3615+1066516578+1065359915+1064718473+1064728940+1065329930+1066064165
3606+1066117044+1065208570+1064007807+1063281069+1063006608+1062570606
3598+1061811113+1061122869+1060653369+1060253160+1060020774+1060299556
3589+1061282250+1062679336+1063627115+1063642851+1063211373+1062804545
3581+1062495237+1062360438+1062456608+1062463226+1062061396+1061574877
3572+1061567786+1062146016+1063284513+1065172710+1067151740+1067305854
3564+1065215797+1062745790+1061630998+1062032964+1062869986+1063175175
3555+1062909561+1062607682+1062633886+1062797792+1062760648+1062616462
3547+1062563920+1062250087+1061266380+1060228712+1060240126+1061434608
3538+1062757609+1063126685+1062524615+1061756207+1061416847+1061553266
3530+1061996563+1062525425+1062868163+1062929079+1062944139+1063164639
3521+1063399524+1063119729+1062160266+1061161431+1061012180+1061785450
3513+1062591204+1062602144+1061912212+1061275970+1061207422+1061560492
3504+1061902622+1061987581+1061831441+1061478235+1060925803+1060311037
3496+1059909274+1059843833+1059939597+1059964923+1059937774+1060088173
3488+1060525797+1061104162+1061664158+1062118868+1062228206+1061716767
3479+1060727252+1059775826+1059317942+1059515143+1060113026+1060534846
3471+1060474133+1060191839+1059903736+1059366837+1058456945+1057578929
3462+1057141643+1057133539+1057400841+1057906809+1058588300+1059189357
3454+1059361299+1059047129+1058716345+1058853508+1059194557+1058974259
3445+1058047213+1057141036+1056913039+1057288598+1057682189+1057631404
3437+1057241797+1057017177+1057233423+1057645788+1057882699+1057879863
3428+1057840018+1057947060+1058161684+1058230840+1057994131+1057633902
3420+1057431029+1057431231+1057584940+1057914981+1058303507+1058463766
3411+1058320728+1058129605+1058149596+1058416965+1058774492+1058963994
3403+1058820348+1058475314+1058187347+1057958878+1057535167+1056786480
3394+1055889351+1055131209+1054718776+1054738766+1055102304+1055513387
3386+1055665542+1055535606+1055422688+1055661828+1056262682+1056859012
3377+1057102001+1057035884+1056907366+1056766827+1056465218+1055922241
3369+1055284040+1054895244+1054962373+1055180239+1055131547+1055098928
3360+1055747124+1056873329+1057334319+1056501079+1055042536+1053953745
3352+1053514704+1053501872+1053757828+1054146827+1054392044+1054295402
3343+1053908227+1053418062+1053034398+1052845707+1052636418+1052128693
3335+1051479755+1051169501+1051387570+1051883071+1052341292+1052649857
3326+1052906826+1053320407+1053961715+1054550278+1054636317+1054110088
3318+1053445751+1053279143+1053785450+1054615583+1055293630+1055449567
3309+1054923676+1054015945+1053452302+1053743916+1054631049+1055301058
3301+1055144041+1054239011+1053115507+1052232562+1051845116+1052118766
3292+1052983950+1053958338+1054454581+1054298847+1053794634+1053298391
3284+1052930598+1052813020+1053273943+1054382387+1055476918+1055740776
3275+1055151740+1054361856+1053858792+1053735542+1053966982+1054368947
3267+1054509487+1054162359+1053775184+1054035800+1054911452+1055551544
3258+1055340161+1054624701+1054041878+1053526522+1052512289+1050939479
3250+1049574269+1049259558+1050065650+1051223664+1051877735+1051974782
3241+1052207776+1052889469+1053305955+1052712934+1051588688+1051074480
3233+1051427483+1051835391+1051560053+1050606399+1049447304+1048615482
3224+1048377153+1048432666+1048165837+1047422485+1046713913+1046452825
3216+1046475246+1046584382+1047000665+1047859096+1048728197+1049093288
3207+1049049323+1049115710+1049461486+1049644843+1049266717+1048684975
3199+1048708207+1049587236+1050689871+1051223866+1050947785+1050188225
3190+1049422181+1048827135+1048252079+1047716193+1047604356+1048048732
3182+1048526674+1048485208+1048024758+1047595373+1047304502+1046956902
3173+1046569862+1046387249+1046445599+1046520630+1046470924+1046327143
3165+1046148582+1046004666+1045904040+1045648084+1045026429+1044107893
3156+1043098387+1042160063+1041541785+1041445616+1041654702+1041734866
3148+1041493700+1040869546+1039770085+1038391571+1037169872+1036187718
3139+1035181994+1034166006+1033421168+1032913173+1032252213+1031253378
3131+1030205378+1029530844+1029359238+1029488905+1029669965+1029754113
3122+1029664427+1029496739+1029513285+1029689887+1029491876+1028403963
3114+1026376443+1023506700+1019794126+1015583013+1011841400+1009509434
3105+1008630811+1008488245+1008653232+1009533207+1011648589+1014788268
3097+1018208079+1021302036+1023763061+1025435957+1026386168+1027024166
3088+1027903600+1029271173+1030797453+1031819925+1031917512+1031293291
3080+1030625848+1030457552+1030645028+1030604439+1030164114+1029768835
3071+1029693534+1029556304+1028843478+1027540535+1026174582+1025456218
3063+1025732029+1026672649+1027733008+1028755142+1029734122+1030357803
3054+1030416288+1030345174+1030759769+1031657640+1032477778+1032827269
3046+1032880622+1033026766+1033292852+1033367005+1033155284+1032951128
3037+1032965513+1033088966+1033230653+1033520916+1034066595+1034728770
3029+1035249799+1035550530+1035837957+1036311509+1036836589+1037143061
3020+1037193779+1036992054+1036293207+1035028353+1033755328+1033153866
3012+1033269215+1033648354+1033962457+1034171138+1034269063+1034134535
3003+1033607901+1032685785+1031584905+1030506514+1029436430+1028299285
2995+1027084677+1025722304+1024130111+1022453229+1020906554+1019346103
2986+1017244092+1014049575+1009470197+1003515141+996303065+987841264+978163842
2976+967544044+956184946+943830322+930082529+914972363+898950549+882530281
2966+866141552+850247918+835574700+823145045+813914701+808439680+807007342
2956+809782874+816545440+826427086+838041127+849740869+859885089+867270661
2946+871448817+872531597+870797042+866600921+860412331+852682131+843850038
2936+834701614+826444172+820155969+816386396+815444493+817665634+823092436
2927+831132011+840735145+850889023+860962602+870661230+879740026+887932635
2917+895190363+901741411+907860036+913735469+919415997+924665655+929126848
2907+932819904+936159620+939357445+942196325+944475141+946350777+948205814
2897+950378196+952943020+955599354+957834949+959239801+959596045+958740383
2887+956504789+952772496+947465096+940445493+931492987+920482569+907779129
2877+894664675+883360955+876257272+874665687+878073545+884470749+891395736
2867+896987726+900634251+903010249+905464385+909140017+914436274+921047765
2857+928353714+935803916+943074138+949964074+956250860+961743980+966495166
2847+970826558+975041183+979125398+982767196+985655443+987805606+989582033
2837+991317940+993032775+994674066+996366548+998126294+999637581+1000688755
2827+1001556100+1002648741+1003994703+1005296903+1006295671+1006906115
2819+1007157208+1007170580+1007170715+1007371968+1007828771+1008460691
2810+1009196547+1010010405+1010869039+1011694850+1012320692+1012512828
2802+1012166376+1011458952+1010724380+1010222261+1010042281+1010134196
2793+1010359896+1010547980+1010596064+1010601602+1010838378+1011503188
2785+1012509046+1013544350+1014283042+1014602413+1014660560+1014698919
2776+1014768075+1014759836+1014620715+1014400687+1014178093+1014020536
2768+1014004395+1014285406+1015035917+1016106608+1016929516+1017073972
2759+1016723941+1016341831+1016108162+1015906301+1015605097+1015188882
2751+1014743762+1014356520+1013975017+1013471142+1012869815+1012327649
2742+1011828299+1011130667+1010171340+1009331954+1009068569+1009351201
2734+1009708323+1009809490+1009729192+1009638425+1009601079+1009719737
2725+1010096782+1010567295+1010832367+1010894904+1011020383+1011287347
2717+1011504268+1011511022+1011319629+1011048748+1010870997+1010899632
2708+1011055569+1011163354+1011165515+1011135395+1011133706+1011164232
2700+1011214478+1011247434+1011235481+1011290927+1011614754+1012183327
2691+1012678625+1012883930+1012867182+1012626151+1011957965+1010905440
2683+1009936793+1009422990+1009266310+1009219441+1009244767+1009392667
2674+1009624918+1009951583+1010512119+1011332393+1012188663+1012837534
2666+1013235515+1013468509+1013622555+1013735608+1013774507+1013698666
2657+1013579063+1013579738+1013838868+1014393596+1015056785+1015380613
2649+1015039361+1014288715+1013740200+1013673206+1013819215+1013762419
2640+1013321486+1012588737+1011774744+1011012752+1010314851+1009805911
2632+1009817189+1010480715+1011404249+1012086213+1012490947+1012834427
2623+1013046215+1012937552+1012764327+1013064720+1013908833+1014787660
2615+1015350695+1015774609+1016246607+1016626016+1016855431+1017156905
2606+1017562719+1017769037+1017594055+1017102472+1016256265+1014971016
2598+1013597770+1012927760+1013452638+1014741736+1015844710+1016320693
2589+1016502225+1016718944+1016824500+1016672817+1016519717+1016682272
2581+1017103147+1017471818+1017675570+1017938684+1018410885+1018859382
2572+1019079679+1019288361+1019630085+1019745164+1019473540+1019455779
2564+1020210341+1021058102+1020842059+1019438152+1017717846+1016312791
2555+1015250609+1014549736+1014335044+1014458159+1014541429+1014292632
2547+1013552319+1012382081+1011272827+1010841417+1011178482+1011813914
2538+1012312723+1012645668+1013072959+1013836639+1014872416+1015843021
2530+1016554767+1017113075+1017555628+1017727368+1017614856+1017319055
2521+1016721307+1015750026+1014858301+1014624429+1015014846+1015500891
2513+1015705926+1015649062+1015616578+1015940001+1016641752+1017316083
2504+1017581359+1017482961+1017209919+1016701925+1015880908+1015057325
2496+1014753690+1015187464+1016071828+1016798499+1016818759+1016130583
2487+1015435721+1015570182+1016768311+1018516576+1019889688+1020075070
2479+1019050437+1017755260+1017141034+1017150894+1017036288+1016468661
2470+1015907247+1015946484+1016527551+1016895614+1016478116+1015687557
2462+1015402224+1015740639+1015962760+1015559782+1014791442+1014110964
2453+1013700287+1013607697+1013770725+1013869528+1013672936+1013482961
2445+1013737971+1014302289+1014659614+1014624834+1014384681+1014056802
2436+1013662670+1013359778+1013331819+1013564813+1013886682+1014089083
2428+1013979272+1013529290+1012963553+1012503238+1012103772+1011697214
2419+1011532227+1011881583+1012514584+1012889738+1012856849+1012780872
2411+1012973143+1013327429+1013585884+1013749385+1014084085+1014696151
2402+1015229403+1015155723+1014358883+1013250305+1012332849+1011848019
2394+1011817696+1012173602+1012752913+1013240715+1013104633+1011649332
2385+1008451979+1003822220+998477338+992696386+986178835+978741532+970690408
2376+962464168+954302422+946182683+937813877+928986849+919969239+911216162
2366+903173277+896836044+893411370+892763444+893499435+895180301+898980196
2356+905705821+914769557+925003936+934754160+941675769+943753198+940416589
2346+933251787+925919028+921648214+920590152+920999748+921730134+922847019
2336+924668154+926830878+928656403+930173430+932030494+934349290+936500399
2326+938196257+940038868+942736533+946294926+950385287+954951429+959719701
2316+963779199+966489696+968353648+970407709+973141370+976456976+980222158
2306+984238569+987842345+990195044+991231023+991926223+993298253+995412893
2296+997558194+999032066+999612323+999688974+1000025769+1001070392+1002569118
2286+1004007197+1005061208+1005523076+1005397327+1005156431+1005241863
2278+1005337424+1004786883+1003618063+1002568983+1002202270+1002386640
2269+1002600251+1002555881+1002479770+1002785363+1003556067+1004358174
2261+1004476562+1003445985+1001445479+998992424+996415510+993953541+991923724
2251+990342336+989012785+988263422+988672546+989871824+990653063+990451472
2241+989774574+988980571+987427008+984168131+978879505+971449293+960989214
2231+945878170+924432729+895279171+858132097+814656230+767660939+719599953
2221+672720956+630097443+595787222+574473135+570838024+587917698+624971305
2211+676539626+733738703+787606709+832698541+868004423+894765234+914317819
2201+927792164+936463525+941861489+945511863+948381336+950857420+953292647
2191+955941889+958644485+961188779+963439771+964920870+965350794+965598511
2181+966987290+969832383+973188036+975517503+975553094+973212754+969767752
2172+966927792+965851765+966695406+968762501+971164568+973246521+974732618
2162+976015908+977570484+978546560+977725814+976247551+976668764+979878813
2152+984450628+988239177+990028841+989965629+988839964+987249122+985457499
2142+983381084+980691185+977826643+976638171+978753553+983328542+987623668
2132+989852509+990335178+990048899+989347824+988179274+986731605+985605265
2122+985435753+986148107+986755647+986539740+986175121+986726540+987886445
2112+988332645+987544990+986219829+985188847+984701789+984462244+984053052
2102+983503929+983215895+983225417+983177738+983090618+983332729+983829783
2092+984114846+984079796+984002469+983988759+983975253+984091682+984405717
2082+984537410+984266664+984247957+985135833+986272100+986441815+985736755
2072+985338436+985705081+986332881+987039292+988161783+989533611+990298912
2062+989838056+988169887+985584127+982714316+980774320+980596705+981166696
2053+980265043+977286434+974577356+975151602+979350086+984700438+988976451
2043+992174885+995148226+997225046+996459880+992547878+988170562+986305395
2033+987093050+988614196+989526655+989364437+988021784+986799410+988033535
2023+991810604+994708981+993609655+989410563+985574334+984396735+985859600
2013+988542542+990402375+990187345+988877243+988265854+988127543+986749232
2003+984022459+981942937+982196732+984402476+986609098+987213194+986405954
1993+985615192+985723180+986331463+986676159+986140678+983854163+979333607
1983+973995681+970886461+972263557+977823333+985106388+991005930+993409753
1973+992368371+989603171+986535080+983486708+981074984+980762097+982861541
1963+985539959+986957981+987239397+987515208+987796691+986892202+984169887
1953+980586912+978018238+977905793+980219727+983383988+985636196+986508944
1943+986483754+985818539+984765068+984121262+984409837+985167641+985609722
1934+985457635+984845434+984050148+983464354+983221770+982965139+982528866
1924+982405346+982829260+983004309+982231512+981163522+980940860+981373351
1914+981355792+980695440+980255656+980397410+980353783+979741786+979379261
1904+979785345+980154894+979629881+978635706+978172757+978485779+978952578
1894+978899968+978233673+977219035+975975387+974686762+974023573+974430266
1884+975238789+975315575+974489493+973515106+972895815+972581374+972437931
1874+972427193+972613588+973105239+973537257+972896287+970948255+969030073
1864+968278347+968508099+968896017+969022374+969078563+969337017+969858046
1854+970566685+971292613+971873275+972355134+972985298+974049304+975648723
1844+977231799+977727840+977036557+976169076+975841804+975876449+975636297
1834+974902602+974122984+973848726+974184845+974797653+975434368+975987543
1824+976146047+975684111+974874643+974175323+973876348+974000544+974260349
1815+974372794+974395823+974416624+974192882+973599524+973021159+972784855
1805+972779723+972841517+973007449+973231934+973273468+973019200+972601837
1795+972243094+972039072+971613943+970412572+968707393+967278364+966441003
1785+965922339+965433389+964989012+964487028+963652977+962644890+962054638
1775+962265954+963029229+963406544+962683992+961304263+959933785+958689935
1765+957584598+956852254+956556926+956284694+955749619+955130260+954488345
1755+953727231+953095919+953016160+953401512+953474720+952726302+951456519
1745+950081179+948843880+947963905+947484275+947002619+946151617+945343027
1735+945429741+946405142+946744435+945860881+944634590+943576392+942680277
1725+941970355+941550965+941395906+941503084+942197541+943892386+945959279
1715+946686828+945864461+944763311+944340613+944768241+945852237+947431396
1706+949104293+950257782+951070154+952489932+954577693+955826000+955795880
1696+955341710+954810619+954364284+954491316+955376153+956513636+957669894
1686+959675128+962831353+964829360+964390994+962954400+961706093+961139006
1676+961330601+961815701+962128454+962568103+963558564+964432663+964137537
1666+963021462+962166881+962143311+962439045+962242519+961612693+961139344
1656+961507474+963433490+965896338+965633831+963524864+962025328+961737294
1646+961631737+960513907+958794816+957282787+956351081+956128960+956508504
1636+956537071+954602140+950961964+947077920+943497107+940027658+936182176
1626+931474212+925089164+915496498+902193622+886250350+866169849+836552329
1616+796686789+758657443+731646688+714832761+707370133+710276817+722704919
1606+741104893+761883498+782833844+802369546+819181041+833026961+844773100
1596+855360279+865065187+873545493+880443127+885888028+890344764+894212531
1587+897717909+900936603+903797904+906199700+908148881+909882559+911971063
1577+914786103+917200731+917888097+917555287+917621268+918779147+920501479
1567+922147970+923763462+925211807+926263049+927789125+932081550+938406560
1557+941228421+941077481+940811328+941322294+942381167+943447672+944179948
1547+944831588+945934562+947553633+949354508+951425115+953363558+953693194
1537+952789582+952012463+951959178+952174546+951878339+951232980+950801907
1527+950584514+950107788+949146839+947559509+944618044+938959465+927685595
1517+906285537+873856151+837130424+805043709+784105046+778696277+792666731
1507+827783719+866246973+887158284+896235392+902210438+907941145+913480256
1497+917562040+918509279+916122475+910759494+899942630+876285637+831560112
1487+768236333+699232497+638241697+597572293+586530472+605225842+643180966
1477+687760954+729913077+763248911+782439848+784772962+774891654+760574207
1468+745680219+730962293+717015341+705194307+695974499+688380583+680753441
1458+671423214+661522388+654824925+652681110+655481360+664445821+680656056
1448+702689385+725484503+744399157+758717144+769476671+777554944+784736088
1438+794245890+807703757+821651452+832825506+842284386+851628593+860411588
1428+867353458+872570632+877028651+880939236+884002465+886694120+889865539
1418+892954904+894579716+894789411+894282970+893191275+891059009+887251212
1408+881232943+872104442+858469229+840181632+818823446+795406267+771035975
1398+749915577+737867829+737866816+748203713+763482175+778921437+792627291
1388+803409577+809128802+808568536+803396070+796884530+792262672+791621770
1378+794927313+800107546+804055679+804015564+799730568+793978723+790198345
1368+790404596+794162350+799043540+802216107+801290209+795620419+787090746
1358+777929895+769246986+761655840+755597118+751002679+747272074+743349536
1349+737005347+723684777+697142305+653336465+594465572+529998366+476360551
1339+451539635+461246029+494967079+538443148+582803852+624531048+662564040
1329+696339793+725350988+749307564+768336824+783089935+794443631+802979990
1319+808797140+811729961+811614679+808288876+801529079+791262959+777766124
1309+761546299+743398769+724708667+707365338+693380026+684696915+682835867
1299+688175751+699444893+713637739+726447478+733731477+733600866+727424094
1289+718842419+711829908+709380770+713285614+724201686+741303174+762097042
1279+783278964+802085023+817032701+827914060+835358319+840102279+842311535
1269+841422984+836629859+827737930+815894475+803614004+793863037+788622158
1259+787849901+789812926+792478242+794372922+794302686+790840531+782521970
1249+768891012+751634870+734553912+722026062+717032832+720079043+729520499
1239+742773535+757376990+771407144+783534447+792988465+799355549+802412227
1230+802417765+800682196+799544105+801165811+805854055+811691466+816189060
1220+818294178+818798931+819208325+820423743+822166538+823247157+822255616
1210+817958329+809088147+794182812+772387272+744905193+715493249+689048499
1200+669480989+658614015+656239367+660591965+669264406+680456829+693429664
1190+707707130+722230624+735611502+747075482+756884190+765794556+774343071
1180+782735244+791067919+799295646+807098986+814065776+819965994+824690099
1170+828013741+829653141+829616335+828380926+826614224+824658020+822152153
1160+818019853+810975060+800590282+788426781+778125408+773733775+777153721
1150+786869098+799172733+810586872+819154837+824001180+824522546+820559825
1140+813324788+805587632+800294211+798810073+800614594+804429212+809167837
1130+813954209+817904639+820235727+820454741+818379676+814080093+807766294
1120+799547279+789249351+776623913+761915510+746392910+732398954+722605913
1111+718771980+721099354+728788763+740727915+755297535+770116965+782723628
1101+791472789+795651688+795075889+789856621+780550368+768623035+756860081
1091+748954966+747986049+754643936+766664873+780187168+792041091+801051070
1081+807557815+812273411+815788446+818625637+821079840+822971751+823928377
1071+823983486+823673300+823505544+823602929+823939791+824606491+825570411
1061+826409324+826640292+826195037+825317900+824240387+823255599+822818178
1051+823235541+824406522+825972917+827558491+828881222+829823395+830384607
1041+830502455+829954277+828364448+825243949+820254636+813672050+806507114
1031+800052910+795368110+793144740+793707032+796831448+801712975+807370002
1021+813021288+818079958+822194024+825450335+828193856+830537843+832292456
1011+833333298+833783955+833853989+833648954+833180467+832561716+832131319
1001+832284892+833192218+834694388+836372079+837717502+838421819+838549999
992+838341588+837865402+837022707+835880226+834784884+834033428+833618563
982+833445540+833583108+834139322+835069002+836184536+837227741+837987977
972+838471524+838871396+839349405+839979164+840808960+841808336+842829930
962+843722195+844420299+844946258+845369159+845684748+845722162+845256309
952+844153876+842317816+839639736+836204661+832487428+829171688+826687094
942+824834488+822751319+819453880+815000251+811230746+810624826+814010263
932+819898189+826192471+831778114+836299210+839482043+841337418+842424250
922+843297336+843834168+843410726+841674887+838904218+835606036+832010162
912+828022656+823438820+818098125+811955999+805111716+797807726+790349623
902+782777521+774551415+764841306+753255495+740107273+726062666+711796411
892+697925435+685048567+673823389+665016284+659431858+657765917+660403746
882+667242964+677780302+691345685+707036580+723543224+739473462+753895384
873+766334089+776457778+784139894+789724456+793976562+797759979+801656449
863+805666647+809341536+812358302+814900840+817431762+820262538+823388169
853+826582956+829586147+832236267+834462880+836265578+837767410+839144775
843+840447043+841651048+842869843+844294753+845962517+847647097+848840026
833+848923769+847650609+845319656+842215501+838139457+832780933+826249605
823+818891993+810684122+800987858+788836512+773364159+754067395+730966750
813+704748174+676625395+647895684+619661473+592901270+568627687+548096426
803+533052984+525673187+528026291+541064601+563254610+589823791+613812649
793+628819488+632421777+628520040+625884033+632541111+650490764+675420512
783+700779510+721855740+736942877+746217523+750393248+750070096+745441620
773+736119699+721220376+699750487+671326707+637031951+599680652+563369992
764+533443773+516804355+520221634+545922559+588268067+635809037+677590868
754+708136109+727561594+738479084+743401335+744070332+741642129+736798151
744+729769634+720316156+707681940+690868351+669366721+643695984+615116470
734+585029315+554834376+525905269+499219928+475396665+455385487+440577842
724+432143561+430881747+437617265+452974911+476559102+506658042+540666755
714+575595761+608647747+637808801+661979529+680978263+695711925+707601979
704+717322623+724619994+729503278+732830770+735518845+737834805+739615892
694+740734196+741314114+741731545+742328482+743060624+743577533+743626495
684+743176986+742241633+740869400+739405049+738558572+739037729+741140078
674+744342698+746845864+746511366+743637301+743522897+751331640+761606810
664+767590635+769442161+769965756+770993766+772410369+773322220+773451008
654+773212611+772916202+772486075+772127332+772583325+774234678+776443259
645+778216512+779201570+779769129+780251663+780323655+779296118+776913771
635+773374154+767688493+755431929+729445671+686111289+633201733+589824467
625+574013495+588319663+619541937+651814238+677279264+695823559+709564531
615+720156978+729100367+737357606+744617159+750251966+754688036+758997345
605+763549844+767657494+770278846+770725181+768964692+765766461+762482462
595+760155493+758784341+757914564+757823730+759317998+762498535+766589909
585+770788461+774728558+778217187+780981238+782820000+783655672+783377767
575+782190511+781046004+780981441+782060237+783486363+784690097+785832646
565+787113572+788097820+788249165+787934319+788014415+788280703+787595093
555+786047270+785399817+786588627+788194462+788308865+786956690+785599990
545+784798220+783627712+781430613+779102902+778271890+779739212+782868895
535+786129865+788249232+789079231+789343156+789885661+791317594+793523001
526+795116139+794637252+792392338+789727292+787413831+785842506+785636458
516+786643465+787139371+785328366+781080649+775432267+768863390+761321274
506+753637200+746986876+740839144+732988395+721687917+706602333+688774714
496+671783780+661654215+663331096+676853797+697310061+718805748+737645979
486+751996720+761407718+767536000+772991571+778589707+782913198+784479322
476+783558017+781710408+780316632+779976663+780692258+781942389+782516703
466+781041614+777093616+771304357+764614931+757893426+751535392+745133257
456+738682633+734059290+733755182+738198006+744736560+750343475+754602133
446+758701138+762631105+764724877+764332907+763564837+764775528+767977675
436+771556666+773925911+773743567+769297772+759330830+744570965+726285800
426+703096010+672993863+639983276+613376646+601093609+609243738+636895194
416+670019104+697322555+716101397+727227974+733871274+738789540+741991148
407+743615690+746429514+752914851+761924154+769754710+773667051+775360343
397+779429026+785144402+788308865+788933965+789810089+790732408+788250448
387+781619439+776391662+778978436+788348035+798771308+806606997+809772271
377+804934843+790414523+774612669
##END=
