##TITLE=X7790
##JCAMP-DX=4.24
##DATA TYPE=INFRARED SPECTRUM
##DATE=30/10/2018
##SAMPLING PROCEDURE=Diamant-ATR
##ORIGIN=ComPlat
##XUNITS=1/CM
##YUNITS=TRANSMITTANCE
##RESOLUTION=4
##FIRSTX=3997.453
##LASTX=373.96442
##DELTAX=-1.4165319
##MAXY=0.88142878
##MINY=0.31493559
##XFACTOR=1
##YFACTOR=8.2089452e-010
##NPOINTS=2559
##FIRSTY=0.87992996
##XYDATA=(X++(Y..Y))
3997+1071915987+1072601130+1073240891+1073091751+1072438485+1071993244
3989+1071962966+1072151823+1072532369+1073122392+1073627245+1073741823
3980+1073516298+1073087612+1072479509+1071880627+1071593674+1071593021
3972+1071589390+1071519540+1071549818+1071713407+1071853180+1071825298
3963+1071638257+1071478008+1071559693+1071872930+1072128007+1071956649
3955+1071197663+1070121374+1069338500+1069342784+1070116654+1071138559
3946+1071770478+1071776214+1071527382+1071571020+1071855213+1071821087
3938+1071307448+1070664347+1070136840+1069710550+1069442476+1069453585
3929+1069642370+1069758327+1069624072+1069225665+1068841706+1068825805
3921+1069107820+1069259936+1069049006+1068754284+1068833574+1069390343
3912+1070218525+1071111475+1071838368+1071974148+1071119317+1069437539
3904+1067847393+1067241904+1067605023+1068454626+1069429697+1070216274
3895+1070566978+1070420379+1069977462+1069744313+1070078244+1070647138
3887+1070704790+1069643604+1067701013+1065924043+1065132020+1065627724
3878+1067040195+1068490059+1069253982+1068977340+1067866853+1066715921
3870+1066502087+1067581135+1069078994+1069881400+1069670687+1068963327
3861+1068389640+1068110530+1068130207+1068439668+1068679715+1068000018
3853+1066425484+1066132432+1067720545+1069818593+1071340413+1071765976
3844+1071022674+1069542387+1068137395+1067353069+1067093926+1067124712
3836+1067475851+1068000018+1068193087+1067791121+1067212352+1067137274
3827+1067800342+1068855066+1069749106+1070095452+1069649486+1068576246
3819+1067762513+1067916445+1069024682+1070403970+1071128902+1070861627
3810+1069802691+1068397845+1067414278+1067568065+1068328576+1068202744
3802+1066528008+1064754161+1064894370+1066709314+1068738238+1069995687
3793+1070443469+1070579612+1070732019+1070834689+1070639587+1070054210
3785+1069350262+1068942198+1068823191+1068588009+1068167673+1067987820
3776+1068089255+1068043221+1067787200+1067673131+1067817696+1067881302
3768+1067653018+1067455956+1067756632+1068577553+1069292393+1069062511
3759+1067602264+1065824568+1065086494+1065586845+1066415899+1066415609
3751+1064982590+1063009357+1061848987+1061658460+1061811012+1061599937
3742+1061245167+1061322859+1061456533+1060780830+1058968790+1056901238
3734+1055970822+1056710566+1058751906+1061272396+1063330000+1064304128
3725+1064197900+1063570846+1063002968+1062750215+1062911044+1063545578
3717+1064470113+1065138482+1064958774+1063859396+1062773014+1062976465
3708+1064386322+1065897033+1066687676+1066490687+1065519173+1064419214
3700+1063861864+1064043606+1064794096+1065786013+1066669088+1067297159
3691+1067694478+1067724175+1067140831+1066185292+1065343241+1064725988
3683+1064232463+1063862953+1063845237+1064352704+1064988834+1065018459
3674+1064667611+1064737751+1064717929+1063790054+1062998684+1064036708
3666+1066214989+1067748717+1067806151+1066864262+1065850635+1065145598
3657+1064696073+1064598269+1064852256+1064953401+1064426983+1063345176
3649+1062232873+1061446804+1061113817+1061355897+1061945848+1062546182
3640+1063242579+1064316689+1065459779+1065839236+1065111617+1063869561
3632+1062680727+1061117230+1058716691+1057057058+1057772406+1059845767
3623+1061799613+1063015602+1063438915+1063313373+1063108034+1063037457
3615+1062871545+1062553153+1062429499+1062691691+1063243305+1064082452
3606+1065002993+1065401691+1065013739+1064112221+1063008631+1061964436
3598+1061398954+1061492257+1061731941+1061469530+1060702630+1059720515
3589+1058623097+1057809727+1058266730+1060211863+1062422891+1063642366
3581+1063626610+1063164015+1063017272+1063000935+1062783034+1062832408
3572+1063551750+1064317270+1064282418+1063498817+1062788407+1062556638
3564+1062407498+1062130421+1062049607+1062629683+1063905212+1065216901
3555+1065695106+1065013449+1063722236+1062792255+1062616831+1062714926
3547+1062397551+1061501696+1060660589+1060788454+1062165056+1064043025
3538+1065219006+1065159684+1064402441+1063681503+1063151817+1062659235
3530+1062101159+1061376808+1060467230+1059672085+1059462897+1060023877
3521+1060973899+1061631377+1061658823+1061416961+1061509465+1061926461
3513+1061968575+1061191582+1060132065+1059730681+1060121682+1060545648
3504+1060416622+1059939578+1059657273+1059714416+1059861523+1059898771
3496+1059850341+1059898045+1060204167+1060652529+1060853222+1060591175
3488+1060196833+1060216438+1060730657+1061271597+1061406941+1061161086
3479+1060764203+1060361511+1060237567+1060740968+1061554120+1061745882
3471+1061037069+1060167354+1059695030+1059381357+1058974309+1058655554
3462+1058556732+1058587156+1058753141+1059164110+1059811858+1060499614
3454+1060935488+1061042660+1061165878+1061587811+1061889067+1061334259
3445+1059926726+1058516724+1057899908+1058173427+1058736150+1058882676
3437+1058592020+1058550996+1059192427+1060060182+1060420906+1060173235
3428+1059852229+1059958021+1060398614+1060479501+1059630915+1058263608
3420+1057476377+1057782571+1058686267+1059492667+1059899933+1059871470
3411+1059472990+1058943305+1058704783+1059126425+1060138528+1061104959
3403+1061293453+1060561332+1059474515+1058709357+1058388787+1058083537
3394+1057493586+1056880545+1056662644+1056875244+1057256661+1057561040
3386+1057629801+1057486978+1057502952+1058139228+1059321817+1060295146
3377+1060382060+1059769890+1059199325+1059038859+1059026442+1058780587
3369+1058260341+1057797165+1057700087+1057796657+1057735157+1057798981
3360+1058632464+1060010953+1060819095+1060465633+1059484172+1058630068
3352+1058171467+1058067853+1058176041+1058287497+1058332514+1058410207
3343+1058474974+1058309134+1057894607+1057448350+1057039051+1056544871
3335+1056013443+1055739053+1055966247+1056660320+1057532141+1058269272
3326+1058776884+1059120471+1059270337+1059087797+1058527616+1057744959
3318+1057063085+1056809533+1057059962+1057587687+1058054856+1058107643
3309+1057514279+1056517570+1055807451+1055848620+1056450697+1057062359
3301+1057244899+1056898189+1056264381+1055692655+1055337668+1055180977
3292+1055262154+1055647855+1056190901+1056564258+1056572971+1056259299
3284+1055780222+1055457691+1055764103+1056760884+1057683314+1057712648
3275+1057060834+1056625468+1056737649+1057007974+1057180204+1057301752
3267+1057223624+1056780634+1056428987+1056889984+1058044836+1058874253
3258+1058661580+1057697110+1056633745+1055691711+1054737479+1053743674
3250+1052918904+1052547725+1052751249+1053252544+1053517351+1053437408
3241+1053566798+1054200968+1054657100+1054153990+1052996741+1052128987
3233+1051963655+1052280377+1052742754+1053026003+1052971110+1052886230
3224+1053177902+1053633090+1053664748+1053258789+1053062090+1053440312
3216+1054031715+1054406380+1054599303+1054700884+1054474488+1053808950
3207+1053139782+1052967988+1053205784+1053325517+1053057370+1052708627
3199+1052741302+1053216094+1053800963+1054167785+1054196757+1053973483
3190+1053670992+1053236570+1052394374+1051313583+1050845471+1051525457
3182+1052768603+1053562949+1053563966+1053134409+1052683504+1052349283
3173+1052101250+1051828965+1051437092+1051066639+1051043113+1051423877
3165+1051862002+1052067051+1052053473+1051903898+1051693911+1051496777
3156+1051093359+1050131139+1048876958+1048147233+1048256293+1048712279
3148+1048954940+1048772473+1048197769+1047495201+1046965588+1046539879
3139+1045959440+1045333692+1045000488+1044879738+1044445026+1043404316
3131+1042123704+1041205268+1040762714+1040266864+1039110052+1037175012
3122+1034812375+1032440226+1030237548+1028117136+1025920339+1023618259
3114+1021305723+1019077704+1017015670+1015265130+1014058507+1013574348
3105+1013716082+1014128430+1014564159+1015096095+1015818559+1016641731
3097+1017585218+1018862998+1020357081+1021423350+1021588972+1021130807
3088+1020671189+1020426859+1020069911+1019168465+1017588267+1015600005
3080+1013765964+1012603052+1012170228+1012059498+1011826277+1011193995
3071+1009845638+1007469424+1004174773+1000548225+997257422+994694601+992691309
3061+990450365+987239433+983288684+979563096+976749047+975062839+974878412
3051+976734162+980518345+985107767+989160387+992154290+994379259+996185562
3041+997793570+999575041+1001720794+1003756906+1005122253+1006020576+1007034276
3031+1008223109+1009134865+1009369248+1008839781+1007849243+1007006975
3023+1006851082+1007685219+1009687713+1012628829+1015615543+1017846321
3014+1019524397+1021412894+1023728915+1026046244+1027962986+1029342710
3006+1030165519+1030538006+1030678069+1030705007+1030578231+1030270948
2997+1029877478+1029554947+1029405590+1029392447+1029351496+1029088577
2989+1028450413+1027336440+1025636219+1023145354+1019702072+1015428283
2980+1010559098+1005035775+998679913+991660183+984207701+975963414+966222502
2970+954777085+942060640+928582306+914611244+900406961+886491881+873524281
2961+861956081+852029943+844077109+838556545+835825561+836022551+838976663
2951+844029841+850124237+856174631+861237321+864449124+865149732+863155515
2941+858769691+852503791+844889318+836553761+828194388+820264499+812977857
2931+806900524+803155405+802660209+805411524+810648113+817440139+825069498
2921+833087316+841132944+848790838+855742243+861965811+867729035+873469460
2911+879522324+885772757+891786702+897375083+902697642+907814207+912532655
2901+916659482+920120190+922982598+925565967+928329770+931476153+934785398
2891+937867812+940459095+942481484+943955891+944878465+945112921+944407884
2881+942493247+939057153+933671788+926016363+916375144+905923168+896490265
2871+889868362+886914467+886994555+888295062+888837382+887480312+884371614
2861+880679354+877810921+876726136+877803079+881082336+886469735+893727188
2851+902348826+911597737+920823049+929733528+938287566+946381843+953738988
2842+960099498+965506936+970302205+974728328+978655261+981839836+984325909
2832+986413792+988346799+990196958+991981624+993722870+995361591+996753876
2822+997822904+998610498+999174455+999607643+1000138345+1000978145+1002087616
2812+1003274925+1004446477+1005611930+1006732947+1007679846+1008301309
2803+1008528432+1008454878+1008298478+1008267183+1008468892+1008893294
2795+1009433725+1009927542+1010214639+1010261109+1010290516+1010674039
2786+1011574177+1012771579+1013894047+1014714969+1015186059+1015328809
2778+1015245816+1015208930+1015543587+1016292262+1017114128+1017649985
2769+1017880375+1018066400+1018493852+1019282607+1020249111+1020979779
2761+1021203053+1021041497+1020796295+1020629148+1020518637+1020367682
2752+1020079858+1019640354+1019180664+1018922029+1019015405+1019417661
2744+1019894414+1020140124+1019941537+1019344688+1018721192+1018500459
2735+1018711752+1018933864+1018781603+1018234999+1017481459+1016758197
2727+1016343815+1016355142+1016584588+1016805901+1017081454+1017540055
2718+1018095734+1018598191+1019039947+1019480177+1019927088+1020354322
2710+1020747865+1021146127+1021614458+1022081989+1022269903+1021962983
2701+1021305940+1020670826+1020250926+1019960997+1019706501+1019514812
2693+1019367488+1019173185+1018966030+1018821175+1018545041+1017846248
2684+1016879019+1016195910+1016038057+1016068480+1015936694+1015728814
2676+1015658092+1015667313+1015630283+1015686410+1016060130+1016695172
2667+1017306833+1017716713+1017992919+1018292869+1018618885+1018782619
2659+1018668041+1018423638+1018321695+1018587953+1019351514+1020422139
2650+1021179455+1021171105+1020741983+1020584929+1020839933+1021132912
2642+1021259325+1021322423+1021362213+1021265207+1020966128+1020557483
2633+1020315766+1020612448+1021531465+1022600203+1023198214+1023192260
2625+1022828487+1022168903+1021156583+1020165029+1019857528+1020392151
2616+1021238777+1021876287+1022243328+1022446852+1022503850+1022521421
2608+1022715143+1023077827+1023351710+1023416042+1023371387+1023192913
2599+1022678911+1021876214+1021256711+1021255259+1021774561+1022338664
2591+1022636217+1022693215+1022605067+1022391741+1022116261+1021930236
2582+1021970679+1022229169+1022502035+1022587423+1022560267+1022614507
2574+1022712747+1022764445+1022918232+1023208088+1023313808+1023220868
2565+1023575129+1024754233+1026067519+1026484296+1025813676+1024657517
2557+1023545286+1022670271+1022225466+1022371265+1022907921+1023383222
2548+1023481898+1023135769+1022559178+1022294517+1022793344+1023848213
2540+1024781969+1025120692+1024859226+1024353429+1024146710+1024569805
2531+1025432695+1026296746+1026883793+1027060742+1026789546+1026232124
2523+1025560197+1024668917+1023499107+1022542914+1022479961+1023279826
2514+1024138795+1024428870+1024360762+1024568498+1025294156+1026131560
2506+1026499544+1026265815+1025748037+1025101814+1024144677+1022993818
2497+1022282609+1022333218+1022661412+1022694958+1022462535+1022287619
2489+1022320802+1022597443+1023166483+1024051374+1025216028+1026400142
2480+1027010061+1026649120+1025771853+1025234834+1025206299+1025128316
2472+1024746028+1024540688+1025004662+1025940597+1026692032+1026921114
2463+1026976515+1027344572+1027860607+1027884641+1027246767+1026433252
2455+1025786085+1025268597+1025076836+1025601148+1026611944+1027262161
2446+1027043606+1026177957+1025132818+1024269347+1023815756+1023739008
2438+1023706189+1023441673+1023109267+1023152978+1023725793+1024439616
2429+1024777831+1024589918+1024119046+1023715192+1023523504+1023368047
2421+1023129525+1023141941+1023707931+1024384143+1024434025+1023827737
2412+1023161691+1022849253+1022884323+1023134390+1023532144+1024118029
2404+1024874256+1025467039+1025431823+1024741381+1023878563+1023258842
2395+1022876264+1022610731+1022553805+1022805106+1023157843+1023179698
2387+1022429571+1020593715+1017778068+1014637640+1011803841+1009274493
2378+1006673334+1003805119+1000618293+997032406+993129071+989202137+985505594
2368+982047935+978517884+974758388+971587827+970197430+970457952+971198931
2359+972199271+974209316+977173885+980161398+982800168+985385715+987795984
2349+989262185+989016548+987033585+984450144+982718628+982116551+981903515
2339+981641032+981731939+982652480+983996190+984871714+985179432+985606956
2329+986315624+986740897+986740026+986872901+987612500+989030997+991146399
2319+993851461+996535758+998416123+999267686+999512452+999721567+1000304693
2309+1001534986+1003465960+1005720118+1007640056+1008879861+1009732077
2300+1010719928+1012022105+1013453453+1014720415+1015452753+1015358651
2292+1014726223+1014420393+1015032199+1016328640+1017701175+1018737383
2283+1019282244+1019483227+1019779255+1020367900+1020903104+1021110766
2275+1021180834+1021158761+1020693408+1019777295+1018965377+1018594996
2266+1018534513+1018776738+1019462533+1020250926+1020415532+1019720660
2258+1018643935+1017619925+1016605064+1015544604+1014648604+1014033312
2249+1013775476+1014358384+1016118000+1018177202+1019033485+1018483759
2241+1017918204+1018317411+1018931323+1018563920+1017353666+1016368575
2232+1016141308+1016635342+1017899036+1019656037+1021064877+1021810140
2224+1022520695+1023559155+1024339560+1024139667+1022910680+1021242843
2215+1019894196+1019378815+1019953300+1021657370+1024047090+1026314390
2207+1027911724+1028559109+1027891466+1025934280+1023485747+1021372015
2198+1019897681+1019127005+1019061294+1019643912+1020686945+1021430756
2190+1020813939+1018848839+1016894557+1016141671+1016710638+1018138937
2181+1019743532+1020944128+1021885073+1023092494+1024166242+1023726374
2173+1021401349+1019099051+1019041835+1020897513+1022254001+1021906347
2164+1021121295+1021813698+1024709723+1028284791+1029059388+1025645077
2156+1021416307+1020024385+1021595507+1024316253+1026674969+1027791701
2147+1027404693+1025917798+1023868689+1021654030+1019576240+1017507526
2139+1015198257+1013516624+1014214182+1017659425+1021917965+1024796419
2130+1025740123+1025365458+1024312550+1022975448+1021687140+1020800143
2122+1020551384+1020659862+1020309304+1019117203+1017849225+1017444065
2113+1017685056+1017627113+1017080800+1016863190+1017555448+1018612786
2105+1019039075+1018717852+1018471924+1018715964+1018850218+1018369036
2096+1017775600+1017808782+1018371360+1018845934+1019045610+1019326681
2088+1019955478+1020754472+1021263101+1020926919+1019394934+1017195378
2079+1015832500+1016383823+1018120712+1019356524+1019518660+1019368359
2071+1019504429+1019950105+1020925467+1022654732+1024458712+1025077054
2062+1023922928+1021405052+1018346019+1015728088+1014681714+1015856606
2054+1018292143+1019485551+1017744741+1014494745+1013212027+1015689459
2045+1020348005+1024523625+1027126672+1028655026+1029504048+1029037097
2037+1026641060+1023101933+1019962812+1018139518+1018199711+1020615933
2028+1024292800+1026664150+1026861284+1026913055+1028472486+1030267245
2020+1030107795+1027881374+1025346798+1023949358+1023761735+1023816628
2011+1022872270+1020779740+1019273967+1019964555+1021530739+1020896351
2003+1017387938+1013796388+1013272075+1016212973+1020025256+1021743993
1994+1020869485+1019272587+1018639361+1018964288+1019422308+1019223358
1986+1017633213+1014640762+1011409136+1009338026+1009427118+1012509677
1977+1018100163+1022952649+1023714902+1020829332+1017272925+1014602642
1969+1012352259+1010441181+1009990204+1011347563+1013097450+1013794209
1960+1013430364+1012742753+1011990883+1010837918+1008846751+1006147425
1952+1004021712+1004146964+1006720966+1009958836+1011913481+1012187872
1943+1011522116+1010625173+1010021135+1010284998+1011572144+1013080386
1935+1013568104+1012538938+1010597000+1008822064+1008089000+1008475136
1926+1009033575+1008733045+1007726969+1006984248+1006656852+1006045554
1918+1005141494+1004779246+1005013121+1004846700+1003778689+1002458795
1909+1001704892+1001521263+1001492510+1001501078+1001516616+1001298860
1901+1000791684+1000379626+1000431832+1000960646+1001840163+1002955371
1892+1004079364+1004876252+1005197403+1005539321+1006861828+1009371572
1884+1011833756+1012690982+1011876595+1010695676+1010098392+1010023894
1875+1010152994+1010432177+1010832472+1011011890+1010355719+1008744590
1867+1007300244+1007216888+1008391635+1009883976+1010851569+1011062354
1858+1010881774+1010867543+1011353300+1012290977+1013303588+1013872482
1850+1013715428+1013104130+1012620696+1012529572+1012575388+1012457325
1841+1012266072+1012246395+1012480342+1012705795+1012345362+1011046235
1833+1009028202+1006799602+1005035049+1004378878+1004658569+1004997365
1824+1004841545+1004292545+1003529566+1002557617+1001615292+1001151681
1816+1001254206+1001543990+1001633808+1001418230+1001132077+1001216957
1807+1001907182+1002981220+1003948159+1004411988+1004330302+1003989256
1799+1003659537+1003313408+1002716994+1001568387+999660357+997426893+995977319
1789+995683396+995777861+995347360+994143496+992815761+992141801+992194806
1779+992544275+992916252+993333466+993793083+994131661+994271797+994529125
1769+995289563+996499961+997699105+998409661+998473847+998104846+997729311
1759+997493766+997130574+996504971+995839506+995210128+994239268+992603161
1749+990885876+990157967+990474399+991043584+991282832+991051280+990295271
1740+989095111+987835629+986533307+984411225+981011944+977747789+975837146
1730+974822285+974218683+973839226+973497163+973180223+973036675+973010317
1720+972916579+972964937+973876039+975824948+978173498+980599595+982991639
1710+984961604+986079280+986440585+986748594+987414639+987894660+987390170
1700+986056118+985155907+985089034+985405610+985969277+986594008+986903978
1690+986828391+986699437+986654710+986329928+985670417+985673031+986747795
1680+988226122+989554728+990426404+990796349+990970466+991211311+991544661
1670+992329786+994087006+996268119+997791029+998275333+998012632+997536678
1660+996937215+995898755+994289078+991894203+987581133+980455393+973848447
1650+969386383+964198733+955705250+944297082+932880273+921218262+907088839
1640+889975461+870206250+845158917+809807514+768700728+733875525+705076030
1630+675568738+642019500+606892787+575082471+548332339+526957843+513210091
1621+507398182+506437160+507900639+510615177+512372796+511697928+510703906
1611+514879962+530743115+560573882+599607161+639612717+672675327+692393857
1601+696529760+690010962+683232150+686618071+705039362+735087739+768665077
1591+799560151+825804232+847911466+866639894+881677588+891249538+892523324
1581+883095069+861415286+824433875+772358353+724776480+704195496+709133297
1571+732604353+769426023+806881791+834446201+853418815+867239503+876618965
1561+882460898+888104099+896494840+904025885+908653862+911673614+913706676
1551+915086763+916112879+916700652+916701886+916066118+914600861+912005293
1541+907577573+901149537+894902298+888583830+877937624+858023266+828422890
1531+794992586+759386396+715919370+660608519+599296538+540524289+484245228
1521+431698761+395367023+383649284+394163413+420658795+455703750+494550387
1511+534384766+572541868+611918118+661700346+713109677+746579045+767217972
1502+784672033+802498145+821074893+839135387+853895931+863379370+867941055
1492+868258285+863355264+850215579+827373829+798480886+770587265+752262254
1482+750957899+766920781+791548650+814681419+829220141+828414394+804148774
1472+756375358+699514006+645063285+595542996+555439926+535005540+537374240
1462+551856181+568767306+586767862+608279481+629764706+643770403+651525811
1452+657370576+663408191+669444863+673881006+676212638+679553759+688867873
1442+706081161+727783017+749552907+770792532+792230089+811246341+825879455
1432+837965432+849545685+860579117+869825559+876990652+882840282+887945375
1422+892271225+895879766+899383895+903297468+907126741+909942098+911169269
1412+910655920+908558671+904963272+899450187+890801320+877591059+859884172
1402+838545073+812499507+780339794+744472066+709478627+677241295+648015873
1392+621872357+596388569+566707596+529182921+486787754+448707836+421093217
1383+404626498+399166490+404619128+419283101+440408547+465535823+491552564
1373+514406984+532649511+548709000+565290950+582546352+599337272+615402062
1363+630506484+643262064+652909020+660567204+667956516+676349071+686187062
1353+697024593+707957388+717912062+725654255+730193794+731381465+730025703
1343+727535637+725534159+725677563+729166516+735972920+745154594+755803123
1333+767149428+778339696+788664097+797819922+805714595+812202389+817179544
1323+820737041+823042679+824077871+823556246+821328880+818119981+815790817
1313+816483511+820936281+827655481+834182701+838972307+841968606+843912286
1303+845508821+847155021+849053321+851361210+854181359+857453936+861036193
1293+864922537+869209105+873826263+878447197+882613668+885840502+887673163
1283+887753033+885852773+881881838+875889967+868078722+858809844+848570106
1273+837896163+827191797+816307433+804262771+790049194+774531624+761553496
1264+756308920+761901658+777251136+798078630+819678832+838765661+853373797
1254+862191190+864401928+859785932+848713436+831971020+810566282+785951991
1244+760561797+737595522+719567265+706698922+696470293+684714471+667944317
1234+645865909+622292692+603249321+593203014+592256296+596620774+601814232
1224+605658355+608834362+613406393+621164851+632922343+648698111+668070803
1214+690039861+712657611+733304961+749595384+759858430+762889073+757900445
1204+745146462+726454483+704984251+684386276+667760833+656733428+651122901
1194+649470312+649948590+650960619+651340149+650370959+647713528+643382886
1184+637813965+631639916+625058965+617432583+607884812+596880425+587618481
1174+585451526+594815305+616023235+644974775+675687600+703007897+723622935
1164+735634052+738044248+731027785+716759823+699952857+687147103+684401307
1154+694429388+715210049+741238697+766551127+787351973+802560226+812407147
1145+816706204+814163786+802835996+781241240+749885168+712791430+677609280
1135+652801413+642923995+645784732+654287146+661619459+665642164+669326437
1125+677493613+692780502+713783855+736228723+755709675+769825012+778614377
1115+783791136+787660926+792026855+797358925+802759684+806695040+807742358
1105+804985452+798367034+789182092+780228194+774980133+775905104+783106430
1095+794486135+807241716+819324353+829806752+838387003+844922283+849386743
1085+851932283+852766347+851964812+849416223+845021612+839145553+832857798
1075+827509391+824022688+822641004+823220863+825572027+829523503+834822826
1065+841085821+847781931+854148684+859265540+862454327+863423081+861703691
1055+856160836+845376527+828535870+806243409+781095876+757459488+739993519
1045+731729555+733046616+741999571+755648683+771580489+788403574+804892875
1035+819269605+829729495+835073110+834252552+825967966+809789289+787918544
1026+765451966+748308746+740073389+739915972+742775838+741671086+731769708
1016+714755224+699605203+696949152+710821828+735910548+762793882+784710952
1006+799322501+806718638+808566184+808663335+811365566+818067920+826283672
996+832737557+836405202+838369286+840007354+842000989+844509208+847638019
986+851479854+855727358+859616026+862461515+863994226+864150046+862971596
976+860853943+858629990+857300295+857635968+859907770+863903537+869153994
966+875078702+881050025+886551348+891317210+895296712+898550411+901179089
956+903263850+904865830+906060763+906891124+907285465+907121368+906344738
946+904897706+902516191+898748490+893292040+886263306+878112976+869459099
936+861049408+853613118+847579423+843136310+840592658+840362922+842483479
926+846453252+851708356+857966704+864898939+871700478+877299605+880936029
916+882372823+881714474+879309506+875760286+871724367+867674941+864027627
907+861436851+860754178+862637883+867159342+873601029+880597233+886804464
897+891693254+895556944+898667167+900721940+901249447+900128794+897367387
887+892567543+884682237+871703237+849989837+814139317+758926924+683901101
877+598351781+521300156+473223632+464629150+491017541+537604629+588665327
867+634182697+670735422+698717771+719446951+734025100+743520302+749124512
857+751920191+752845017+752878925+752925323+753500171+754764664+756831635
847+759922471+764329353+770338069+778138132+787764394+799100824+811837382
837+825346357+838639465+850575795+860343790+867940401+874099056+879506059
827+884073407+887198806+888774792+889618876+890731543+892403011+894259415
817+895973504+897616727+899326388+900931273+902120179+902766475+902691252
807+901089779+896483004+887355860+873037362+854518557+834705634+817610554
798+806954110+805069025+812237169+826394619+843761041+860499972+874173045
788+883948955+889978002+892685243+892251257+888465186+880823702+868422019
778+849935380+824905546+796384798+772260040+761934840+769254157+788015623
768+805285474+809808748+797931813+773262485+742674621+712480154+686129991
758+663452265+641402320+616186606+585766070+550991077+514689580+480009596
748+449478040+425118282+409199001+404562057+413700347+437015148+471563818
738+511597110+550776770+584294205+609748405+627049333+637640646+643131004
728+644063890+639754450+628959541+610592852+584623271+553280414+521258660
718+493900642+475085010+467073436+471369043+488490372+516795470+551740043
708+586421588+613554661+627619317+625961427+609475031+583153476+555430233
698+535714171+531168606+544538426+573718032+612880628+654848198+693611371
688+725609165+749690575+766639928+777972075+783837606+781875192+768358592
679+741254454+703567352+663269290+628412356+601763805+580724801+564004385
669+560014281+580228552+616585667+654836799+690656242+722340145+748105730
659+768273857+784084696+796033368+804486989+809923543+812789363+813872840
649+814313652+815235210+817374210+820645118+824132474+826674528+827455297
639+826430851+824358870+822058387+819702575+816964838+813530850+809441272
629+805157827+801224794+797914823+795201338+792580865+788941465+783513550
619+777279962+772793211+772106761+775090136+780027356+785236353+789574110
609+792171566+792796007+792504189+793239577+796411446+801934769+808699785
599+815700999+822342798+827807888+830888123+830812973+827966975+823672493
589+819289428+815502994+812617279+811300508+812286035+815195493+818372371
579+819987567+818862267+814762160+809125349+804909212+804245708+806513879
569+809403225+811840068+815176034+820979484+828720080+836424081+842733400
560+847448508+850690517+852783483+854856771+858321255+863178533+867473378
550+869192259+868619662+867965234+868784776+870931399+873873169+877454626
540+880992954+883192656+883768303+883987874+885040710+886900962+889021809
530+891162988+893408651+895883904+898274641+899727918+899788256+898851087
520+897438471+895953537+895273623+896280206+898439029+900076370+900151085
510+898945552+897131188+895150622+893520033+892215824+889459281+883231211
500+874684433+867090726+861524128+856351871+850187334+843553523+838084584
490+835618625+837380201+842664204+848799842+853487431+857041805+861473156
480+867842814+875037751+880627656+883113584+883250307+882991237+883760897
470+885757872+888325268+890569188+892085853+893287538+894563938+895756185
460+897119208+899858034+904391401+908655459+910579172+910682568+910454575
450+910227888+909589652+908938708+909055537+909330073+907774635+902913582
441+894740815+883495582+868491434+848846820+824984835+798454528+770768934
431+744578148+725055809+717385135+723847879+743547022+771721932+801083859
421+826670535+847463974+864137267+876942585+885421401+888904473+887553793
411+883039813+877356459+871735984+867222222+865213120+867174517+873552598
401+882174745+887847788+887052135+884987850+887616019+892090209+894040715
391+892950195+889757197+884765738+878600403+873076281+870066186+869793030
381+871377875+874103921+876787709+876206471+868460066+856652546
##END=
