##TITLE=acetal-oh-correct one
##JCAMP-DX=5.01  $$ Nicolet v. 970
##DATATYPE=INFRARED SPECTRUM
##ORIGIN=KIT INT
##OWNER=Nicolet
##LONGDATE=2021/05/19
##TIME=10:50:34
##SPECTROMETER/DATA SYSTEM=Nicolet iS50
##DATA PROCESSING=
Ratio against background
%Transmittance->Absorbance
ATR Correction
Truncated
ElementMultiply or ElementDivide
##COMMENTS=
Number of sample scans: 20
Collection length: 29.56 sec
Sample gain: 4.0
Background collected on: Wed May 19 10:48:44 2021 (GMT+02:00);
Number of background scans: 20
Background gain: 4.0
Sample spacing:  1.000
Number of scan points: 16672
Resolution points: 8192
Number of FFT points: 65536
Apodization: N-B strong;
Phase correction: Mertz;
Laser frequency: 15798.26 cm-1
Number of rejected sample scans: 0
Number of rejected background scans: 0
Bench serial number: AUP1910585;
##RESOLUTION=4.000
##XUNITS=1/CM
##YUNITS=TRANSMITTANCE
##FIRSTX=400.163452
##LASTX=4000.187500
##FIRSTY=0.878125
##MAXX=4000.187500
##MINX=400.163452
##MAXY=1.101363
##MINY=0.321132
##XFACTOR=1.000000
##YFACTOR=1.000000E-008
##NPOINTS=7468
##DELTAX=0.482125
##ZPD=8192
##XYDATA=(X++(Y..Y))
400.163 87812528 87925984 87999432 88026808 88016440 87984704 87947816 
403.538 87915648 87891256 87874520 87868624 87883904 87936984 88044120 
406.913 88212872 88435048 88685456 88926808 89120512 89238032 89269704 
410.288 89226984 89138416 89041000 88971480 88958360 89017904 89152464 
413.663 89351480 89593624 89850904 90093376 90294840 90437248 90514032 
417.038 90530096 90499688 90441272 90372264 90304328 90241880 90182976 
420.412 90122872 90057616 89986816 89913568 89843288 89781120 89730168 
423.787 89690576 89659864 89633952 89608416 89579568 89545192 89505480 
427.162 89463536 89425536 89399664 89393632 89411240 89448608 89492400 
430.537 89520992 89509600 89437848 89297712 89098232 88865192 88634736 
433.912 88443000 88315152 88258504 88261560 88300144 88347016 88381608 
437.286 88395256 88390416 88374696 88352520 88318272 88254464 88135992 
440.661 87938864 87649784 87272944 86831664 86364952 85919896 85542744 
444.036 85269912 85121288 85096408 85174736 85319976 85487192 85631696 
447.411 85718432 85729312 85667752 85557712 85437248 85347696 85321600 
450.786 85373104 85494904 85662288 85843016 86008416 86141520 86239632 
454.161 86311024 86368184 86420864 86471912 86517320 86549912 86564568 
457.535 86562088 86549480 86536528 86530872 86533880 86539984 86539344 
460.910 86522880 86487208 86436992 86383600 86340736 86318632 86320064 
464.285 86339264 86364880 86384776 86391016 86382128 86362416 86338336 
467.660 86314280 86289696 86258848 86213336 86145920 86053624 85938712 
471.035 85807120 85665280 85517040 85362576 85199888 85028432 84852888 
474.409 84685112 84542872 84445608 84408512 84437416 84526456 84659312 
477.784 84813320 84965336 85096864 85197464 85265192 85304944 85325640 
481.159 85337464 85349824 85370280 85403768 85452312 85514224 85584272 
484.534 85654360 85715600 85760960 85787880 85799888 85806168 85819304 
487.909 85851736 85912360 86004128 86123664 86262712 86410536 86556600 
491.284 86692304 86811968 86912592 86993720 87056880 87105408 87144208 
494.658 87178720 87213472 87250416 87287864 87321000 87343792 87352192 
498.033 87346656 87333472 87323064 87326352 87350000 87393024 87446064 
501.408 87494248 87522424 87520776 87488528 87433864 87370304 87311328 
504.783 87265296 87233336 87210408 87189224 87164608 87136592 87110200 
508.158 87092984 87090624 87103560 87126032 87147832 87158112 87149288 
511.532 87119328 87071760 87013176 86950128 86886736 86824240 86762056 
514.907 86699752 86638520 86580992 86529688 86484768 86442760 86396808 
518.282 86339008 86263656 86170096 86063592 85953928 85851880 85765360 
521.657 85696416 85640448 85587560 85525704 85444232 85336512 85201184 
525.032 85041752 84864992 84678888 84490624 84304824 84122584 83940904 
528.406 83753056 83549992 83322800 83066072 82780856 82476536 82170424 
531.781 81884576 81641080 81456848 81339712 81287544 81290016 81333016 
535.156 81403672 81494152 81603312 81735488 81897528 82094800 82328176 
538.531 82592576 82877288 83167880 83448616 83705096 83926424 84106576 
541.906 84245160 84347104 84421472 84479464 84531920 84586944 84648496 
545.281 84716128 84786064 84853416 84914144 84966384 85010496 85047936 
548.655 85079624 85104664 85119968 85121128 85104080 85066784 85010240 
552.030 84938424 84857464 84773808 84693128 84619152 84553600 84496280 
555.405 84445568 84398592 84351320 84299064 84237248 84162592 84074512 
558.780 83975896 83873192 83775072 83690600 83626800 83587096 83570728 
562.155 83573304 83588432 83609624 83631880 83652600 83671936 83692080 
565.529 83716648 83749592 83794088 83851800 83922016 84001552 84084944 
568.904 84165328 84235696 84290264 84325504 84340512 84336736 84317352 
572.279 84286480 84248664 84208744 84171688 84142200 84124128 84119216 
575.654 84126296 84140816 84155720 84163224 84157248 84135456 84099984 
579.029 84056792 84013576 83977000 83950672 83934328 83924488 83916392 
582.404 83905896 83890768 83870752 83846664 83819104 83787552 83750552 
585.778 83706528 83655224 83598560 83540432 83485920 83439472 83403552 
589.153 83377976 83360240 83346496 83332752 83315624 83292544 83261584 
592.528 83221264 83170864 83111088 83044936 82977872 82917200 82870264 
595.903 82842064 82833512 82840784 82856440 82872104 82881368 82882272 
599.278 82877656 82873616 82876464 82889384 82910288 82931992 82944280 
602.652 82937808 82907504 82854824 82787616 82717144 82654208 82604832 
606.027 82567856 82534912 82492896 82428144 82330912 82198312 82035432 
609.402 81853616 81667368 81490432 81332664 81198520 81087224 80994616 
612.777 80915320 80844944 80781048 80723208 80672144 80628600 80592640 
616.152 80563432 80540072 80522272 80511296 80510000 80522384 80552184 
619.527 80601512 80669712 80752960 80844848 80937816 81025000 81102144 
622.901 81168608 81227528 81284624 81346240 81417208 81499152 81589888 
626.276 81684152 81775488 81858480 81930584 81992800 82049112 82104560 
629.651 82163320 82226840 82293248 82358176 82416168 82462656 82495248 
633.026 82514184 82521656 82520864 82514728 82505344 82493952 82481288 
636.401 82468112 82455352 82443984 82434584 82426760 82419104 82409176 
639.775 82394008 82370304 82334832 82284368 82215896 82127064 82016984 
643.150 81887208 81742544 81591128 81443464 81310688 81202192 81123752 
646.525 81076496 81057480 81061080 81081064 81112200 81151080 81195832 
649.900 81245184 81297480 81350240 81400392 81444928 81481768 81509904 
653.275 81529208 81539552 81540248 81529648 81505784 81467592 81415984 
656.650 81354688 81290040 81229768 81181328 81150264 81139080 81147264 
660.024 81171904 81209032 81254528 81305168 81358840 81414544 81472224 
663.399 81532544 81596512 81665160 81738784 81816024 81893160 81963816 
666.774 82019544 82051304 82051448 82015696 81944320 81841816 81715000 
670.149 81570136 81409688 81230160 81021568 80769024 80455840 80067784 
673.524 79596680 79042936 78416352 77734984 77023192 76308992 75621416 
676.898 74988400 74435032 73981976 73644168 73429680 73338856 73364168 
680.273 73490888 73698960 73965440 74267552 74584808 74900472 75201592 
683.648 75478176 75722128 75926016 76082696 76185264 76227144 76202048 
687.023 76103832 75925800 75660384 75299024 74832880 74253888 73556176 
690.398 72737120 71798248 70745832 69591232 68351536 67050560 65719344 
693.773 64396432 63126436 61957044 60934704 60099444 59480508 59093880 
697.147 58942116 59016924 59303028 59782104 60435812 61246776 62198228 
700.522 63272632 64450484 65709892 67027108 68377888 69739016 71089472 
703.897 72411296 73689512 74912024 76069208 77153560 78159608 79083512 
707.272 79923008 80676968 81345224 81928400 82428304 82848520 83195072 
710.647 83476728 83704936 83892576 84052440 84195208 84328064 84453992 
714.021 84572296 84679944 84773544 84850776 84911448 84957448 84991776 
717.396 85017568 85037184 85052072 85063232 85072064 85081072 85093736 
720.771 85113696 85143264 85181904 85225584 85267296 85298824 85313344 
724.146 85307800 85284496 85250752 85217072 85194128 85189576 85205760 
727.521 85239112 85281200 85321200 85348824 85357040 85343624 85311280 
730.896 85266728 85218544 85175032 85142368 85123416 85117600 85121544 
734.270 85130424 85139488 85145504 85147296 85145744 85142744 85140048 
737.645 85137880 85134656 85127152 85111752 85085752 85048416 85001200 
741.020 84946984 84888624 84827640 84763392 84693352 84614336 84523840 
744.395 84421568 84309440 84191144 84070592 83950472 83831200 83710952 
747.770 83586096 83452552 83306616 83145448 82967072 82770040 82553136 
751.144 82315520 82057152 81779416 81485488 81180232 80869488 80559120 
754.519 80254048 79957752 79672256 79398688 79137784 78890568 78658232 
757.894 78441912 78241864 78056632 77882200 77711312 77533320 77334632 
761.269 77099896 76813728 76462864 76037984 75534656 74953008 74296136 
764.644 73567536 72768608 71897056 70946760 69909216 68775968 67541064 
768.018 66202684 64763572 63230468 61613244 59924644 58181024 56403660 
771.393 54620164 52864404 51174556 49589416 48143748 46864256 45767540 
774.768 44860348 44141936 43607052 43248564 43058724 43029152 43150280 
778.143 43410956 43798688 44300712 44904920 45600580 46377980 47227576 
781.518 48139036 49100792 50100644 51127012 52170320 53223904 54283660 
784.893 55346724 56409664 57466864 58510336 59530840 60520004 61472912 
788.267 62389504 63274764 64136972 64984832 65824776 66658920 67484920 
791.642 68297392 69090336 69859600 70604168 71326184 72029224 72716152 
795.017 73387072 74038448 74663600 75254512 75804104 76307992 76765240 
798.392 77177720 77548320 77878968 78169032 78414712 78609656 78746344 
801.767 78817736 78818600 78746320 78600728 78383808 78099160 77752016 
805.141 77349592 76901608 76420768 75922640 75424680 74944712 74498936 
808.516 74100288 73757296 73473792 73249368 73080336 72960896 72884280 
811.891 72843528 72832264 72844768 72875776 72919728 72969744 73016880 
815.266 73049984 73056792 73026216 72951384 72832664 72679560 72510552 
818.641 72351032 72229432 72173040 72204456 72339600 72587768 72952672 
822.016 73434184 74029080 74731296 75530832 76413064 77358296 78342664 
825.390 79340040 80324696 81273824 82169480 82999400 83756968 84440352 
828.765 85051096 85592824 86069976 86486848 86846968 87152904 87406472 
832.140 87609480 87764624 87876400 87951512 87998704 88027656 88047584 
835.515 88065720 88086088 88109464 88133568 88154296 88166848 88166640 
838.890 88149912 88114016 88057392 87979736 87881912 87765888 87634336 
842.264 87490016 87334984 87169784 86993168 86802016 86591976 86357800 
845.639 86094096 85795368 85456240 85071640 84637136 84149704 83608424 
849.014 83014760 82372256 81685304 80957616 80190888 79384232 78534824 
852.389 77639528 76696888 75708736 74680888 73622608 72545368 71461136 
855.764 70381176 69315248 68271672 67257448 66278456 65339624 64444732 
859.139 63596564 62797196 62048636 61353568 60715928 60140768 59633672 
862.513 59199536 58841528 58560240 58353880 58219040 58151880 58149464 
865.888 58210108 58333320 58518504 58763536 59063676 59411016 59795496 
869.263 60206484 60634924 61075180 61525660 61988372 62467396 62967044 
872.638 63490220 64037764 64608560 65200348 65810568 66436728 67076120 
876.013 67724984 68377952 69027584 69665176 70282024 70870896 71427096 
879.387 71948688 72435584 72888416 73307160 73690808 74037888 74347864 
882.762 74622752 74868080 75092800 75308000 75524904 75752720 75997248 
886.137 76260544 76541456 76836976 77143320 77456784 77773984 78091664 
889.512 78406560 78715536 79015784 79305080 79581824 79844336 80090032 
892.887 80314504 80511408 80673064 80792192 80863728 80886560 80863816 
896.262 80802088 80709672 80594408 80462296 80317048 80160832 79995632 
899.636 79824392 79651504 79482304 79322208 79175472 79044768 78931088 
903.011 78834320 78753480 78687048 78632336 78584912 78538256 78483872 
906.386 78412360 78314768 78184040 78015912 77808960 77564328 77284936 
909.761 76975216 76641016 76290216 75933008 75581728 75250248 74952304 
913.136 74700280 74503736 74369008 74299224 74294776 74353776 74472432 
916.510 74645176 74864896 75123272 75411624 75722008 76048072 76385600 
919.885 76732224 77086496 77446584 77809216 78169112 78519120 78851032 
923.260 79156624 79428640 79661352 79850968 79995544 80095208 80151952 
926.635 80169456 80152560 80106304 80034632 79939272 79819280 79671296 
930.010 79490696 79273432 79017264 78722624 78392432 78030896 77642240 
933.385 77229648 76794832 76338584 75861512 75364928 74851192 74323512 
936.759 73785416 73240280 72691072 72140768 71593128 71053240 70527912 
940.134 70025176 69553112 69118488 68725176 68373632 68060792 67781152 
943.509 67528376 67297168 67084664 66891008 66719040 66572936 66456588 
946.884 66371988 66318132 66291008 66284120 66289924 66301048 66311548 
950.259 66317460 66316832 66309144 66294760 66274224 66248000 66216340 
953.633 66179428 66137404 66090300 66037940 65979804 65915000 65842596 
957.008 65762056 65673736 65579260 65481528 65384360 65291772 65207268 
960.383 65133240 65070692 65019364 64978112 64945388 64919616 64899260 
963.758 64882860 64868888 64855728 64841964 64826888 64811028 64796624 
967.133 64787416 64788040 64802956 64835044 64884720 64949516 65024660 
970.508 65104280 65182944 65256896 65324532 65386084 65442444 65493636 
973.882 65537872 65570960 65587004 65579492 65542772 65473108 65368888 
977.257 65230272 65058020 64852492 64612700 64336336 64020196 63661320 
980.632 63257948 62810516 62322036 61798180 61246996 60678428 60103880 
984.007 59535660 58986460 58468812 57994448 57573892 57216124 56928412 
987.382 56716096 56582388 56528020 56550824 56645532 56804116 57016516 
990.756 57271880 57559764 57870952 58197508 58531688 58864456 59183836 
994.131 59473848 59715264 59888064 59975804 59971332 59882028 59733820 
997.506 59571988 59457908 59462008 59653516 60088964 60801772 61795380 
1000.881 63041476 64484200 66048788 67653296 69220064 70685032 72003392 
1004.256 73151104 74122704 74927032 75581712 76107968 76526472 76854600 
1007.630 77105016 77285640 77400032 77449032 77432096 77348960 77200832 
1011.005 76990784 76723632 76404952 76039840 75631944 75182784 74691864 
1014.380 74157320 73576720 72947888 72269368 71540568 70761704 69933712 
1017.755 69058056 68136872 67172544 66167464 65123436 64041100 62919992 
1021.130 61758828 60556520 59313264 58031308 56715244 55371420 54007136 
1024.505 52629756 51246292 49863744 48489764 47133116 45803732 44512012 
1027.880 43267692 42078680 40950440 39886168 38887660 37956176 37093240 
1031.255 36300656 35580192 34933044 34359300 33857984 33427300 33064842 
1034.630 32767712 32532302 32354268 32228516 32149734 32113240 32115460 
1038.006 32154170 32227542 32332836 32464894 32615326 32772900 32925060 
1041.381 33060344 33170510 33251732 33304550 33332562 33340642 33333312 
1044.756 33314018 33285282 33249320 33208820 33167134 33128106 33095584 
1048.131 33073116 33064064 33072068 33101646 33158500 33248962 33379166 
1051.507 33553894 33775908 34046020 34363876 34728996 35141764 35603352 
1054.882 36114996 36676728 37286072 37937492 38622852 39332588 40057364 
1058.257 40789380 41523092 42254832 42981900 43701292 44408588 45097536 
1061.632 45759944 46386196 46966056 47489416 47947352 48332976 48642452 
1065.008 48875636 49036328 49131876 49171996 49167204 49127164 49059436 
1068.383 48969080 48859028 48731088 48587180 48430272 48264864 48096956 
1071.758 47933572 47782044 47649280 47541000 47461092 47411312 47391000 
1075.133 47397596 47427284 47476396 47542420 47625040 47726452 47851016 
1078.509 48004512 48193048 48422128 48696032 49017544 49387872 49806724 
1081.884 50272084 50780348 51325976 51901656 52498308 53105128 53709828 
1085.259 54298616 54856132 55365808 55810260 56172316 56436520 56590544 
1088.634 56626356 56540732 56334868 56013108 55581368 55045912 54412692 
1092.010 53687700 52877832 51991988 51041972 50042620 49011332 47967124 
1095.385 46929456 45917368 44948692 44039772 43205296 42458356 41810560 
1098.760 41272164 40851988 40557504 40394312 40366180 40474668 40719164 
1102.135 41097212 41604696 42236404 42986232 43847196 44811420 45870196 
1105.510 47013984 48232796 49516676 50856408 52243560 53670684 55130648 
1108.886 56616084 58118704 59629028 61136580 62630624 64101196 65539992 
1112.261 66940788 68299288 69612272 70876600 72088272 73242376 74333392 
1115.636 75356328 76307992 77187712 77997576 78741872 79426056 80055840 
1119.011 80636488 81172520 81667784 82125648 82548968 82940008 83300328 
1122.387 83630832 83932232 84205568 84452936 84677392 84882776 85072808 
1125.762 85250072 85415432 85567792 85704784 85823488 85921656 85998224 
1129.137 86053600 86089400 86107992 86112008 86103928 86085688 86058256 
1132.512 86021280 85972720 85909112 85826096 85719392 85586120 85425624 
1135.888 85239464 85030728 84802672 84557064 84293456 84009088 83699848 
1139.263 83361568 82991088 82586544 82146904 81670792 81155488 80596624 
1142.638 79988848 79327128 78608288 77831936 77000320 76117360 75187008 
1146.013 74211864 73192624 72128408 71017992 69861624 68662448 67427680 
1149.389 66168852 64901276 63643116 62414156 61234600 60124216 59101636 
1152.764 58184164 57387332 56724708 56207212 55842220 55632776 55576604 
1156.139 55665820 55886860 56221112 56645776 57135140 57661948 58198644 
1159.514 58718680 59197572 59613748 59949260 60190264 60327564 60356788 
1162.890 60278700 60098964 59827948 59480032 59072972 58627068 58164320 
1166.265 57707500 57279228 56901072 56592516 56370292 56247936 56235624 
1169.640 56340564 56567484 56919036 57396072 57997248 58718512 59551840 
1173.015 60484416 61498076 62569544 63671640 64774956 65850172 66869904 
1176.391 67810432 68652216 69380224 69983296 70453552 70785584 70975792 
1179.766 71022144 70924184 70683440 70303736 69791632 69156280 68408896 
1183.141 67561896 66627892 65618828 64545732 63419008 62249124 61047928 
1186.516 59829724 58612216 57416588 56266804 55187892 54203636 53334116 
1189.892 52593508 51988896 51520080 51180704 50960052 50845040 50822252 
1193.267 50879312 51005724 51192900 51434060 51723460 52055772 52425404 
1196.642 52826192 53251276 53693456 54145644 54601264 55054420 55499756 
1200.017 55931972 56345484 56734180 57091624 57411844 57689876 57922572 
1203.393 58108704 58248744 58344424 58398172 58413000 58392640 58341916 
1206.768 58267224 58176476 58078584 57982696 57896880 57827408 57778240 
1210.143 57751020 57745532 57760284 57792960 57840676 57900152 57967824 
1213.518 58040248 58114400 58188068 58259940 58329424 58396032 58458924 
1216.894 58516620 58567272 58609264 58642168 58667024 58686440 58703772 
1220.269 58721820 58741684 58762372 58780932 58793768 58798112 58793336 
1223.644 58781536 58767092 58755464 58751688 58759136 58778944 58810072 
1227.019 58850264 58896820 58947676 59001672 59058876 59120208 59187044 
1230.395 59261084 59343904 59437008 59541620 59658592 59788260 59930324 
1233.770 60083540 60245904 60414632 60586516 60758704 60929320 61098224 
1237.145 61267412 61440776 61623444 61820220 62034308 62266168 62513268 
1240.520 62770832 63033468 63296932 63559360 63821732 64086892 64357820 
1243.896 64635888 64919432 65203612 65481484 65745536 65989708 66210244 
1247.271 66406020 66577660 66726312 66852576 66955796 67034232 67085380 
1250.646 67106560 67095148 67048576 66964164 66838960 66670328 66456560 
1254.021 66197784 65896460 65557352 65186676 64790924 64375792 63945400 
1257.396 63502576 63049432 62588340 62122652 61656816 61195956 60745192 
1260.772 60309060 59891244 59494844 59122796 58778184 58464380 58184636 
1264.147 57941660 57737064 57571180 57443004 57350740 57291908 57263780 
1267.522 57263460 57287860 57333788 57398096 57477844 57570468 57673900 
1270.897 57786280 57905728 58029980 58156324 58281812 58404016 58521580 
1274.273 58634920 58746432 58859928 58979956 59110792 59255444 59415448 
1277.648 59590868 59781084 59985796 60205780 60443412 60702800 60989112 
1281.023 61307928 61664200 62061468 62501316 62983352 63505216 64063384 
1284.398 64653708 65272156 65915572 66581964 67270440 67980984 68713584 
1287.774 69467224 70239000 71023520 71812944 72597400 73366112 74108488 
1291.149 74814968 75477456 76089168 76644144 77136944 77562208 77914960 
1294.524 78190816 78386392 78499568 78529496 78476488 78342016 78128768 
1297.899 77840984 77484816 77068352 76601488 76095096 75559896 75005520 
1301.275 74439448 73867048 73292168 72718360 72150576 71596432 71066680 
1304.650 70574696 70134800 69760064 69460040 69239272 69096672 69026224 
1308.025 69018384 69062008 69145960 69260616 69398424 69553888 69723232 
1311.400 69903728 70092960 70288376 70486864 70684616 70877304 71060192 
1314.776 71228560 71378040 71504912 71606616 71681600 71729360 71750352 
1318.151 71745472 71715928 71662784 71587120 71489896 71372288 71235856 
1321.526 71082752 70915512 70736952 70549664 70355680 70156400 69952392 
1324.901 69744120 69532176 69318152 69104528 68894704 68692200 68499608 
1328.277 68317752 68145280 67978968 67814544 67648184 67477528 67302336 
1331.652 67124208 66945572 66768568 66593932 66420676 66246500 66068636 
1335.027 65884612 65692932 65492888 65284004 65065512 64836092 64593972 
1338.402 64337668 64066728 63782000 63485468 63179492 62865744 62544692 
1341.778 62215232 61875488 61523640 61159080 60782836 60397868 60008396 
1345.153 59619636 59237092 58866480 58513588 58184112 57883500 57616280 
1348.528 57385636 57193140 57038844 56922120 56842180 56798936 56793128 
1351.903 56826028 56899016 57012836 57167308 57361136 57592040 57856836 
1355.279 58151508 58471180 58810172 59162448 59522188 59884452 60245768 
1358.654 60604108 60958396 61307776 61650652 61984348 62305556 62610936 
1362.029 62898400 63167644 63420304 63659108 63886916 64105644 64315888 
1365.404 64517244 64709044 64891204 65064444 65229956 65388808 65541016 
1368.780 65685668 65821388 65947632 66065912 66180144 66296348 66421036 
1372.155 66559564 66714744 66886620 67073160 67272112 67482360 67705080 
1375.530 67943320 68200968 68481088 68784808 69111128 69457472 69821008 
1378.905 70199736 70593272 71002552 71429096 71874184 72338080 72819880 
1382.281 73317928 73830360 74355184 74890264 75433056 75979960 76526488 
1385.656 77067592 77598584 78116208 78618712 79105968 79578440 80036128 
1389.031 80478072 80902392 81307344 81692456 82059384 82411864 82754848 
1392.406 83092664 83427672 83759320 84084816 84400160 84702040 84989256 
1395.781 85262944 85526064 85781984 86033280 86280736 86523440 86759008 
1399.157 86984648 87197624 87395976 87578424 87744592 87895024 88031240 
1402.532 88155640 88271408 88381784 88489464 88596024 88701536 88804928 
1405.907 88904408 88998168 89084736 89162984 89231920 89290112 89335784 
1409.282 89366880 89381560 89378848 89359024 89323496 89274440 89214432 
1412.658 89145976 89071288 88992440 88911320 88829672 88748752 88669056 
1416.033 88590064 88510144 88426840 88337288 88238792 88129040 88006576 
1419.408 87870776 87721904 87561104 87390208 87211320 87026328 86835976 
1422.783 86639544 86434216 86215704 85978848 85718656 85431280 85114360 
1426.159 84766512 84386840 83973912 83525456 83038304 82508904 81933896 
1429.534 81310504 80636648 79911328 79134544 78307872 77434800 76520448 
1432.909 75570896 74591904 73587432 72559232 71507280 70431488 69334200 
1436.284 68222024 67106332 66002128 64925484 63891012 62910240 61991364 
1439.660 61140208 60361108 59657392 59030756 58480012 57999868 57580164 
1443.035 57206356 56860660 56523940 56177540 55804980 55393036 54932412 
1446.410 54418260 53850428 53233676 52577368 51894792 51201636 50514232 
1449.785 49847944 49216148 48629904 48098312 47628576 47226284 46895192 
1453.161 46637200 46452808 46341792 46304308 46341340 46454724 46646388 
1456.536 46917108 47265852 47689828 48185356 48749144 49379236 50074812 
1459.911 50835632 51660760 52548104 53494200 54494720 55544876 56639196 
1463.286 57770740 58930088 60104568 61278748 62436112 63561388 64642356 
1466.662 65670968 66642824 67556112 68410616 69207176 69947632 70634864 
1470.037 71272152 71862152 72405120 72898072 73334704 73707032 74008000 
1473.412 74233968 74386000 74469256 74491352 74460008 74381680 74261568 
1476.787 74104648 73916912 73706656 73484384 73261712 73050016 72859040 
1480.163 72695928 72565312 72469552 72409136 72383184 72389408 72424280 
1483.538 72483304 72561920 72656424 72765128 72889152 73032576 73201664 
1486.913 73403904 73646464 73935392 74274784 74666504 75110376 75604072 
1490.288 76143216 76721752 77332328 77967280 78619344 79282552 79952064 
1493.664 80623928 81293936 81956920 82606144 83233680 83831520 84392720 
1497.039 84912856 85390400 85826720 86225488 86591976 86932432 87253800 
1500.414 87562880 87865528 88165560 88463920 88758360 89044344 89316576 
1503.789 89571392 89808400 90031432 90247720 90465824 90692880 90931736 
1507.165 91180176 91431360 91676256 91906320 92115568 92301376 92464304 
1510.540 92606864 92732680 92845296 92948040 93043408 93133256 93218400 
1513.915 93298520 93372400 93438112 93493944 93539064 93574536 93603264 
1517.290 93629592 93658216 93692656 93734448 93782720 93834400 93885024 
1520.666 93930080 93965880 93990520 94004152 94008432 94006104 93999888 
1524.041 93991944 93983328 93973912 93962424 93946744 93924328 93893064 
1527.416 93851544 93799280 93737064 93666408 93589232 93507408 93422544 
1530.791 93335648 93247664 93159480 93072712 92989648 92913456 92847680 
1534.167 92795808 92760560 92743640 92745632 92766240 92804624 92859336 
1537.542 92928328 93008768 93096864 93188104 93277864 93362448 93440000 
1540.917 93511184 93578664 93646504 93718496 93796648 93880152 93964864 
1544.292 94044280 94110680 94157496 94181088 94182096 94165184 94137776 
1547.667 94108128 94083280 94067624 94062248 94065520 94074000 94083744 
1551.043 94091344 94094328 94091064 94080664 94062488 94036392 94002760 
1554.418 93962872 93918768 93873008 93827944 93785160 93745096 93706584 
1557.793 93667520 93625056 93576320 93519072 93452032 93375056 93288992 
1561.168 93195584 93097208 92996560 92896392 92799224 92706744 92619608 
1564.544 92537080 92457160 92377104 92293888 92204840 92107872 92001368 
1567.919 91884056 91754456 91610792 91451056 91273208 91075784 90858008 
1571.294 90619952 90362016 90084248 89785616 89463400 89113392 88730232 
1574.669 88308984 87846592 87343304 86803504 86234880 85646720 85047352 
1578.045 84441928 83831056 83210848 82573800 81909864 81208032 80457096 
1581.420 79646456 78766424 77808304 76764568 75628872 74396608 73064928 
1584.795 71633352 70104168 68483128 66780624 65013024 63203776 61384128 
1588.170 59592212 57870684 56263536 54812248 53552956 52514312 51716848 
1591.546 51172560 50884772 50847508 51045140 51452300 52034804 52751232 
1594.921 53555096 54397352 55228668 56001888 56674552 57211832 57589456 
1598.296 57796320 57836308 57728500 57505876 57212268 56898300 56616656 
1601.671 56417680 56345588 56435616 56711852 57185732 57855692 58707672 
1605.047 59717268 60853100 62080532 63365256 64675744 65984520 67268136 
1608.422 68506736 69683800 70786032 71804032 72732688 73571488 74324768 
1611.797 75000568 75609432 76162792 76671008 77142512 77583152 77996672 
1615.172 78385784 78753240 79103048 79440984 79774080 80109424 80452816 
1618.548 80807536 81174072 81550944 81935920 82327488 82726112 83134288 
1621.923 83555896 83994384 84450984 84923008 85403872 85883984 86353224 
1625.298 86803104 87228792 87629664 88008592 88370472 88720248 89061408 
1628.673 89395264 89720848 90035696 90336312 90619016 90880296 91117208 
1632.049 91327792 91511416 91669392 91805040 91923416 92030624 92132480 
1635.424 92233304 92335064 92437328 92537816 92633928 92723704 92806584 
1638.799 92883504 92956224 93026832 93096784 93166472 93235072 93300720 
1642.174 93360832 93412504 93453192 93481136 93495976 93499336 93494864 
1645.550 93488008 93484976 93491256 93510512 93543472 93587952 93639792 
1648.925 93693992 93746136 93792912 93832576 93864104 93887104 93901288 
1652.300 93906856 93904672 93896960 93887088 93878784 93875416 93878800 
1655.675 93889248 93905760 93926880 93951472 93979216 94010528 94046064 
1659.051 94085720 94128328 94171248 94211264 94245312 94271200 94288208 
1662.426 94296512 94296944 94289888 94275304 94252880 94222600 94185280 
1665.801 94142848 94097384 94050480 94002024 93949984 93890816 93820696 
1669.176 93737008 93639336 93529736 93411512 93287752 93159792 93026416 
1672.552 92884808 92731168 92562944 92379696 92183712 91979472 91772072 
1675.927 91566016 91363872 91166256 90972480 90782016 90595376 90415208 
1679.302 90245944 90093336 89962912 89858752 89782752 89733904 89708672 
1682.677 89701632 89706376 89716736 89728200 89738960 89750264 89765752 
1686.052 89789608 89824752 89871248 89925616 89982000 90033512 90074560 
1689.428 90102480 90118360 90126128 90131120 90137616 90147728 90161056 
1692.803 90175640 90189344 90201672 90214120 90230120 90254048 90289576 
1696.178 90339008 90402920 90481128 90573728 90682104 90808904 90957272 
1699.553 91129256 91324608 91540264 91770352 92007960 92246648 92481256 
1702.929 92708256 92924856 93128328 93315776 93484360 93632112 93758704 
1706.304 93865720 93956720 94036456 94110048 94182288 94257152 94337032 
1709.679 94422504 94512024 94602200 94688544 94766464 94832616 94886048 
1713.054 94928480 94963896 94997424 95033520 95075136 95122728 95174896 
1716.430 95228712 95281176 95329512 95371784 95406720 95433576 95452024 
1719.805 95462536 95466160 95464976 95461440 95458136 95456704 95457600 
1723.180 95460536 95464616 95469784 95477288 95489704 95510336 95541944 
1726.555 95585384 95639000 95698776 95759288 95815400 95863760 95903576 
1729.931 95936896 95967800 96001008 96040560 96088408 96143848 96203368 
1733.306 96261392 96311720 96349376 96372472 96383240 96387328 96392272 
1736.681 96405184 96430416 96468200 96514720 96563320 96606896 96640136 
1740.056 96661240 96671952 96676216 96678072 96679960 96682160 96683848 
1743.432 96684528 96685848 96692024 96708768 96741120 96790880 96855008 
1746.807 96925760 96992584 97045352 97077384 97087576 97079896 97061712 
1750.182 97040784 97022536 97008584 96997072 96984552 96968472 96948936 
1753.557 96929416 96915632 96913544 96926680 96954488 96991824 97029904 
1756.933 97058976 97071288 97063624 97038728 97004608 96972264 96953096 
1760.308 96955616 96983432 97034624 97102328 97176760 97247584 97306080 
1763.683 97346704 97367080 97368080 97352800 97325912 97293104 97260440 
1767.058 97233784 97217832 97215176 97225736 97246624 97273040 97299512 
1770.434 97321136 97335008 97340488 97339416 97335184 97331992 97333944 
1773.809 97344168 97364464 97394824 97433184 97475512 97516136 97548896 
1777.184 97568656 97573056 97563240 97543728 97521056 97501328 97488072 
1780.559 97481064 97476752 97470024 97456848 97436136 97410656 97385728 
1783.935 97367216 97359208 97362304 97373872 97389248 97404304 97417104 
1787.310 97428776 97442800 97463360 97492992 97531512 97575592 97619456 
1790.685 97656672 97681768 97691696 97686344 97668688 97643752 97617896 
1794.060 97596944 97585560 97585800 97597048 97616368 97639376 97661952 
1797.436 97681440 97697584 97712176 97727920 97746592 97767400 97786920 
1800.811 97799720 97800648 97787080 97760760 97728048 97698624 97682864 
1804.186 97689424 97722536 97780904 97857752 97941576 98018232 98073208 
1807.561 98094448 98074848 98014992 97923752 97817624 97717888 97645520 
1810.937 97616160 97635784 97699016 97790784 97890584 97978472 98040376 
1814.312 98071048 98073912 98057648 98032216 98004744 97977736 97949568 
1817.687 97916760 97877608 97834232 97793304 97764552 97757920 97780136 
1821.062 97832400 97909488 98000704 98091776 98168376 98219424 98240240 
1824.438 98234000 98211408 98187864 98178864 98195312 98239664 98304928 
1827.813 98376792 98438000 98473760 98476096 98445424 98388904 98316648 
1831.188 98237560 98156632 98075360 97994152 97915888 97847888 97801552 
1834.563 97788952 97818360 97890592 97997104 98121744 98245784 98352344 
1837.938 98430776 98477560 98495296 98489288 98464752 98424792 98371056 
1841.314 98304760 98228672 98147728 98068912 97999536 97945568 97910632 
1844.689 97895552 97899304 97919680 97953672 97997368 98045320 98090504 
1848.064 98124824 98141224 98135672 98109008 98066816 98017832 97970768 
1851.439 97930920 97898024 97866192 97825960 97767992 97686992 97584424 
1854.815 97468880 97354608 97257560 97191472 97164280 97176464 97221744 
1858.190 97289560 97368952 97451904 97535760 97623080 97719544 97830328 
1861.565 97956552 98093032 98228280 98346936 98433600 98477376 98474408 
1864.940 98428960 98351368 98255328 98154288 98059136 97976824 97910952 
1868.316 97862536 97831384 97816968 97818360 97834624 97864152 97904408 
1871.691 97951912 98001816 98048312 98084488 98103592 98100336 98072256 
1875.066 98021160 97953344 97878384 97807528 97751352 97718184 97712848 
1878.441 97737296 97790416 97868384 97964368 98067952 98165840 98243728 
1881.817 98290760 98303416 98289008 98264888 98253344 98273416 98332560 
1885.192 98421480 98515872 98584000 98599312 98551208 98450784 98327696 
1888.567 98219752 98159528 98162632 98223160 98317664 98415448 98490560 
1891.942 98530416 98537200 98523080 98501576 98480952 98461008 98436440 
1895.318 98402096 98358400 98312992 98277816 98263440 98274000 98305008 
1898.693 98345624 98383480 98410432 98424160 98427272 98423008 98411328 
1902.068 98386992 98342696 98273024 98180152 98075688 97979024 97911648 
1905.443 97890400 97923272 98007944 98133920 98286480 98449848 98608728 
1908.819 98748744 98856848 98922880 98942736 98921192 98872040 98814440 
1912.194 98765976 98735416 98718080 98697728 98654344 98574576 98461208 
1915.569 98334656 98226616 98168168 98176216 98245984 98352768 98461448 
1918.944 98541864 98580720 98586440 98584104 98604296 98671136 98794456 
1922.320 98968752 99177312 99397808 99606544 99779312 99890088 99911320 
1925.695 99818720 99600240 99265896 98851864 98416240 98023296 97724056 
1929.070 97538040 97446240 97397912 97330168 97192424 96966728 96674008 
1932.445 96364096 96095944 95915728 95842304 95866072 95957056 96078992 
1935.821 96202232 96309456 96395232 96460160 96505320 96530792 96537040 
1939.196 96528696 96514872 96507760 96516456 96542512 96579776 96618680 
1942.571 96655000 96695832 96759536 96867704 97031144 97239064 97454776 
1945.946 97625856 97702968 97662048 97521248 97340408 97205176 97199248 
1949.322 97374984 97735960 98233616 98781656 99282248 99654576 99856608 
1952.697 99892160 99802392 99647456 99483592 99347792 99251464 99184592 
1956.072 99128328 99070592 99019352 99006672 99082528 99297184 99676920 
1959.447 100200616 100787232 101305704 101606792 101571040 101149752 
1962.340 100386520 99402088 98354568 97392424 96617824 96069944 95734704 
1965.716 95567416 95518752 95555808 95665320 95847288 96101640 96419984 
1969.091 96788200 97196288 97646816 98153536 98728472 99355080 99970888 
1972.466 100467536 100717272 100618960 100148392 99381720 98478536 97629248 
1975.841 96984072 96599840 96424136 96319592 96128552 95747160 95173664 
1979.217 94506296 93896592 93486928 93372592 93588848 94120664 94922552 
1982.592 95931936 97076112 98271664 99420664 100414616 101148800 101546688 
1985.967 101586744 101317192 100846256 100312504 99843624 99521248 99364464 
1989.342 99336448 99366432 99378160 99313888 99144736 98864344 98479912 
1992.718 97999696 97435200 96810432 96172384 95595752 95173632 94995656 
1996.093 95122464 95563720 96268928 97133792 98020688 98792320 99344992 
1999.468 99633048 99675520 99542272 99328920 99125360 98995088 98961792 
2002.843 99010296 99097016 99165464 99163856 99059712 98850416 98562064 
2006.219 98243056 97950552 97736232 97641856 97695072 97913544 98306576 
2009.594 98869328 99574424 100364376 101147864 101812624 102247416 102374032 
2012.969 102175072 101703344 101067608 100397240 99802464 99346104 99036192 
2016.344 98841320 98718952 98644704 98625488 98696120 98895832 99238520 
2019.719 99690960 100170624 100562896 100756688 100681512 100333144 99771624 
2023.095 99100992 98432832 97860184 97440600 97191800 97100240 97134936 
2026.470 97258168 97434368 97633336 97826408 97986728 98086712 98105088 
2029.845 98031408 97875984 97670504 97463192 97303824 97226184 97229832 
2033.220 97272016 97278016 97165440 96880464 96427088 95876704 95352352 
2036.596 94985288 94868456 95019192 95371288 95800944 96170768 96384688 
2039.971 96425440 96359600 96306704 96387000 96669960 97148600 97746960 
2043.346 98353904 98872600 99256640 99518952 99712488 99891232 100075896 
2046.721 100238144 100314832 100243152 100000744 99625328 99205032 98841208 
2050.097 98607640 98527128 98574072 98694872 98834224 98954568 99041752 
2053.472 99097536 99125800 99121024 99065160 98936880 98726264 98446256 
2056.847 98134128 97839672 97608664 97468320 97420344 97447088 97524112 
2060.222 97634280 97774848 97955256 98187328 98472960 98797232 99130032 
2063.598 99435488 99682080 99850376 99933888 99932136 99844776 99669464 
2066.973 99406016 99063752 98667040 98254456 97869328 97547952 97308952 
2070.348 97151232 97060968 97022048 97027816 97083840 97200496 97381504 
2073.723 97610264 97847840 98041920 98145176 98135552 98027760 97869680 
2077.099 97724952 97649128 97670704 97784664 97960568 98158520 98347552 
2080.474 98515936 98669632 98822696 98984232 99150728 99306416 99431472 
2083.849 99512752 99550440 99557560 99551584 99545304 99540496 99528408 
2087.224 99497128 99441376 99367888 99294464 99242224 99224128 99237256 
2090.600 99261072 99263968 99214488 99092848 98897544 98645088 98363960 
2093.975 98087152 97845112 97661720 97552472 97524032 97572424 97681560 
2097.350 97823936 97964512 98069312 98116344 98104152 98054112 98004376 
2100.725 97996344 98061296 98210064 98431304 98697952 98979120 99250064 
2104.101 99497672 99717656 99908368 100064232 100174840 100229224 100223600 
2107.476 100167312 100082520 99996880 99932856 99898760 99888080 99885000 
2110.851 99877488 99866328 99867280 99903592 99991976 100129200 100287176 
2114.226 100419688 100479440 100437128 100294256 100081944 99846856 99632144 
2117.602 99460704 99330672 99224224 99123744 99028656 98961288 98958440 
2120.977 99051976 99246632 99507632 99763912 99930824 99941656 99776608 
2124.352 99475328 99125864 98835456 98692064 98734272 98939640 99233504 
2127.727 99515328 99692440 99708712 99557424 99277856 98937336 98608360 
2131.103 98350832 98201336 98170376 98244720 98391000 98561368 98699808 
2134.478 98752952 98683680 98483888 98180848 97833352 97516384 97298272 
2137.853 97221048 97288984 97473184 97726776 98007872 98297640 98605896 
2141.228 98960720 99387616 99886720 100419952 100914560 101281760 101446320 
2144.604 101370984 101066280 100583496 99992192 99361416 98745120 98187816 
2147.979 97733032 97434928 97354976 97550064 98043704 98806080 99743080 
2151.354 100713216 101568920 102211064 102635264 102943512 103311312 
2154.247 103924880 104905512 106245680 107779632 109195448 110100024 
2157.140 110136328 109122424 107149256 104582296 101942992 99733816 98282176 
2160.515 97678600 97808904 98426984 99247264 100013280 100546856 100771712 
2163.891 100710384 100464696 100180736 100007840 100063800 100410232 
2166.784 101037600 101867928 102769488 103585240 104169064 104416240 
2169.677 104287912 103813208 103082208 102224144 101384544 100696688 
2172.570 100264912 100150144 100364200 100866640 101568696 102340208 
2175.463 103029072 103490200 103620272 103383360 102821696 102042544 
2178.356 101192440 100423520 99860112 99571568 99557320 99744320 100007648 
2181.731 100204632 100220384 100007776 99604648 99121464 98701272 98471720 
2185.106 98505296 98798624 99278496 99828376 100330136 100701128 100919936 
2188.482 101022472 101077840 101149928 101266264 101403792 101499032 
2191.375 101474400 101276272 100899544 100396200 99859584 99395296 99090920 
2194.750 98991792 99093440 99347120 99672976 99980880 100186536 100226192 
2198.125 100068856 99723368 99240024 98704888 98224624 97905960 97830944 
2201.500 98035160 98496944 99138488 99841640 100478496 100942088 101167560 
2204.876 101136824 100868240 100400016 99778736 99055248 98291384 97565832 
2208.251 96973344 96610712 96555912 96842832 97445488 98276344 99206224 
2211.626 100095832 100836224 101374736 101719976 101922928 102041640 
2214.519 102110088 102122776 102043088 101830608 101474248 101012024 
2217.412 100530640 100142760 99950040 100009920 100314664 100790168 
2220.305 101314368 101751448 101988920 101967408 101690840 101219832 
2223.198 100646496 100070144 99573920 99214552 99018432 98983464 99085648 
2226.574 99285904 99538000 99797368 100027232 100202848 100312496 100354888 
2229.949 100333592 100252888 100114440 99919216 99669736 99374624 99051144 
2233.324 98725456 98426640 98182832 98015024 97934384 97941904 98032240 
2236.699 98196480 98424928 98707456 99032992 99386832 99750008 100098848 
2240.075 100408280 100653792 100816704 100884888 100856376 100737704 
2242.968 100544680 100300040 100031432 99768448 99537432 99356144 99229768 
2246.343 99148528 99091088 99030552 98943880 98819584 98663616 98496968 
2249.718 98350352 98254272 98230048 98283608 98404240 98568688 98747760 
2253.094 98914280 99049976 99147840 99212640 99257096 99297264 99347808 
2256.469 99417784 99509024 99615984 99727680 99831272 99915624 99974544 
2259.844 100008464 100023952 100031136 100040008 100056520 100081896 
2262.737 100111520 100137800 100153056 100151536 100129760 100086048 
2265.630 100018736 99924728 99800040 99642736 99455704 99249704 99043360 
2269.005 98860760 98726096 98658512 98665744 98742784 98871752 99024496 
2272.381 99167912 99269416 99302744 99252664 99118880 98916416 98675056 
2275.756 98433752 98233960 98111264 98087760 98167488 98335376 98560680 
2279.131 98804512 99028952 99204664 99316856 99365768 99364024 99331376 
2282.506 99288824 99254768 99242360 99258760 99305552 99378992 99470792 
2285.882 99568264 99655912 99716848 99736784 99706632 99626360 99505640 
2289.257 99363648 99224792 99113616 99048872 99038600 99077416 99147920 
2292.632 99224760 99281864 99300072 99272840 99208088 99126064 99051848 
2296.007 99007704 99006080 99045960 99114320 99191440 99257920 99300632 
2299.383 99315872 99308464 99287184 99260184 99231360 99199248 99159952 
2302.758 99110440 99051952 98990768 98936512 98898952 98884352 98893560 
2306.133 98923160 98967376 99021344 99082864 99151976 99229064 99312056 
2309.508 99394472 99465768 99513832 99528496 99505328 99447136 99363480 
2312.884 99267888 99174504 99094616 99034800 98996560 98977296 98971400 
2316.259 98971744 98971440 98964536 98947376 98919472 98883648 98845264 
2319.634 98810904 98786096 98773680 98772824 98779792 98789760 98799096 
2323.009 98806984 98815544 98828472 98849096 98878136 98913096 98948808 
2326.385 98979472 99000640 99011136 99013480 99012920 99015256 99024528 
2329.760 99041328 99062144 99081008 99091320 99088024 99069752 99038608 
2333.135 99000040 98960944 98928360 98907928 98902920 98913992 98938992 
2336.510 98973536 99011488 99046192 99071856 99084816 99084808 99075144 
2339.885 99062112 99053376 99055584 99072376 99102944 99141808 99180312 
2343.261 99208712 99218792 99206176 99171472 99119880 99059464 98998760 
2346.636 98944464 98899944 98864432 98834488 98805400 98773568 98737888 
2350.011 98700360 98665528 98638736 98624360 98624272 98636888 98658064 
2353.386 98682112 98703680 98719408 98728360 98732064 98733400 98734976 
2356.762 98738232 98742304 98744736 98742176 98731672 98711904 98683896 
2360.137 98650600 98616448 98585544 98561040 98543832 98532976 98526448 
2363.512 98522168 98519352 98519144 98524208 98537840 98562416 98597896 
2366.887 98641496 98687816 98730544 98764368 98786864 98799488 98807368 
2370.263 98817560 98836752 98868720 98912576 98962568 99009056 99040952 
2373.638 99049440 99030216 98985584 98924328 98859176 98803240 98765864 
2377.013 98749280 98747712 98748928 98738560 98705616 98646504 98567232 
2380.388 98481904 98407696 98359168 98342640 98354328 98381304 98406280 
2383.764 98413648 98394376 98348032 98281928 98207176 98134344 98069960 
2387.139 98015616 97969128 97927080 97886792 97847672 97810376 97776016 
2390.514 97745312 97718416 97695672 97679048 97671440 97676208 97694824 
2393.889 97724640 97759496 97790616 97810680 97817328 97815384 97815976 
2397.265 97832656 97876336 97950264 98048360 98156512 98257576 98336416 
2400.640 98384328 98400520 98389936 98359696 98315704 98260792 98195264 
2404.015 98119400 98035888 97950824 97873328 97812064 97772984 97756456 
2407.390 97757584 97767704 97777384 97779264 97770024 97750576 97724984 
2410.766 97699072 97678576 97667656 97667904 97677296 97690536 97699600 
2414.141 97695928 97672816 97628336 97567080 97499808 97441176 97405424 
2417.516 97402504 97434944 97497768 97580760 97672616 97764224 97851304 
2420.891 97933408 98011776 98085992 98152136 98202344 98227352 98220232 
2424.267 98179000 98108496 98019488 97925608 97840632 97774904 97734152 
2427.642 97718952 97725520 97747040 97774544 97798232 97808800 97798928 
2431.017 97765328 97709896 97640456 97569184 97509968 97474552 97469360 
2434.392 97493240 97537768 97589752 97634360 97659208 97656752 97625288 
2437.768 97568200 97491952 97404792 97315432 97232992 97167472 97129888 
2441.143 97131176 97179832 97278592 97421512 97592368 97765960 97913112 
2444.518 98006664 98029416 97979200 97870408 97730736 97594312 97492808 
2447.893 97447952 97465936 97537600 97640808 97746728 97826624 97858552 
2451.269 97831632 97747960 97622024 97476864 97339480 97234256 97177832 
2454.644 97174968 97217576 97286968 97359928 97415712 97443280 97444112 
2458.019 97431616 97424504 97438840 97480608 97542576 97606144 97648544 
2461.394 97651552 97608608 97527080 97425224 97325128 97244624 97192048 
2464.770 97166144 97158792 97161112 97168200 97180216 97200816 97232664 
2468.145 97274120 97317800 97353136 97371616 97370960 97358040 97346736 
2471.520 97353000 97388752 97456768 97549696 97652856 97749960 97829208 
2474.895 97887384 97929696 97967688 98012944 98072624 98146136 98225440 
2478.271 98297976 98351080 98376248 98372016 98344096 98302520 98258656 
2481.646 98220136 98188936 98160512 98126840 98080248 98018368 97946800 
2485.021 97879104 97832880 97823272 97856448 97925528 98010272 98082520 
2488.396 98114632 98089040 98005048 97879720 97743504 97630568 97568632 
2491.771 97571208 97634152 97738736 97858136 97966424 98045784 98090800 
2495.147 98107136 98107472 98104328 98104968 98107968 98104128 98080616 
2498.522 98026312 97937496 97820200 97689176 97563656 97461168 97392240 
2501.897 97357800 97350208 97357792 97370240 97383240 97399520 97425848 
2505.272 97468144 97526392 97591872 97649960 97685440 97689616 97665368 
2508.648 97627008 97594976 97587952 97613992 97666872 97728104 97773304 
2512.023 97782080 97746056 97671280 97575504 97480952 97405832 97359080 
2515.398 97338088 97332112 97327336 97312128 97279912 97230808 97169752 
2518.773 97105152 97047512 97008480 96999512 97029840 97103800 97217488 
2522.149 97358024 97504384 97632768 97722744 97763224 97755048 97709640 
2525.524 97643616 97571928 97503320 97438040 97371000 97296592 97213632 
2528.899 97128184 97052176 97000120 96983248 97005456 97062584 97142776 
2532.274 97230672 97311112 97372008 97405984 97410080 97384896 97333176 
2535.650 97259256 97168664 97068184 96965152 96867712 96784224 96722152 
2539.025 96687776 96684248 96710824 96761704 96825720 96888168 96933688 
2542.400 96949808 96931112 96880592 96808768 96729800 96656816 96597288 
2545.775 96551704 96514656 96479496 96442792 96407440 96382952 96381520 
2549.151 96412624 96477520 96566456 96659648 96732000 96759896 96728040 
2552.526 96634032 96489432 96317256 96146496 96005640 95916184 95888288 
2555.901 95918688 95991952 96084480 96170976 96230568 96252464 96238072 
2559.276 96198896 96151664 96112112 96089392 96084400 96090712 96099552 
2562.652 96104272 96104176 96104072 96111544 96131608 96162704 96195312 
2566.027 96214568 96205448 96158856 96075728 95967632 95853480 95754224 
2569.402 95686208 95657640 95666776 95703744 95753632 95800632 95831016 
2572.777 95835456 95809232 95752728 95671232 95573872 95473264 95384296 
2576.153 95321376 95296360 95315600 95377656 95473328 95586712 95698616 
2579.528 95791208 95852784 95880840 95882704 95872952 95868288 95881040 
2582.903 95914400 95960536 96002536 96020584 95999224 95934088 95834032 
2586.278 95718880 95612704 95535496 95496240 95490768 95503712 95515672 
2589.654 95510416 95480976 95431528 95374720 95325840 95296912 95292328 
2593.029 95308432 95335592 95362616 95380576 95385200 95377152 95360464 
2596.404 95341040 95324520 95315760 95318144 95333168 95359896 95393728 
2599.779 95426728 95448296 95448088 95418944 95360440 95280080 95192240 
2603.155 95114608 95063504 95048752 95071280 95122872 95188752 95252552 
2606.530 95300848 95327376 95333664 95327800 95321008 95323080 95338624 
2609.905 95365696 95396352 95419328 95424288 95405360 95363112 95304288 
2613.280 95239520 95179872 95133552 95103936 95089864 95087144 95090440 
2616.656 95095496 95099472 95100720 95097928 95089512 95074344 95052408 
2620.031 95026176 95000864 94982864 94977488 94986336 95005768 95027800 
2623.406 95042296 95041344 95022488 94990144 94954632 94928624 94923256 
2626.781 94944432 94991392 95057920 95134152 95209896 95276624 95328176 
2630.156 95361560 95375944 95372568 95354720 95327472 95296968 95269168 
2633.532 95248216 95235280 95228000 95221920 95212304 95196408 95174432 
2636.907 95149384 95125384 95105432 95090336 95077896 95065136 95049056 
2640.282 95029280 95007840 94988128 94973360 94964752 94961184 94959520 
2643.657 94956600 94949896 94939032 94924600 94907816 94889224 94868624 
2647.033 94846024 94822280 94799864 94782272 94772160 94769904 94772088 
2650.408 94772216 94762944 94739000 94699880 94650608 94600480 94559584 
2653.783 94535432 94530288 94540568 94558544 94575048 94582176 94575184 
2657.158 94552936 94516928 94470528 94418184 94364912 94316392 94278320 
2660.534 94255248 94248776 94256504 94271536 94284696 94287264 94274040 
2663.909 94245792 94209168 94174056 94150080 94142880 94152048 94171832 
2667.284 94193992 94211048 94219464 94220512 94218896 94220040 94227200 
2670.659 94239736 94253240 94261640 94259464 94244168 94217048 94182168 
2674.035 94145272 94111184 94082848 94060776 94043376 94028056 94012272 
2677.410 93994152 93973280 93950392 93927328 93906520 93890416 93880832 
2680.785 93878224 93881264 93887104 93891840 93891376 93882416 93863504 
2684.160 93835384 93800832 93764264 93731248 93707552 93697944 93705056 
2687.536 93728896 93765432 93807304 93844920 93868704 93871864 93852384 
2690.911 93814016 93765192 93716224 93676032 93648968 93633832 93624352 
2694.286 93612264 93590120 93554496 93506648 93452216 93398320 93351400 
2697.661 93315248 93289920 93272840 93259960 93247376 93232520 93214400 
2701.037 93193560 93171432 93150008 93131328 93116928 93107672 93102848 
2704.412 93100160 93095952 93085904 93066552 93036176 92995936 92949248 
2707.787 92900880 92855416 92815464 92781496 92751712 92723368 92694296 
2711.162 92663400 92631344 92599568 92569728 92542944 92519416 92498928 
2714.538 92481264 92466416 92454720 92446288 92440800 92437168 92434184 
2717.913 92431328 92429568 92431536 92440744 92460392 92491520 92531848 
2721.288 92576240 92617296 92647704 92662160 92658616 92638832 92606952 
2724.663 92568536 92528960 92492800 92463792 92444784 92438488 92446256 
2728.039 92467936 92500080 92535856 92565536 92578176 92564952 92521520 
2731.414 92450176 92360136 92265304 92181104 92120976 92093152 92099168 
2734.789 92134368 92189824 92254872 92319712 92376888 92422424 92455120 
2738.164 92476080 92487832 92493560 92496744 92500824 92508592 92521592 
2741.540 92539472 92560464 92581496 92599224 92611400 92617720 92619800 
2744.915 92620640 92623208 92629288 92638680 92649416 92659032 92666136 
2748.290 92671232 92676912 92687048 92704816 92731104 92763400 92796312 
2751.665 92822856 92836536 92833912 92814744 92782672 92743912 92705280 
2755.041 92673096 92651992 92644656 92651936 92673368 92707072 92750112 
2758.416 92798504 92847416 92892040 92928104 92953096 92966584 92970112 
2761.791 92966992 92961304 92957368 92958632 92967640 92985472 93011840 
2765.166 93045088 93082432 93120176 93154784 93183056 93203016 93214024 
2768.542 93216400 93210840 93197544 93176152 93145736 93105816 93057144 
2771.917 93002536 92946728 92895600 92854656 92827720 92816024 92817768 
2775.292 92829200 92845696 92863400 92879544 92893008 92904104 92913536 
2778.667 92922000 92929608 92935680 92938928 92937680 92930208 92915088 
2782.042 92891808 92860920 92823976 92783584 92742384 92702256 92663464 
2785.418 92624320 92581440 92531112 92470248 92398032 92316160 92228864 
2788.793 92141512 92059088 91984952 91919936 91862256 91808752 91755376 
2792.168 91698712 91636904 91569880 91499520 91429128 91362304 91302456 
2795.543 91251080 91207456 91168144 91127552 91079496 91018800 90943080 
2798.919 90853520 90754656 90652696 90553416 90460240 90373056 90288392 
2802.294 90200824 90105272 89998360 89879680 89751280 89616544 89478632 
2805.669 89339344 89198536 89054864 88906672 88752992 88594104 88431448 
2809.044 88266976 88102168 87936768 87768816 87594376 87408432 87206232 
2812.420 86984096 86741168 86478912 86201296 85913368 85619168 85320616 
2815.795 85016040 84700272 84366024 84005624 83612824 83184248 82719664 
2819.170 82221048 81691272 81133224 80549088 79941088 79311920 78665736 
2822.545 78007752 77343296 76676192 76007776 75336800 74660352 73976496 
2825.921 73285976 72594056 71909968 71244968 70610008 70013144 69458600 
2829.296 68947288 68478760 68053776 67675848 67352032 67091788 66904784 
2832.671 66798440 66776252 66836836 66974412 67180088 67443944 67756736 
2836.046 68111144 68502912 68930904 69396480 69902512 70451840 71044800 
2839.422 71677952 72342792 73026016 73711416 74382512 75026528 75636752 
2842.797 76213824 76764832 77300144 77829576 78359120 78888160 79410128 
2846.172 79913984 80387688 80821728 81211488 81558520 81869296 82153304 
2849.547 82420024 82676432 82925296 83164824 83389544 83592168 83765832 
2852.923 83905768 84010808 84083616 84129568 84155696 84168912 84174592 
2856.298 84175808 84173480 84166568 84153280 84131576 84100104 84058176 
2859.673 84006064 83944488 83874928 83798880 83717776 83633104 83545792 
2863.048 83456536 83365296 83271496 83173736 83070160 82958408 82836272 
2866.424 82702104 82555560 82398240 82233408 82066256 81902136 81746184 
2869.799 81600880 81465984 81338192 81211848 81080920 80939976 80786120 
2873.174 80619096 80440864 80254944 80065120 79874712 79686088 79500752 
2876.549 79319288 79141336 78965656 78789960 78611360 78427160 78235744 
2879.925 78037680 77835904 77635144 77440632 77256704 77085536 76927032 
2883.300 76779720 76642072 76513560 76394848 76287168 76190608 76102680 
2886.675 76017832 75928552 75827784 75711680 75581448 75444184 75310152 
2890.050 75190568 75093824 75022896 74975048 74942856 74916696 74887408 
2893.426 74848160 74795344 74728232 74648136 74557560 74459720 74358224 
2896.801 74257200 74160600 74071896 73993080 73924328 73864056 73809840 
2900.176 73759160 73710704 73664304 73620928 73581512 73546256 73514040 
2903.551 73482856 73450560 73415688 73378504 73340920 73306344 73278336 
2906.927 73260488 73255384 73264248 73287320 73323536 73371024 73427312 
2910.302 73490024 73557544 73629960 73709104 73798176 73900072 74015696 
2913.677 74142200 74272456 74396032 74502208 74582616 74634400 74660448 
2917.052 74668560 74667648 74664464 74660496 74651528 74629368 74584864 
2920.427 74511320 74406704 74273904 74118896 73948288 73766824 73576360 
2923.803 73376248 73164384 72938632 72697544 72440200 72165584 71871944 
2927.178 71556904 71218336 70855624 70470624 70068304 69655584 69240200 
2930.553 68828880 68426752 68037040 67661792 67302848 66962312 66642480 
2933.928 66344992 66070268 65816956 65582016 65362108 65154472 64958344 
2937.304 64774908 64607308 64459624 64335840 64239340 64172372 64136200 
2940.679 64130928 64155676 64208084 64284552 64380684 64491708 64613708 
2944.054 64744188 64882140 65027512 65179788 65337076 65495912 65651748 
2947.429 65800568 65940948 66074884 66207612 66345648 66494620 66656488 
2950.805 66828620 67004304 67174656 67331960 67471512 67592984 67700040 
2954.180 67798472 67894528 67993800 68100480 68218552 68351856 68504816 
2957.555 68681512 68884312 69112512 69361376 69622712 69886280 70142304 
2960.930 70383544 70606560 70811768 71002072 71181376 71352912 71518616 
2964.306 71679016 71834312 71985152 72133080 72280440 72430080 72584296 
2967.681 72744464 72910768 73082648 73259392 73440624 73626584 73817720 
2971.056 74014248 74215216 74418016 74618520 74811448 74991352 75154184 
2974.431 75297760 75422304 75530256 75624544 75708384 75783584 75850480 
2977.807 75908184 75955256 75990776 76014584 76027160 76029216 76020784 
2981.182 76000864 75967608 75919224 75854992 75776216 75686440 75590664 
2984.557 75493880 75399832 75309848 75222368 75133920 75040168 74937080 
2987.932 74822104 74694592 74555848 74408936 74258808 74112016 73976496 
2991.308 73860648 73772312 73717144 73697104 73709976 73749552 73807096 
2994.683 73873568 73941512 74006672 74068160 74128376 74191576 74262608 
2998.058 74346312 74446672 74566848 74709304 74875680 75066704 75282632 
3001.433 75523056 75787176 76073712 76380296 76702480 77032840 77360736 
3004.809 77673096 77956912 78202480 78406720 78574568 78718456 78854960 
3008.184 78999912 79163728 79348728 79549264 79754464 79953208 80138248 
3011.559 80308912 80470480 80631576 80800048 80979576 81168344 81359664 
3014.934 81544784 81715240 81865272 81991936 82094504 82172840 82226648 
3018.310 82255872 82261832 82248704 82224016 82198008 82180904 82179960 
3021.685 82196856 82226704 82259520 82282888 82286176 82263704 82216240 
3025.060 82150600 82077080 82006320 81946184 81900336 81867960 81845368 
3028.435 81827848 81811968 81796584 81783160 81774800 81775080 81786568 
3031.811 81810272 81845128 81888632 81937760 81989744 82042768 82096248 
3035.186 82150400 82205960 82263144 82320784 82375888 82423064 82454912 
3038.561 82463320 82440880 82383144 82290472 82169176 82030944 81890816 
3041.936 81764112 81662416 81591232 81548424 81525424 81510288 81491688 
3045.312 81462248 81420656 81370912 81319920 81274072 81235816 81202664 
3048.687 81167992 81123752 81064136 80988200 80901216 80812944 80734960 
3052.062 80677104 80644616 80636904 80648648 80671536 80697304 80719792 
3055.437 80735952 80745464 80749704 80749968 80746744 80739336 80726728 
3058.813 80708288 80684872 80659056 80634512 80614944 80602944 80598928 
3062.188 80601384 80607016 80612224 80614000 80611024 80603672 80593152 
3065.563 80580880 80567640 80552936 80535824 80515224 80491472 80466232 
3068.938 80442776 80425072 80416312 80417784 80428408 80445096 80463736 
3072.313 80480776 80494168 80503936 80511656 80519176 80526808 80533288 
3075.689 80534808 80526680 80504928 80468112 80418464 80362432 80309344 
3079.064 80269240 80250152 80256320 80286584 80334592 80390560 80443512 
3082.439 80484040 80506416 80509496 80496216 80472152 80443432 80415200 
3085.814 80390464 80370168 80354264 80342280 80334168 80330016 80329408 
3089.190 80330336 80328848 80319480 80296344 80255144 80194816 80118560 
3092.565 80033504 79948696 79873272 79813440 79771128 79743264 79722536 
3095.940 79699648 79665696 79614272 79543616 79456576 79360296 79264176 
3099.315 79177768 79108416 79059928 79032392 79022968 79027216 79041472 
3102.691 79063168 79091080 79124128 79159888 79193808 79218664 79227000 
3106.066 79213184 79176016 79119992 79054400 78990664 78938680 78903736 
3109.441 78885056 78876752 78870664 78859704 78840496 78814320 78785912 
3112.816 78761040 78743856 78735264 78733496 78734504 78734744 78731448 
3116.192 78723400 78709696 78688816 78658200 78614896 78557320 78486944 
3119.567 78409360 78333704 78270352 78227736 78209808 78214432 78234184 
3122.942 78258584 78277808 78285360 78279736 78264264 78244960 78227688 
3126.317 78215664 78207728 78198800 78181184 78147704 78093760 78019512 
3129.693 77929992 77833816 77740440 77657464 77588240 77531536 77482312 
3133.068 77434568 77383952 77330112 77276504 77228984 77192296 77167648 
3136.443 77150712 77133240 77105752 77061776 77001128 76930144 76859832 
3139.818 76801080 76760312 76736328 76720968 76702448 76670496 76620920 
3143.194 76557056 76488352 76425592 76375192 76335696 76297088 76244264 
3146.569 76162872 76045048 75893032 75718896 75540728 75376456 75238584 
3149.944 75130872 75048248 74979880 74913848 74840960 74757496 74665624 
3153.319 74571160 74480992 74400800 74333352 74278464 74234024 74196712 
3156.695 74163024 74129600 74092784 74048808 73993336 73922800 73834896 
3160.070 73730072 73612048 73487616 73365192 73253232 73157560 73080032 
3163.445 73017520 72962928 72907104 72841512 72760800 72664520 72557488 
3166.820 72448200 72346728 72261648 72197984 72155864 72130928 72116024 
3170.196 72102944 72085048 72058120 72021328 71975912 71924872 71870888 
3173.571 71815456 71758296 71697328 71629344 71550696 71458664 71352320 
3176.946 71233144 71105176 70974440 70847888 70731848 70630424 70544432 
3180.321 70471176 70405216 70339680 70268720 70188912 70100224 70005888 
3183.697 69910976 69820608 69738384 69665376 69600272 69540520 69483616 
3187.072 69427952 69373304 69319768 69267128 69213320 69154272 69084880 
3190.447 69000120 68897312 68777440 68645304 68508760 68377072 68258808 
3193.822 68160408 68085120 68033352 68002960 67989968 67988744 67992192 
3197.198 67991904 67978840 67944544 67883152 67792784 67676672 67542576 
3200.573 67400896 67262336 67134832 67021904 66922568 66831956 66744164 
3203.948 66654496 66560892 66464836 66370592 66283484 66208452 66148300 
3207.323 66103272 66071144 66047972 66028876 66009292 65985216 65953688 
3210.698 65912644 65860900 65797776 65722900 65636568 65539972 65435356 
3214.074 65326188 65217040 65113008 65018500 64936720 64868996 64815124 
3217.449 64773520 64742676 64721048 64707620 64700768 64697504 64692804 
3220.824 64680048 64652344 64604956 64537156 64453516 64362688 64275604 
3224.199 64201788 64146704 64110376 64088532 64074492 64062036 64047348 
3227.575 64029176 64007416 63980792 63945528 63895404 63823624 63726384 
3230.950 63605196 63468068 63327576 63197744 63089476 63007576 62950112 
3234.325 62910124 62878840 62849348 62818080 62785632 62753836 62723912 
3237.700 62694488 62661232 62618648 62562580 62492060 62410164 62322976 
3241.076 62237180 62157568 62085596 62018948 61953344 61884576 61810304 
3244.451 61730808 61648744 61567688 61490416 61417740 61348384 61279696 
3247.826 61208908 61134432 61056912 60979168 60905808 60841624 60790588 
3251.201 60754308 60731212 60716776 60704188 60685764 60654956 60608004 
3254.577 60545032 60469852 60389136 60310532 60240680 60183672 60140376 
3257.952 60108352 60082872 60058124 60028412 59989028 59937024 59871336 
3261.327 59793196 59705796 59614064 59523660 59440160 59367488 59307352 
3264.702 59258620 59218224 59181756 59145164 59105240 59060000 59007912 
3268.078 58947216 58875512 58789900 58688652 58572556 58446248 58318448 
3271.453 58200328 58102872 58033580 57993924 57978876 57978052 57978696 
3274.828 57969768 57944604 57902568 57848392 57789696 57734236 57687144 
3278.203 57649780 57620056 57593952 57567140 57536380 57500136 57457944 
3281.579 57409644 57354492 57291052 57217684 57133476 57039432 56938700 
3284.954 56836508 56738936 56651592 56578400 56520968 56478684 56449340 
3288.329 56430236 56418716 56412500 56409160 56405960 56399148 56384200 
3291.704 56356400 56312460 56251376 56175636 56090676 56004332 55924532 
3295.080 55857652 55806476 55770248 55744560 55723124 55699412 55668808 
3298.455 55629296 55582208 55531568 55483152 55442892 55415544 55403380 
3301.830 55405572 55417484 55431484 55437860 55426700 55390196 55324736 
3305.205 55232292 55120108 54999648 54883652 54783472 54706276 54654132 
3308.581 54623972 54609228 54602080 54595464 54584480 54566584 54541452 
3311.956 54509756 54472668 54431612 54388376 54345140 54304428 54268532 
3315.331 54238796 54214880 54195032 54176448 54156676 54134624 54110824 
3318.706 54087352 54066328 54048836 54033912 54019004 54000844 53977448 
3322.082 53949320 53919296 53892156 53872048 53860928 53857052 53855896 
3325.457 53851152 53837540 53812376 53776812 53734948 53692320 53654248 
3328.832 53624300 53604072 53593828 53592880 53600436 53615116 53634584 
3332.207 53654624 53669356 53672224 53657676 53623336 53571384 53508288 
3335.583 53443452 53386436 53344256 53319804 53311444 53313912 53320904 
3338.958 53327304 53330648 53331680 53333568 53340000 53353840 53375400 
3342.333 53402432 53430516 53454352 53469192 53472224 53463000 53443008 
3345.708 53415036 53381896 53345700 53307460 53267784 53227892 53190588 
3349.083 53160620 53143776 53145468 53168244 53210080 53263908 53318660 
3352.459 53361900 53383440 53378124 53347540 53299288 53244868 53196448 
3355.834 53164204 53154100 53168108 53204364 53258760 53325852 53399580 
3359.209 53473736 53542000 53598776 53639984 53664088 53672456 53669440 
3362.584 53661124 53653980 53653272 53662424 53682804 53714252 53755880 
3365.960 53806528 53864456 53927164 53990924 54050796 54101396 54138040 
3369.335 54158080 54161668 54151988 54134340 54115112 54100632 54096232 
3372.710 54105412 54129696 54168436 54218440 54274636 54330832 54381380 
3376.085 54422740 54454984 54482228 54511504 54550032 54602836 54670036 
3379.461 54746308 54822056 54886372 54930432 54950148 54947628 54929768 
3382.836 54906516 54887736 54881244 54891968 54922008 54971632 55040040 
3386.211 55125460 55225116 55334592 55447996 55558152 55657940 55741764 
3389.586 55806560 55852324 55882460 55902416 55919272 55940280 55971748 
3392.962 56018428 56081880 56160292 56248568 56338724 56422300 56492020 
3396.337 56544692 56581836 56609344 56635696 56669128 56715372 56775836 
3399.712 56848316 56928224 57010852 57093448 57175592 57258832 57345580 
3403.087 57437236 57533636 57633028 57732932 57831236 57927164 58021492 
3406.463 58116096 58213024 58313760 58418452 58525664 58632808 58736084 
3409.838 58831536 58915484 58985460 59041160 59084732 59121096 59156752 
3413.213 59198876 59253088 59322556 59406884 59502876 59605564 59709608 
3416.588 59810744 59906004 59993956 60073472 60143816 60204360 60255264 
3419.964 60298192 60336772 60376196 60421900 60478040 60545760 60623216 
3423.339 60705532 60786896 60862392 60929376 60988352 61042256 61095584 
3426.714 61152832 61217724 61292956 61380600 61482248 61599696 61734072 
3430.089 61885560 62052392 62230408 62413588 62594624 62766584 62923928 
3433.465 63063248 63183264 63283908 63365440 63427616 63469904 63491976 
3436.840 63495656 63485664 63471020 63463908 63478244 63526272 63615764 
3440.215 63747520 63914900 64104776 64301232 64488884 64657532 64803400 
3443.590 64929780 65044068 65154548 65266672 65380668 65491448 65590376 
3446.966 65668732 65720900 65746864 65752672 65749092 65749048 65764352 
3450.341 65803644 65870948 65965904 66084984 66223128 66374984 66535636 
3453.716 66700516 66864868 67023200 67169328 67297688 67404832 67491568 
3457.091 67563848 67632336 67710288 67809504 67936792 68091160 68263320 
3460.467 68438040 68598592 68731608 68831080 68899800 68948040 68989408 
3463.842 69037056 69099584 69180224 69276992 69385008 69498536 69612272 
3467.217 69721856 69823440 69913344 69988888 70049176 70096928 70138536 
3470.592 70183160 70240104 70315608 70410536 70519944 70634752 70745104 
3473.968 70844288 70930352 71006224 71077088 71147560 71218536 71287064 
3477.343 71347904 71396736 71432968 71461560 71492104 71535944 71602512 
3480.718 71696352 71815760 71953488 72098912 72240840 72370392 72482376 
3484.093 72575952 72653984 72722080 72786928 72854504 72928760 73010456 
3487.469 73097296 73184992 73269560 73349672 73427800 73510512 73605776 
3490.844 73719256 73851064 73993384 74131880 74249576 74332728 74375624 
3494.219 74383920 74372936 74363384 74374952 74420584 74503528 74616936 
3497.594 74747360 74879240 74999360 75099240 75176256 75232872 75274720 
3500.969 75309344 75344296 75387464 75445072 75521584 75618536 75734168 
3504.345 75863552 75999976 76136432 76267384 76389560 76501624 76604112 
3507.720 76697624 76783264 76862272 76937032 77011360 77089864 77176272 
3511.095 77271704 77372384 77469784 77552072 77607856 77630216 77619920 
3514.470 77585960 77543640 77510176 77499864 77520544 77571888 77646696 
3517.846 77734456 77824912 77911392 77991680 78067424 78141952 78217968 
3521.221 78296248 78375736 78454464 78531248 78606800 78683560 78764816 
3524.596 78853200 78949312 79051552 79157096 79263048 79367760 79471224 
3527.971 79573624 79674144 79768728 79850192 79909520 79939304 79937432 
3531.347 79910200 79871832 79842208 79841480 79884304 79975368 80108464 
3534.722 80268152 80435280 80592504 80728624 80841184 80934656 81017264 
3538.097 81097224 81179512 81265136 81352080 81437344 81518832 81596560 
3541.472 81672824 81751544 81837176 81934408 82047152 82177944 82326800 
3544.848 82489960 82658800 82820320 82959352 83062008 83120352 83135592 
3548.223 83118688 83087584 83062552 83059864 83087472 83143040 83216128 
3551.598 83292640 83360384 83413504 83454624 83493576 83543760 83617296 
3554.973 83721720 83857472 84018800 84195968 84378160 84557632 84730544 
3558.349 84898480 85066552 85240720 85425104 85618936 85815632 86003648 
3561.724 86168928 86299040 86386472 86431088 86440576 86427928 86408248 
3565.099 86395056 86397640 86420392 86463328 86523968 86599056 86685112 
3568.474 86779072 86877840 86978512 87078976 87178896 87279960 87386136 
3571.850 87500848 87624864 87754424 87880352 87990384 88073088 88122864 
3575.225 88143000 88146432 88151952 88179136 88242016 88344624 88480232 
3578.600 88634128 88788096 88926136 89038512 89122696 89182528 89225712 
3581.975 89260776 89295120 89334504 89382752 89442032 89512240 89590664 
3585.351 89671488 89746264 89805680 89842184 89853080 89842240 89820192 
3588.726 89801824 89802624 89834200 89900680 89997384 90111688 90225888 
3592.101 90321984 90385672 90410656 90398992 90361096 90311328 90264160 
3595.476 90229888 90213080 90212472 90224704 90247592 90283048 90338200 
3598.852 90422776 90544768 90705944 90898584 91105920 91305600 91475728 
3602.227 91601248 91677480 91710032 91711936 91697472 91678096 91659288 
3605.602 91640920 91620192 91594480 91563952 91532016 91504344 91486576 
3608.977 91482936 91495400 91524432 91570168 91632664 91711896 91806024 
3612.353 91909856 92014488 92107952 92178552 92218392 92226264 92209088 
3615.728 92180264 92156200 92151760 92175784 92228880 92302880 92383360 
3619.103 92453832 92500992 92518904 92511648 92492632 92481144 92496944 
3622.478 92555000 92660632 92808152 92981704 93159872 93320664 93447264 
3625.854 93531072 93571968 93576392 93552856 93509496 93452384 93385352 
3629.229 93312360 93238936 93172496 93121760 93094992 93097872 93133272 
3632.604 93201552 93301544 93431216 93587648 93766088 93958032 94150552 
3635.979 94327712 94473344 94575344 94629600 94642272 94627920 94605576 
3639.354 94592744 94600376 94630496 94677040 94729864 94779088 94819744 
3642.730 94852424 94883168 94920208 94970408 95037632 95121744 95219288 
3646.105 95325312 95434672 95542080 95642736 95731424 95802856 95852296 
3649.480 95876896 95877152 95857224 95825016 95790176 95762584 95750152 
3652.855 95757896 95787088 95835072 95896032 95961168 96019816 96061960 
3656.231 96080088 96072264 96043952 96008000 95982896 95988392 96041040 
3659.606 96149504 96311712 96514584 96736160 96950448 97133136 97266296 
3662.981 97341688 97360992 97333784 97274848 97200280 97126040 97066152 
3666.356 97032608 97034768 97078312 97163272 97282912 97422784 97562816 
3669.732 97681344 97761056 97794424 97787112 97756040 97723464 97709120 
3673.107 97723808 97765664 97822120 97875088 97907584 97911536 97889728 
3676.482 97855048 97824240 97811360 97823400 97859104 97912768 97978016 
3679.857 98051440 98133240 98226152 98330768 98443464 98555680 98656328 
3683.233 98736200 98791784 98827232 98851880 98877056 98910072 98951976 
3686.608 98997304 99037640 99065144 99076200 99072336 99057856 99036848 
3689.983 99010504 98977960 98939208 98898792 98867912 98863320 98901624 
3693.358 98992936 99134472 99309088 99488016 99638400 99731912 99751600 
3696.734 99694384 99569168 99392008 99180912 98952632 98722992 98507960 
3700.109 98325128 98192416 98124408 98127376 98195360 98310688 98447952 
3703.484 98581608 98693320 98776312 98835408 98881600 98926128 98974672 
3706.859 99025288 99070896 99103928 99121600 99127648 99131664 99144912 
3710.235 99174560 99220752 99275496 99326256 99360264 99369400 99352768 
3713.610 99315160 99264952 99210136 99155864 99104544 99056400 99012104 
3716.985 98973264 98942688 98923016 98915336 98917904 98927328 98939552 
3720.360 98952152 98965824 98984304 99013008 99056584 99116584 99190200 
3723.736 99270200 99347536 99413592 99463320 99496776 99519280 99539504 
3727.111 99566232 99604648 99653464 99703760 99740800 99747976 99711872 
3730.486 99627720 99502392 99354712 99211672 99101912 99047976 99060376 
3733.861 99134536 99253656 99393096 99527424 99636656 99710424 99748968 
3737.237 99760976 99760064 99759656 99769512 99794320 99832952 99880352 
3740.612 99928680 99970288 99999000 100012904 100014224 100009744 100008312 
3743.987 100018336 100043656 100081704 100122752 100153312 100161000 
3746.880 100138648 100087040 100014072 99931960 99852392 99782968 99725000 
3750.255 99674552 99626160 99577296 99530560 99492608 99470440 99466088 
3753.631 99473288 99478480 99466024 99425104 99356120 99272448 99197576 
3757.006 99156344 99166280 99229968 99334136 99454208 99563816 99644728 
3760.381 99692424 99715568 99729880 99748952 99777376 99808240 99827400 
3763.756 99820728 99782272 99718312 99645984 99586040 99554216 99555024 
3767.132 99578768 99606856 99619136 99602280 99554248 99484440 99409312 
3770.507 99344544 99299472 99274536 99263192 99255400 99243024 99222408 
3773.882 99194512 99162792 99130456 99098160 99064256 99026120 98982376 
3777.257 98934352 98886328 98844944 98816456 98806072 98816176 98846608 
3780.633 98894520 98955136 99021832 99087008 99143048 99184192 99208680 
3784.008 99219568 99225296 99236904 99264928 99315088 99386272 99470304 
3787.383 99555280 99629416 99685176 99721760 99743536 99757792 99769744 
3790.758 99780344 99785248 99777368 99749984 99700776 99633392 99556336 
3794.134 99481064 99418288 99374776 99353000 99350496 99362344 99382216 
3797.509 99404632 99425736 99443320 99457424 99469512 99481832 99496440 
3800.884 99513792 99531680 99545056 99547288 99532712 99499496 99451656 
3804.259 99398728 99353608 99328824 99332032 99363792 99416360 99476512 
3807.635 99529872 99565600 99579392 99573424 99554104 99528464 99501760 
3811.010 99476088 99451872 99428808 99407488 99389192 99375008 99364072 
3814.385 99352696 99335120 99305560 99261576 99206536 99149360 99103504 
3817.760 99082080 99094432 99143808 99226792 99334696 99456032 99579280 
3821.135 99693888 99792168 99868792 99920560 99946112 99945464 99920504 
3824.511 99875184 99815712 99750856 99690704 99645328 99622800 99627152 
3827.886 99656256 99701584 99748976 99781840 99785048 99749344 99675352 
3831.261 99573688 99463408 99366032 99299416 99272824 99284048 99321848 
3834.636 99370064 99413664 99444128 99460064 99466584 99471392 99480648 
3838.012 99496336 99516384 99537040 99555744 99573128 99592704 99618504 
3841.387 99652128 99690768 99726672 99750048 99751680 99726664 99675528 
3844.762 99603352 99518136 99427296 99336600 99249848 99169600 99099264 
3848.137 99043232 99006096 98991432 98999816 99027656 99068048 99112496 
3851.513 99153104 99185064 99206352 99217672 99220352 99215024 99200456 
3854.888 99175312 99138816 99093504 99045304 99003792 98979456 98981544 
3858.263 99015552 99081104 99171816 99276072 99379416 99468168 99531728 
3861.638 99565312 99569728 99550848 99516456 99473640 99426872 99377224 
3865.014 99323304 99263880 99200064 99136408 99080448 99039760 99019536 
3868.389 99019448 99033528 99051088 99060880 99055104 99032032 98997024 
3871.764 98959880 98931144 98918080 98922792 98942416 98971024 99002280 
3875.139 99031568 99056720 99077832 99095200 99108048 99114752 99113440 
3878.515 99104160 99089848 99076776 99073280 99086984 99122128 99177728 
3881.890 99247432 99320568 99385016 99429888 99447576 99435056 99394128 
3885.265 99330616 99253520 99172760 99098264 99037992 98997776 98980808 
3888.640 98988248 99019968 99074400 99148584 99237728 99334184 99428392 
3892.016 99509496 99568160 99598008 99598248 99573176 99531224 99482200 
3895.391 99434664 99393256 99358504 99327424 99295008 99257064 99211000 
3898.766 99156912 99097440 99037320 98982744 98941312 98920896 98928000 
3902.141 98965344 99030232 99112056 99194504 99258064 99286776 99273384 
3905.517 99222600 99150240 99077832 99024752 99001432 99005928 99025160 
3908.892 99040760 99037144 99008248 98959808 98907624 98870912 98865088 
3912.267 98896032 98958584 99038952 99120384 99188616 99235752 99261376 
3915.642 99270192 99269336 99265000 99261040 99258720 99256968 99253064 
3919.018 99243552 99223960 99190296 99140064 99074584 98999864 98926744 
3922.393 98868200 98835552 98834336 98861584 98905984 98951440 98982248 
3925.768 98988328 98968264 98928488 98879920 98833472 98795720 98768224 
3929.143 98749128 98736912 98732992 98743176 98774544 98832008 98913000 
3932.519 99005568 99089688 99142968 99148112 99099736 99007672 98894712 
3935.894 98790224 98720512 98700968 98730624 98793320 98862624 98911384 
3939.269 98920104 98883976 98813024 98729328 98658968 98623504 98633904 
3942.644 98688192 98773232 98869248 98957000 99022488 99059336 99068184 
3946.020 99054704 99025272 98986144 98942224 98898320 98860232 98834248 
3949.395 98825752 98836304 98861760 98891696 98911800 98909360 98877656 
3952.770 98819672 98748312 98681600 98636504 98622120 98636352 98666896 
3956.145 98696176 98709072 98699376 98672352 98642232 98626144 98636496 
3959.521 98674792 98730960 98786272 98820736 98820264 98781496 98712736 
3962.896 98629824 98550072 98486688 98445072 98422968 98413608 98408840 
3966.271 98403504 98395568 98385928 98376376 98368104 98361952 98358792 
3969.646 98361496 98375216 98406376 98460288 98537064 98629680 98724208 
3973.021 98802480 98847440 98849016 98807104 98732392 98642896 98558064 
3976.397 98492432 98451464 98430616 98417736 98398392 98361384 98303384 
3979.772 98230032 98154704 98094240 98064224 98074704 98127088 98214512 
3983.147 98322848 98433896 98529656 98594848 98619584 98600800 98541968 
3986.522 98452280 98345144 98235912 98140080 98070640 98036888 98042888 
3989.898 98087104 98162928 98259992 98366304 98470104 98562552 98637792 
3993.273 98693448 98729352 98746440 98745864 98728744 98696656 98653040 
3996.648 98602936 98553016 98509632 98476552 98453176 98434368 98411896 
4000.023 98378056 98328976 
##END=
