##TITLE=X8254
##JCAMP-DX=4.24
##DATA TYPE=INFRARED SPECTRUM
##DATE=31/10/2018
##SAMPLING PROCEDURE=Diamant-ATR
##ORIGIN=ComPlat
##XUNITS=1/CM
##YUNITS=TRANSMITTANCE
##RESOLUTION=4
##FIRSTX=3997.453
##LASTX=373.96442
##DELTAX=-1.4165319
##MAXY=0.9449147
##MINY=0.48325753
##XFACTOR=1
##YFACTOR=8.8002039e-010
##NPOINTS=2559
##FIRSTY=0.84483522
##XYDATA=(X++(Y..Y))
3997+960017780+960732951+961158979+960968181+960575274+960360499+960216638
3988+960022589+959998951+960301640+960736609+961092738+961348761+961458147
3978+961336773+961073841+960840034+960675448+960535922+960397141+960239260
3968+960090320+960076570+960331171+960890968+961632080+962261640+962515157
3958+962337363+961724059+960688113+959659280+959470039+960487697+961989564
3948+962827532+962703381+962364658+962643642+963553269+964294111+964304541
3938+963796085+963112138+962366487+961883904+962220595+963270493+964190618
3928+964644890+964999326+965322674+965136820+964282868+963316279+962871828
3918+963096763+963599801+963883119+963861310+963785045+963775766+963681078
3908+963436975+963414489+964159529+965632949+966948488+967428362+967286533
3898+966864366+966217535+965505344+965108440+965310279+965818126+965916065
3888+965524038+965251692+965390201+965459219+965213017+965091982+965105596
3878+964743845+964316394+964617323+965477913+965910849+965814333+966055726
3869+966714071+967216635+967691497+968310219+968357360+967280979+965698174
3859+964444880+963924164+964610753+967207830+970598782+971496827+969962991
3849+968221560+967273732+967010597+966941918+966769340+966725653+967292087
3839+968433558+969316499+969325371+968834728+968308391+967658918+966767172
3829+966090269+966198097+966890375+967610762+968778173+971178423+973395665
3819+973043193+971048177+969658066+969070432+967985314+966055049+964026641
3809+962991576+963891382+966177439+967812058+968068691+967961947+968295996
3799+968943843+969798540+970626280+970588622+969357950+967744124+966640448
3789+966374062+966970501+968159315+968985430+968517476+967220563+966438474
3779+966626969+966962237+966849533+966653316+966823728+967427143+968195551
3769+968569426+968288952+967879586+967851342+968079257+968355396+968756634
3759+969147171+969060340+968469116+967825401+967529349+968063205+969622169
3750+970853111+970461220+969291167+968597128+968206997+966979780+964938774
3740+962913008+961728055+962174944+963979771+965082567+964409795+963309641
3730+962965026+963416453+964324183+965239500+965698106+965710908+965673452
3720+965732243+965780535+965801532+965880912+966217129+967101966+968317941
3710+968834999+968115696+966571023+964819094+963574740+963493802+964437159
3700+965392098+965756220+965769156+965964763+966968807+969230954+972488611
3690+975389123+976003646+973977406+970898017+968184985+966559644+966270027
3680+967010936+968330539+970386919+973231214+974922795+973939951+971857155
3670+970649715+970724897+971041674+970842342+970095947+969018144+967958425
3660+967215890+966994274+967584076+968922169+970140785+970745351+971432211
3650+973104828+975042950+974931194+972850295+970767364+969569406+969088855
3640+968985633+969074428+969054109+968465256+967147549+965474459+964168876
3631+964171586+966002828+967930790+967660476+965977226+964839819+965456984
3621+967951381+971108660+973055113+973358142+972965234+972409502+971672385
3611+971120242+971549250+972960493+973891862+973110924+971173140+969452096
3601+968592725+968218376+967957138+967959915+968214922+968274322+967948671
3591+967715880+968298096+969909551+971584945+972119139+971594562+970701733
3581+969949512+969689425+969903862+970085178+969918898+969759324+969993402
3571+970555976+971510847+973277745+975395964+976076931+974846530+973236429
3561+972466192+972418849+972411804+972223783+972015646+971780755+971397465
3551+970978007+970851147+971286454+972177455+972840135+972634843+971932608
3541+971665341+972128350+972788727+973057755+972896691+972655162+972675210
3531+973188408+974166443+975048165+975082505+974245011+973347373+973033372
3521+973072791+972866889+972324973+971978665+972328969+973225728+974004905
3512+974184798+973850411+973401761+973188543+973418355+974098306+974866849
3502+975153351+974755432+974030101+973465969+973253497+973212859+973097174
3492+972949114+973059651+973549008+974151407+974545263+974700367+974683976
3482+974397000+973777600+973048002+972515094+972358297+972613711+973058364
3472+973251940+973003231+972535143+972006231+971321674+970603997+970318917
3462+970662178+971250557+971673808+972028447+972656855+973523202+974160551
3452+974356835+974574929+975304662+976185504+976330584+975582766+974777106
3442+974669684+975207198+975786433+975898392+975564478+975272897+975406056
3432+975787991+975965785+975797541+975565969+975646839+976137347+976690574
3422+976787768+976288929+975568542+975082437+975017619+975321934+975813728
3412+976282562+976600424+976739408+976774696+976910158+977356708+978087119
3403+978730021+978794501+978126606+977151551+976516776+976464623+976682446
3393+976704594+976347110+975853961+975650565+975837976+976011097+975771126
3383+975367720+975496544+976333767+977150738+977248067+976944904+977053883
3373+977685000+978198536+978137646+977707216+977427690+977495556+977529625
3363+977196592+976980801+977658585+979017472+979881651+979522812+978366171
3353+977191512+976335528+975865407+975899137+976407932+977055102+977436834
3343+977278275+976480675+975269239+974071620+972963609+971580136+969800436
3333+968089146+966897690+966021048+964759761+962612012+959583150+955693563
3323+950391853+942690095+931744430+917265510+899656607+879872048+859172106
3313+839146019+821617241+808050793+799316612+796095597+798741102+806502192
3303+817524732+829780449+841825050+852916066+862743831+871087204+877845469
3293+883407199+888550825+893708675+898574062+902552716+905378520+907230556
3284+908501324+909618073+910933070+912506664+914019300+915153997+916006391
3274+916872535+917825646+918825829+919984096+921338581+922612804+923627481
3264+924775725+926599991+928971117+931148126+932631028+933550002+934259959
3254+934940926+935610176+936283964+937090639+938220866+939651751+940977450
3244+941725674+941967947+942361126+943286737+944208759+944432542+944222847
3234+944356684+944855319+945038870+944552968+943649437+942801445+942508508
3224+943002538+943826079+944186611+943876674+943371469+942947202+942266844
3214+941026216+939509042+938174877+937052981+935868095+934485367+932921662
3204+931132819+929096623+927062052+925477147+924582420+924174070+923824443
3194+923209581+922226263+921031962+919952602+919130618+918438205+917935641
3184+917992331+918702762+919643681+920410937+920962809+921343999+921478919
3174+921384705+921313114+921515765+922004715+922661638+923366717+923849504
3165+923769513+923211207+922687511+922414555+922045353+921247008+920089824
3155+918898775+918077063+917901911+918248355+918707842+918980391+918949370
3145+918616676+918187600+917930425+917907871+918176492+919027261+920542267
3135+922178512+923268033+923750752+924089474+924665120+925484259+926269938
3125+926694747+926627151+926237088+925831989+925533228+925124607+924331613
3115+923204772+921994149+920720468+919258223+917801940+916868065+916787804
3105+917409710+918284049+919047445+919637382+920109060+920370028+920316723
3095+920075669+919747444+919087406+917847184+916335428+915269952+915062425
3085+915402028+915549817+914936242+913456388+911342639+908898025+906313343
3075+903659508+900998560+898299616+895135902+890834985+885318161+879595774
3065+875133860+872750000+872113735+872149565+871920363+871211762+870302880
3055+869444593+868881613+869047825+870189092+871954500+873737247+875250560
3046+876537042+877640380+878521560+879247027+880057631+880994147+881443881
3036+880497679+877984115+874763303+871909797+870010350+869286712+869916949
3026+871953551+874983429+878079751+880377186+881685477+882273044+882247848
3016+881657437+880963397+880821162+881500030+882872937+884747189+886951764
3006+889305687+891648502+893819889+895659327+897114189+898266360+899215746
2996+900017206+900713887+901366069+902014119+902587326+902890558+902763833
2986+902170916+901044211+899256791+896864261+894099686+891085928+887966646
2976+885237087+883292192+881691438+879613384+877034256+874757817+873337973
2966+872628152+872359192+872602076+873529584+875055563+876912340+878915890
2956+880936644+882764432+884293933+885715335+887280937+889072489+891108618
2946+893349362+895502124+897153269+898137197+898552727+898545886+898323932
2936+898232630+898504232+898896055+898800419+897888286+896567735+895671790
2927+895725974+896546129+897502558+898161039+898589031+898991827+899269930
2917+899144967+898541619+897702026+897056956+896925219+897171354+897318804
2907+897113376+896720739+896314218+895736202+894588500+892573097+889880520
2897+887213816+885218935+883958597+883111960+882495337+882169483+882201452
2887+882565506+883219855+884130837+885276710+886702650+888460269+890392566
2877+892110495+893294635+893955825+894422695+895153377+896386555+897839181
2867+898914749+899301290+899229360+899185334+899531169+900324637+901353877
2857+902342885+903172386+903951834+904892889+906030905+907113923+907930623
2847+908637667+909552442+910774038+912174579+913577491+914864921+916065317
2837+917317392+918659753+919996288+921281483+922548865+923779605+924928119
2827+926028138+927115559+928059729+928608621+928643706+928284122+927671089
2817+926814834+925760195+924641753+923412571+921795629+919689873+917421292
2808+915461292+914021467+912998255+912237840+911752953+911666055+912075014
2798+913065715+914689633+916758612+918755456+920090840+920496549+920202461
2788+919754014+919620787+919936956+920552156+921252698+921919374+922522654
2778+923029959+923389542+923582847+923592329+923387781+923074119+922930394
2768+923186349+923896102+925022943+926412308+927725003+928658945+929230188
2758+929677754+930150381+930590633+930891087+931091842+931362563+931784391
2748+932250854+932657173+933078324+933647467+934323152+934914782+935348125
2738+935784244+936403102+937184921+937971413+938631587+939080305+939261282
2728+939265955+939378253+939824059+940520469+941224126+941868789+942581252
2718+943429176+944318822+945083911+945602256+945930345+946354206+947151941
2708+948285216+949425535+950245351+950625728+950683502+950674901+950791262
2698+951008002+951194059+951322544+951422447+951429017+951322883+951309675
2689+951524383+951693642+951483270+951060832+950904983+951136149+951424750
2679+951521064+951528717+951612094+951747624+951909636+952232442+952770362
2669+953319050+953670100+953856022+954036254+954314967+954684981+955021672
2659+955222765+955391957+955746867+956373853+957171250+957906808+958295178
2649+958249798+958047892+958036649+958252236+958493765+958632207+958700345
2639+958756290+958760828+958607214+958320780+958209295+958637084+959548811
2629+960391519+960699086+960594983+960457354+960308617+959941583+959486972
2619+959357741+959683595+960243527+960945220+961907271+963011828+963865577
2609+964348905+964751024+965210443+965495252+965475407+965338252+965191411
2599+964884386+964408983+964157159+964504483+965259751+965842644+965997884
2589+965982238+966014071+965944850+965592649+965085751+964754072+964795997
2580+965116365+965528169+966002693+966491507+966718270+966570685+966423912
2570+966593713+966858406+967013036+967383592+968228875+969068942+969173180
2560+968458957+967442586+966560051+966007705+965988130+966543186+967277728
2550+967672668+967538019+966947066+966093113+965400835+965340825+965941464
2540+966758503+967297506+967311526+966917806+966566350+966661512+967204647
2530+967918531+968522014+968817254+968831477+968852880+968964094+968765372
2520+968030220+967352029+967578725+968743698+970019478+970701936+970920978
2510+971310431+972180300+973167276+973691717+973626018+973330914+973061480
2500+972660987+972006367+971435530+971422797+971993904+972666405+972880571
2490+972479603+971886618+971735782+972285283+973346627+974621392+975723104
2480+976129355+975700482+975059747+974892790+975074580+974955509+974320193
2470+973636448+973438809+973714000+973932094+973673294+973140116+972849888
2461+972922225+973047798+973078345+973157726+973307818+973422012+973620464
2451+974058480+974477328+974516342+974335771+974351755+974534290+974521625
2441+974246704+973943608+973684334+973370130+973128805+973335113+974144295
2431+975223995+976067178+976416263+976323675+975983327+975592655+975243975
2421+974974203+974981653+975497899+976305320+976778556+976617763+976182320
2411+975986375+976178189+976562630+976928987+977316069+977878169+978464110
2401+978625987+978203887+977522649+976873041+976256350+975762321+975726288
2391+976335054+977312683+977936553+977212306+974419486+969803281+964371934
2381+958788056+952869046+946318986+939372970+932411377+925395531+917990435
2371+910000821+901649049+893497896+885998925+879321734+873928045+870704050
2361+869979464+871134887+873742462+878222799+884914958+893472429+903086842
2351+912146538+918321233+919866719+916567949+910048842+903483204+899593684
2342+898673627+899405392+900650762+902128787+903943842+905828389+907293478
2332+908428785+909816321+911513524+912879523+913637162+914470998+916345114
2322+919602026+924007384+929231069+934624690+939025036+941590754+942646747
2312+943300555+944486592+946636102+949826096+953734512+957611230+960748259
2302+963064794+965037526+967042837+968997689+970603861+971658839+972171427
2292+972486918+973180280+974495345+976045233+977324400+978244322+978910321
2282+979305464+979493214+979708124+979959000+979906983+979340955+978497230
2272+977799804+977486751+977554008+977934927+978599978+979427244+980082609
2262+980224505+979877858+979476078+979364119+979330321+978996407+978590766
2252+978666016+979158894+979764138+981000973+983427774+985954546+986692069
2242+985651789+984904513+985714779+986986631+987097168+986125703+985426787
2232+985761581+986730473+987575552+987910820+987956336+988217506+988707946
2223+988922247+988795793+988741541+988611091+987946786+987286815+987814304
2213+989686524+991640291+992304597+991631351+990965149+991409871+992262807
2203+991848835+989678464+986910434+985102626+985105132+986597178+988223467
2193+988601406+987454178+985551412+983491238+981044457+978254956+976686171
2183+978239988+982696483+987810308+991742159+993952966+994165844+992213160
2173+989064144+986721735+986454062+987642470+988859528+989571923+990086475
2163+990921463+993079575+997004788+1000410167+1000353882+997794261+996099564
2153+996878741+999352818+1001664274+1002186005+1000788106+998860956+997689684
2143+997338296+996927033+995443251+992894331+990943678+991416305+994073866
2133+996964353+998843955+999958401+1000595411+1000243413+998491890+996004199
2123+994142883+993760203+994434194+994929240+994596410+994120194+994382719
2113+994989182+994795472+993652240+992666077+992805738+993895462+994915288
2104+995051833+994470566+993897291+993518675+992884239+991956392+991477195
2094+991968109+993019023+993876633+994238316+994273672+994312753+994638336
2084+995154988+995274126+994633527+993798675+993654204+994308486+995194339
2074+995988824+996725398+997228030+997243811+997189355+998017841+999942755
2064+1001766480+1002004893+1000331666+997614299+995288553+994932898+997275103
2054+1000776456+1002174491+999714569+995493304+993565816+995588940+999514763
2044+1002924002+1005734025+1008690347+1010653733+1009168799+1003970107
2036+998520066+996693158+998603714+1001391385+1003203392+1004030252+1003944640
2026+1003352604+1003867766+1006408422+1009271546+1010001145+1008377768
2017+1006257653+1005442714+1006555670+1008769050+1010058919+1009157013
2009+1007438746+1007191122+1008241087+1008310308+1006405374+1003986769
2000+1002986721+1003681438+1004542502+1004225656+1003433881+1004044002
1992+1006554315+1009408837+1010884763+1010327608+1007867483+1004384824
1983+1001390911+1000130776+1001135362+1004522995+1009429292+1013310006
1975+1014058840+1012555619+1011041222+1009988140+1008331508+1005963633
1966+1004277470+1004295622+1005749942+1008049273+1010767724+1012987133
1958+1013220330+1010538996+1005556773+1000356321+997552664+998783675+1003333029
1948+1008458233+1011792494+1013129977+1013391622+1012981511+1012222450
1939+1012094303+1013121105+1014409077+1014664016+1013759130+1012703204
1931+1012430181+1013082904+1014201752+1015334147+1016400977+1017402109
1922+1018072984+1018267643+1018359622+1018795674+1019400173+1019430720
1914+1018411097+1016714707+1015313421+1014770625+1014604955+1014086948
1905+1013206784+1012370984+1011729301+1011244753+1011010472+1011093510
1897+1011355155+1011734516+1012433161+1013524172+1014580910+1014968332
1888+1014723823+1014870596+1016174214+1017976739+1018912510+1018737561
1880+1018514726+1018940550+1019600792+1019907952+1019947981+1020329374
1871+1021495634+1022945416+1023275604+1022024139+1020543404+1020046801
1863+1020521324+1021330912+1021986751+1022481187+1023132963+1024225667
1854+1025766682+1027450406+1028851896+1029813676+1030619607+1031688131
1846+1033043834+1034004327+1033782169+1032719403+1031832940+1031522664
1837+1031299761+1030465925+1029025897+1027665994+1026967959+1026933551
1829+1027274103+1028040072+1029311451+1030469583+1030726012+1030215388
1820+1029719868+1029837788+1030658552+1031782819+1032826689+1033837235
1812+1034842769+1035465284+1035588826+1035753073+1036403562+1037541239
1803+1039064576+1040794358+1042329413+1043413583+1044227371+1045070621
1795+1046058410+1047000683+1047429895+1047197780+1046823702+1046772904
1786+1047029537+1047361893+1047828627+1048703914+1049725094+1050238563
1778+1050370774+1050968635+1052391460+1054073288+1054975194+1054695126
1769+1053965054+1053480913+1053247647+1053199490+1053598697+1054406524
1761+1054913965+1054764686+1054356539+1054044705+1054084531+1054857816
1752+1056524201+1058628603+1060245748+1060944257+1061168311+1061403338
1744+1061769898+1062338093+1063176670+1063979350+1064532035+1065415586
1735+1067266741+1069444766+1070443392+1070290455+1069849053+1069575961
1727+1069694016+1070170842+1070783943+1071362908+1071909497+1072656028
1718+1073671044+1073741823+1071482182+1067978865+1064941130+1062983366
1710+1062047798+1061792046+1061812365+1061886192+1061854426+1061443164
1701+1060346802+1058173247+1054586215+1049213184+1041683124+1033167375
1693+1025250301+1017054446+1006332090+992611892+976413757+953966559+919619636
1683+881191109+850634006+825765018+801880704+776384595+747269620+716705472
1673+690924352+672284582+659783204+653764087+653725887+657263070+663485312
1663+672347978+681805662+689344052+695014355+699911711+705272009+714226586
1653+729091911+741685336+747813973+753647643+763963004+777504323+788663951
1643+796730982+804256774+812352523+821090158+831345983+844002872+855689446
1633+862535491+866604700+871133532+877297052+884220106+890426635+895308616
1623+898085857+897049573+891603799+882332850+869554317+855378290+844343491
1613+837700707+833578803+830556850+827641099+823350680+816152366+805356319
1604+791236170+775301644+760815071+751738307+750489686+756878546+768523398
1594+782019812+794643377+805440441+814819285+823524613+831893317+839656846
1584+846382464+851973454+856637341+860915298+866098953+873520711+881647345
1574+887503840+891751453+897013540+904401094+911972944+917795912+922188266
1564+925630490+928263803+931387014+937845908+946551303+950767421+951323628
1554+951622051+952771174+954857221+957606692+960602163+963982142+968445749
1544+974117203+980303751+987009863+993924316+998519456+1000702494+1002687215
1534+1006109390+1010806805+1015017369+1018096555+1020454406+1021533631
1526+1019943375+1014152715+1000612750+976153806+946844985+922164357+904354902
1516+893013620+888193409+888576698+891470031+892945008+885370720+857603388
1506+818366154+793637030+784852999+784480208+788409960+793600049+797948920
1496+802358681+809006071+818848669+832544280+850061950+868035653+881691709
1486+890039891+894227223+894559850+890697355+883061906+873184630+862688292
1476+852951760+845410322+841197658+840237503+841246221+843446191+847298120
1466+853682442+862273372+870810320+877757081+883662680+887977347+882644819
1456+857377167+824247438+802675933+799675044+813102440+834730297+855450424
1446+871085037+882464452+891446934+898677420+903949735+907474591+909947787
1436+911065687+909381624+904461307+896707058+887012519+878370994+875060913
1426+879469997+891146209+906629172+921350569+933833795+945106533+954363394
1417+959840934+962470725+963987831+965067260+965671420+965563186+964609128
1407+962787774+959975380+956214482+951925011+947200301+941409641+933612721
1397+922779354+907977764+889890341+871162928+853466245+836253770+818650691
1387+801421623+786492021+774516303+764794401+756873534+750980668+747454051
1377+746340147+747374264+749943842+753319215+757267661+761966159+767265431
1367+772692850+778315673+784781408+792108884+799206413+805345550+810953743
1357+816694485+822919504+829666797+836698085+843678915+850337547+856398793
1347+861222526+863030266+858807374+846293330+827018651+807806690+797386821
1337+798636864+807197315+817957736+828485365+838021752+846391066+853885499
1327+861155133+868839890+877350153+886790700+896683894+905305506+909092616
1317+903466542+885423076+856216529+822592160+794539884+779156079+776434309
1307+781164709+787660855+792989590+797171707+801443636+806665626+812919093
1298+819850004+826877364+833050298+836878114+836497805+830610018+820013777
1288+808128006+799098383+795090334+795726937+799578121+805363972+812065005
1278+818737929+824529808+828753445+830952534+831004416+829257837+826570949
1268+824082784+822731754+822757356+823420578+823065668+819790875+812911168
1258+804211056+797329182+795455675+799369171+807364136+816825545+825845550
1248+833672068+840130556+844776969+846440645+843857657+837452880+830399985
1238+826837132+828523837+833764318+839630837+844457279+848191288+851358795
1228+854252737+856855842+859140069+861187509+862990914+864384479+865324720
1218+866083104+867054231+868460258+870232507+872059957+873586545+874667058
1208+875423748+876027570+876469786+876577546+876264357+875779133+875661958
1198+876331276+877694362+879263011+880618173+881683581+882644616+883744025
1188+885076700+886465727+887582543+888221382+888359756+887958789+886846104
1179+884914213+882493440+880524636+880180360+882002391+885345931+888877627
1169+891638545+893528307+894940566+896047155+896062123+893284747+886992200
1159+879641831+875689592+877212388+881615105+884313507+883002303+879222982
1149+876630511+877864434+882585487+888336592+893038748+896292341+898682838
1139+900680496+902324327+903514292+904358762+905158394+906051088+906823493
1129+907095365+906473933+904402381+900028111+892684176+883038133+873785539
1119+868512208+869260229+875211547+883729937+892304002+899466418+904549425
1109+907169056+906822138+902817882+895124930+885651059+878008972+875138804
1099+877170869+881895714+886942553+891156572+894414770+896970802+899129050
1089+901124134+903029609+904814456+906505767+908224237+910033128+911747332
1079+912926935+913090369+911563578+906653962+895908374+879156538+861433169
1069+850684059+851382298+861267499+874465219+886454145+895729496+902459044
1060+907168311+910454754+912883045+914780461+916354393+917948916+919897062
1050+922174178+924408691+926233566+927665806+929244412+931610458+934840074
1040+938271123+940508887+939257421+932538305+921392359+909934783+901063853
1030+893634239+885584276+878069185+874375679+875951576+881253963+887688136
1020+893420344+897852727+901295154+904283513+907104238+909802166+912374453
1010+914948501+917555060+919129331+917374625+911394250+904341491+901281947
1000+904036160+909851203+915109159+918461504+920372534+921551120+922418754
990+923058270+923044859+921500729+917832622+912973940+909622204+910231241
980+914605037+920162026+924394061+926391447+926526164+925813363+925477960
970+926229977+927769434+929315191+930463976+931235364+931525388+930922176
960+929072781+926113886+922739325+919723603+917139802+913982725+908761141
950+900821918+891438062+883565283+880114390+882117737+888375267+896626526
941+904960755+912389083+918584097+923411894+926613199+927761239+926651602
931+923484027+917973502+908765340+895348036+880459750+868599581+861668466
921+857348381+851941214+844249684+837190354+835893103+843256883+857010268
911+871734035+883448447+891531666+897134373+901306872+904590538+907240174
901+909335635+910883762+912004574+912982677+914040771+915038922+915559028
891+915478767+915299415+915557064+916072294+916237828+915872419+915297180
881+914789943+914377800+913884447+912975836+911539262+909975625+908650739
871+907290565+905385022+902888526+900093404+896979675+892683499+885297435
861+872630861+854230250+832860380+813158386+798278567+788009195+780066586
851+772767625+766833104+765445432+772018791+786520333+803846121+816696585
841+820228281+813934109+800408774+783632487+767662741+755346404+747687655
832+744399790+744731198+747692532+752095926+756988609+762172196+768157109
822+775478828+784049033+793212967+802347099+811232388+819919022+828440595
812+836498008+842917347+845343742+841438780+831582839+820248872+813420979
802+814147462+820976031+830219278+838841703+845670409+850992370+855402335
792+859054728+861862042+863859631+865108862+865642379+865634793+865349103
782+864959989+864503753+863798877+862523299+860639836+858467026+856119199
772+853316288+849935699+846338236+843059379+840525496+839088515+838983261
762+840039255+841635742+843364304+845776475+849943895+856019567+862625844
752+867837133+870346295+869575517+865227391+857029301+844477937+826232836
742+799710129+762279076+714317142+661336140+612145566+574515723+552849835
732+549143562+563594644+592837699+629551277+666039583+698107629+725322614
722+748794447+769463640+787705422+803568627+816952202+827331568+833428169
713+833284918+824174559+802328947+764410976+711508813+652499347+602293012
703+574191698+572270848+590716906+619260774+648632585+672535322+687357706
693+692066635+688475877+680618880+672773126+667297550+664062244+661888080
683+660261994+659482885+659520340+659383253+657866620+654737449+650879831
673+647098546+643467488+641333691+645796215+659466833+674292467+684181123
663+690593350+696331790+702440244+708487605+713937984+718638515+722626041
653+726078560+729379090+732997415+737197007+741886361+746780941+751651408
643+756392305+760859096+764740759+767830443+770399750+772983619+775864014
633+779053602+782585095+786385548+789995948+792933712+795366880+797796729
623+799830961+800266403+799122156+798687188+801561149+808051199+816190702
613+823769189+829445858+832662403+833770075+834020748+834350462+833390104
603+826158400+805315409+766590288+715711046+668430825+640460165+637127259
594+652308616+675082617+697174296+715938893+732135064+746468159+758749140
584+769036257+777928319+785762220+792486078+798042389+802299078+805296851
574+807971209+811824695+817438307+823714666+828980411+832092108+831111770
564+822817230+807578843+793651389+790911671+799798789+810891904+814732657
554+807486255+788768663+761212855+733286491+716370272+716029517+728609396
544+746526272+764343923+779743984+791734467+800273380+806607513+812082276
534+816819855+820271358+822479456+824286112+826604476+829675195+832993336
524+836001134+838449609+839975181+840366328+840563899+842257309+845847728
514+849840266+852600372+853997052+855162770+856900612+859047210+861510856
504+864382515+866501207+866226084+864533555+864279902+865949403+866708396
494+863460560+855101000+841537600+822779437+800136631+776828639+756066113
484+738614887+723912252+714098575+713972730+725692019+745285237+766104928
475+784524707+799852770+811567656+820376815+828850368+838135472+846764738
465+853178117+856705682+856155165+850062966+838559875+824764361+813634535
455+807244388+803221980+797883356+788790946+774400416+752818209+724601957
445+697485858+684230228+691732043+713618091+738583324+760988056+779846054
435+794828554+806052390+814252986+820094716+824549721+828972080+833789311
425+837722449+839069076+837839827+836186784+837376073+842553835+848220209
415+850852100+849293271+844358595+838729270+834625924+831842926+829809100
405+830179453+835165807+843789993+851429438+853009805+848372130+844584207
395+846220181+850633261+854865770+857528613+856404482+849514006+839599410
385+835188836+842925136+858607907+872858573+881012096+882983203+879934090
375+873648384+868026374
##END=
