##TITLE=X9406
##JCAMP-DX=4.24
##DATA TYPE=INFRARED SPECTRUM
##DATE=5/11/2018
##SAMPLING PROCEDURE=ATR platinum Diamond 1 Refl
##ORIGIN=ComPlat
##XUNITS=1/CM
##YUNITS=TRANSMITTANCE
##RESOLUTION=4
##FIRSTX=3997.453
##LASTX=373.96442
##DELTAX=-1.4165319
##MAXY=1.0258664
##MINY=0.39596385
##XFACTOR=1
##YFACTOR=9.5541253e-010
##NPOINTS=2559
##FIRSTY=0.94506961
##XYDATA=(X++(Y..Y))
3997+989174397+988589214+987864410+987358207+987559777+988538930+989750098
3988+990578213+990864629+990788892+990519445+990159726+989859523+989690706
3978+989449957+988873134+988066105+987449541+987256330+987373991+987700583
3968+988331371+989201535+989776612+989543849+988805195+988419897+988683791
3958+989134907+989354943+989159300+988199861+986217100+983806244+982434744
3948+983020863+984542589+985196210+984769363+984740728+985963437+987531267
3938+988298306+987877324+986255779+983734999+981401689+980694727+981778003
3928+983181507+983493002+982783920+982305542+982615976+982786914+982000410
3918+981073724+981878383+984931755+988562325+990999820+991853826+991347686
3908+989120558+984544897+978119858+972112308+968934724+969003162+971521447
3898+975577242+979547506+981540935+980862422+978905239+978484755+980315481
3888+981788110+980899105+978551010+976973510+976438111+976294934+977604797
3878+980682625+982867143+981810132+977985228+973793369+971158047+971023417
3869+973094268+974896920+974336067+972473025+972590561+975710437+979249112
3859+980652554+979103939+974470759+967277432+962357961+965464362+973042799
3849+979804413+983795014+984599485+982359319+977736681+972005440+966856325
3839+964263052+965542158+969475738+973564473+976750417+979233453+981103420
3829+981991115+981769082+980783191+978898252+975219457+970287509+967772530
3819+969386463+972192599+974847073+978808416+983905001+987731839+988548600
3809+986173429+982092680+978779905+976694830+974064874+970914553+970114075
3799+972526740+975906642+979330776+983074016+986509317+988697516+989646349
3789+989831325+989292432+988028049+986804467+986233320+985560297+984162282
3779+983495934+985423983+988955172+991423111+991338702+988844810+985335519
3769+982809186+982140842+982707746+983973439+985313434+985315992+983183254
3759+980245359+978763435+978589502+977253125+972928320+966069197+960467969
3750+960215055+963115393+965065589+965676288+967122465+970182575+972769423
3740+973012355+970014319+964172092+958921912+959448951+966328662+974765222
3730+980330891+981549045+979405265+976549408+975576494+976991415+979674150
3720+982495945+984705168+985588246+984345074+980408936+974510499+970197672
3710+971460932+977193297+983410590+987576435+988866458+988028548+987379169
3700+988581790+990601296+991714018+991339513+989235411+984725631+977986289
3690+972236082+972336399+977896765+983925776+987893419+989696258+989360807
3680+986615810+981112341+973068315+965867502+965192358+969276227+971887280
3670+972599233+976125930+983654146+990952718+995086372+996146377+995627261
3660+994550037+992809771+990413451+988377225+986893429+983784097+976635626
3650+965879605+958149320+961044855+970886292+980168437+986154526+989296425
3640+990881473+991687067+991660054+990681400+989164290+987449978+984793569
3631+980168062+975622160+976568061+982612170+987990180+989693950+987433508
3621+982312030+977190178+975150208+975730214+976548597+977137648+978258855
3611+979463472+979871291+980600337+983376090+987082647+989023173+988400246
3601+986851069+986070866+985843967+985416995+985365028+986623609+988327191
3591+988114891+984515014+979331026+977681033+981634764+987391709+991351117
3581+992909152+993122638+993029932+993042410+993363387+994132797+994726340
3571+993429329+988530571+980632591+974629407+975527583+981394577+987267061
3561+991090779+993466761+995313645+996503913+996395049+995126424+993945139
3551+993794788+993807453+992423350+989795952+988185200+989374782+992435578
3541+995111077+996141636+995908561+995654648+996096156+996685270+996372028
3531+994802327+992695667+991219357+990826386+991025398+991572214+992912396
3521+994989673+996764126+997465785+997432658+997353240+997207755+996420627
3512+994949746+993774575+993850187+994730021+995043637+994229059+993220585
3502+993379233+994884677+996643346+997582759+997655501+997646518+998051093
3492+998440883+998138808+997213682+996481516+996488628+996846850+996890396
3482+996692943+996900815+997579827+998051717+998044730+998106118+998587366
3472+999018704+998907158+998411062+997938610+997690438+997718137+997978226
3462+998301324+998595413+999016958+999738330+1000579110+1001055929+1000869144
3452+1000068790+998688119+996809231+995140398+994647297+995318511+996313260
3442+997260409+998312679+999331821+999982635+1000263997+1000367496+1000404054
3432+1000520841+1000853360+1001238658+1001339724+1001089992+1000722911
3424+1000354644+999877264+999352034+999105920+999286466+999705453+1000179401
3414+1000653537+1001078263+1001422011+1001693205+1001911619+1002147127
3405+1002397608+1002394427+1001917982+1001225183+1000726217+1000485157
3397+1000391764+1000453028+1000658216+1000921361+1001248078+1001639053
3388+1001853537+1001613849+1001107335+1000942573+1001379027+1001945682
3380+1002154052+1002154926+1002279948+1002435290+1002395175+1002266036
3371+1002297665+1002537541+1002818030+1002869810+1002483140+1001759147
3363+1001126862+1000950371+1001179516+1001514218+1001860026+1002395550
3354+1003160281+1003841913+1004100317+1003904549+1003513761+1003294286
3346+1003514261+1004112982+1004635217+1004547565+1003782210+1002913855
3337+1002586140+1002782157+1002949353+1002804429+1002613652+1002658445
3329+1002855461+1003036319+1003273574+1003689504+1004125584+1004299330
3320+1004239376+1004291469+1004666660+1005158950+1005320843+1004852259
3312+1003893881+1002988594+1002650772+1002938435+1003473086+1003850086
3303+1003964315+1003958451+1003962568+1003962693+1003865683+1003603660
3295+1003250990+1003096085+1003437588+1004218602+1005037983+1005598524
3286+1005956871+1006283650+1006560022+1006614922+1006341857+1005788615
3278+1005108605+1004472077+1003889701+1003170263+1002304653+1001738622
3269+1001881549+1002525313+1003144372+1003514073+1003686946+1003677026
3261+1003460983+1003011053+1002253059+1001272409+1000460576+1000191941
3252+1000432627+1000764522+1000706503+1000097051+999280103+998786690+998801974
3242+999114467+999439375+999505255+999018143+997928442+996625878+995645353
3233+995270037+995470734+996003388+996554072+996987282+997400903+997797929
3223+997901990+997491176+996719021+995938631+995400299+995239093+995538173
3213+996238085+997083170+997782707+998247173+998617124+999006477+999299692
3203+999313105+999067241+998767412+998599219+998638460+998841652+999079781
3193+999297758+999598834+999984257+1000155383+999895606+999529461+999576001
3183+1000001413+1000245406+999980139+999487974+999284532+999566706+1000047454
3173+1000325697+1000390454+1000545235+1000769264+1000561517+999650615+998477940
3163+997656562+997237389+996835808+996298849+995827209+995461625+994942758
3153+994252080+993829475+993968035+994391264+994697455+994851799+994932714
3143+994697019+993788924+992344744+991099638+990747530+991288232+992095635
3133+992533899+992416862+991984151+991592552+991416685+991317241+990939180
3123+989985856+988451340+986624732+984892264+983516771+982534187+981757540
3114+980850880+979463097+977382265+974616681+971285876+967431339+962976459
3104+957880809+952248138+946307466+940381829+934877860+930199388+926594396
3094+924083597+922537166+921781481+921632752+921886352+922310080+922652019
3084+922726820+922579214+922548520+923051915+924228208+925795851+927301544
3074+928531053+929631672+930775400+931871091+932839700+934001707+935815464
3064+938307484+941079931+943774208+946272841+948651381+951163303+954002877
3054+956918064+959343705+961023955+962235684+963396506+964702126+966097333
3044+967378498+968411303+969342107+970397121+971425747+971967946+971860142
3034+971466422+971232037+971299789+971606854+972049609+972441520+972556560
3024+972364847+972053977+971651148+970718286+968449733+963957983+956613931
3014+946605111+935446012+925738830+920018631+919400632+923038564+928736928
3004+934142888+937584427+938176660+935616452+930013165+921740929+911582382
2995+901241043+893271569+889745621+890770752+894328642+897433109+897604484
2985+893701910+885764127+874461541+861091846+848063467+838770655+836212131
2975+841178766+851675322+864288707+876228819+886140629+893498780+898031456
2965+899915272+899932803+898940986+897188929+894238182+889502876+882933724
2955+875336446+868071188+862319858+858488404+856234013+855074626+854986724
2945+856359971+859325566+863199754+866682968+868583317+868369270+866280951
2935+863105551+859673931+856426849+853568933+851502574+850723182+851320656
2925+852922424+855093342+857560720+860169091+862890505+865871385+869319413
2915+873255489+877369927+881126642+883993542+885601923+885847538+884968078
2905+883418091+881588800+879737549+878143143+877151388+877073904+878111263
2895+880256291+883170043+886257478+889015826+891323682+893379497+895426891
2885+897589511+899848581+902040773+903955034+905534468+906826114+907705137
2876+907973023+907822922+907784180+908045017+908225376+907943203+907208979
2866+906144294+904728125+903000087+901235990+899768290+898690879+897795324
2856+896868763+896087686+895927541+896614850+897984354+899925691+902529196
2846+905688375+908962657+911901738+914247712+915936883+917158344+918272252
2836+919530895+920999281+922683586+924547314+926511547+928593814+930901171
2826+933371356+935666111+937412803+938501818+939140466+939633942+940102775
2816+940478028+940785967+941255486+942041054+943004174+943857930+944386841
2806+944530579+944454531+944503566+944883187+945430814+945854229+946089987
2796+946285506+946547778+946836439+947037635+947073881+946963957+946776611
2786+946523385+946149628+945634505+945019251+944320213+943502204+942602469
2776+941799869+941267402+940998268+940859645+940762510+940675980+940547839
2766+940354129+940197228+940207771+940316885+940265915+939920607+939467246
2757+939174280+939025987+938721979+937999359+936865363+935568976+934415828
2747+933549781+932881749+932293446+931843890+931663282+931760480+932115146
2737+932801894+933823407+934998703+936180549+937387973+938620476+939791530
2727+940904751+942050787+943222963+944339677+945382901+946362241+947247191
2717+948015478+948659928+949148288+949479123+949732473+949993310+950314225
2707+950761785+951367368+952030659+952600745+953062903+953565799+954245061
2697+955045976+955760611+956269122+956688295+957203793+957814430+958354384
2687+958697196+958829018+958786970+958674737+958697259+959016614+959528119
2677+959894951+959896573+959690448+959657758+960014857+960622687+961165136
2667+961484304+961719188+962102614+962636267+963046706+963097613+962888494
2657+962744569+962807517+962863290+962680623+962379173+962257457+962372934
2647+962564772+962785120+963115269+963524647+963899215+964283078+964864144
2638+965734994+966809223+967924441+968898291+969539497+969780807+969830966
2628+970068658+970718723+971695630+972777782+973845898+974917133+976039525
2618+977219749+978403903+979466404+980262827+980761730+981100114+981462516
2608+981937899+982482656+982940884+983149566+983134593+983109763+983185750
2598+983251006+983226550+983240338+983484705+984049550+984871365+985778462
2588+986663037+987536694+988296560+988694646+988738067+988780490+989041140
2578+989385637+989696945+990095718+990661125+991170758+991249178+990777850
2568+990120360+989812609+990003760+990342955+990398229+990020667+989352697
2558+988598696+987790856+986855811+986024264+985881711+986683250+987885496
2548+988779367+989354756+990053233+990895448+991436462+991493108+991380189
2538+991404333+991515006+991495479+991263090+990949287+990778723+990877231
2529+991184359+991513883+991679955+991664983+991701790+992021333+992528159
2519+992935542+993135989+993170551+993006974+992679508+992483678+992689303
2509+993173171+993589288+993832033+994112022+994557710+994953551+995042015
2499+994975511+995181199+995808368+996617269+997419619+998281735+999215783
2489+999998731+1000413475+1000455585+1000236734+999907771+999738330+1000010834
2479+1000617603+1000934338+1000415471+999269622+998215418+997614701+997218486
2469+996791327+996585077+996991150+997887391+998605146+998680883+998448431
2459+998578382+999211728+999949757+1000485780+1000791972+1000904455+1000930532
2449+1001038772+1001183446+1001126363+1000885427+1000851676+1001315955
2441+1002130345+1002959584+1003646332+1004140369+1004294526+1004072555
2432+1003817084+1003936054+1004427346+1004984893+1005407560+1005657542
2424+1005719179+1005657105+1005706577+1006068605+1006593461+1006879065
2415+1006812187+1006761030+1007021056+1007371168+1007434740+1007195738
2407+1006936461+1006893726+1007099663+1007395187+1007572177+1007576357
2398+1007544477+1007655775+1007987358+1008429988+1008742294+1008825081
2390+1008879981+1009109001+1009362102+1009328912+1009027899+1008867129
2381+1009212063+1010037808+1011022576+1011927052+1012926044+1014525691
2373+1016993817+1019950054+1022788381+1025351085+1027816778+1030102300
2364+1031820481+1032800382+1033353811+1033805301+1033802868+1032529376
2356+1029734907+1025957854+1021872675+1018179344+1015691004+1014927770
2347+1015858823+1017974280+1020463555+1022672841+1024450913+1025779117
2339+1026423006+1026302850+1025886733+1025747175+1025873133+1025836762
2330+1025480224+1024971277+1024371246+1023678758+1023109483+1022925506
2322+1023051651+1023057203+1022557489+1021633236+1020790647+1020344710
2313+1019995533+1019337670+1018566201+1018199245+1018368000+1018806388
2305+1019242718+1019524455+1019645234+1019757280+1019911562+1019900893
2296+1019611733+1019267423+1019053001+1018844631+1018601325+1018621850
2288+1019098107+1019785666+1020400296+1020995586+1021694874+1022354796
2279+1022721752+1022744648+1022638404+1022696423+1022941165+1022975103
2271+1022453304+1021694874+1021464107+1022061206+1022946467+1023416049
2262+1023414864+1023446431+1023872218+1024633268+1025575052+1026717844
2254+1028184358+1029965112+1031683231+1032697882+1032759083+1032426065
2245+1032485207+1033091477+1033801246+1034307448+1034828249+1035718813
2237+1036899286+1037916557+1038539172+1038938570+1039184746+1038991847
2228+1038259557+1037547917+1037608494+1038480093+1039404782+1039707605
2220+1039368973+1038662697+1037875757+1037530948+1038114010+1039336345
2211+1040337520+1040706472+1040678648+1040448630+1040036880+1039702926
2203+1039791952+1040229092+1040667918+1041017406+1041397775+1041765230
2194+1042028937+1042234749+1042314978+1042147658+1042139236+1042972841
2186+1044482715+1045665060+1046050482+1046192099+1046686635+1047601218
2177+1048851315+1050226558+1051061037+1050612480+1048845949+1046522996
2169+1044702689+1044313336+1045889775+1049260943+1053326408+1056183326
2160+1055988681+1052739228+1048842331+1046489682+1045679034+1045562122
2152+1045814225+1046271392+1046594179+1046501535+1045750965+1044378654
2143+1043326509+1043762901+1045480708+1047026266+1047475323+1047114979
2135+1046528798+1045913107+1045266286+1044672930+1044215015+1043803453
2126+1043332124+1042946951+1042871339+1042994989+1043025496+1042996548
2118+1043202922+1043601009+1043624529+1042825797+1041585183+1040826316
2109+1041002183+1041805781+1042884939+1044187128+1045504852+1046371148
2101+1046569598+1046268522+1045759512+1045455566+1045759575+1046480573
2092+1046877412+1046650825+1046320303+1046280750+1046130711+1045391184
2084+1044349769+1043749301+1043980193+1044808932+1045695691+1046312005
2075+1046815151+1047587119+1048787431+1050187379+1051189428+1051011502
2067+1049316966+1046949656+1045711662+1046853830+1049713244+1052209444
2058+1052896442+1052238266+1051717341+1052275199+1053843341+1055671384
2050+1056832892+1057095788+1057404850+1058713589+1060609509+1061958425
2041+1062488584+1062963468+1064008314+1065331028+1066007295+1065443822
2033+1064280942+1063964768+1065018847+1066467706+1067371559+1067801899
2024+1067873644+1067216217+1065958260+1064973804+1064731620+1064768803
2016+1064480328+1063926712+1063761514+1064500791+1065830617+1066766911
2007+1066694044+1065937173+1065100323+1064298036+1063408781+1062728147
1999+1062917677+1064176008+1065755379+1066629911+1066537828+1065996939
1990+1065424358+1065025834+1065549754+1067788549+1071051102+1073397076
1982+1073741823+1072719686+1071491300+1070704858+1070533795+1070853587
1973+1071122223+1070443709+1068295125+1065412629+1063542662+1063835878
1965+1065808907+1068099232+1069529625+1069583652+1068664951+1067771954
1956+1067659908+1068336425+1069100158+1069099409+1068158624+1066842024
1948+1065538150+1063907747+1061557156+1059039495+1057725640+1058220862
1939+1059471208+1059999371+1059290413+1057878985+1056598195+1055915564
1931+1055808260+1055947631+1055769455+1054633151+1052643153+1051256680
1922+1051899883+1053890630+1055395886+1056051691+1057138460+1059285172
1914+1061523218+1062645797+1062507424+1062151698+1062664513+1064040879
1905+1065553622+1066674579+1067193883+1066997241+1066117095+1064852525
1897+1063845860+1063856965+1064843417+1065684384+1065647701+1065476263
1888+1066155775+1067283844+1067865034+1067643688+1066856622+1065677896
1880+1064394235+1063479777+1063072270+1062690466+1061568635+1059061455
1871+1055006097+1050566439+1048634834+1051018739+1055716427+1059678955
1863+1061745189+1062389514+1062504804+1062761960+1063481524+1064593622
1854+1065805164+1066733347+1066822435+1065607150+1063166723+1059976288
1846+1056830771+1055402499+1056939822+1059879215+1061836522+1062337858
1837+1062527138+1063382330+1064261477+1063504357+1060544003+1057314639
1829+1056432871+1057584148+1058871926+1060074359+1061882688+1063805933
1820+1064770549+1064636045+1064081430+1063409281+1062116262+1059866114
1812+1057548962+1056881179+1058451692+1060873652+1062258753+1061552415
1803+1058850465+1055520534+1053566845+1053612636+1054215288+1053718568
1795+1051532553+1048555229+1047629167+1050732511+1055495579+1058537161
1786+1058943046+1057772055+1056165733+1054530464+1053308191+1052827817
1778+1052224417+1049934091+1045165720+1038963025+1034584942+1034494544
1769+1037165114+1039977551+1041490169+1040803545+1037632325+1033353374
1761+1030428892+1029351668+1028729552+1027908486+1026565247+1023269566
1752+1016607209+1007796331+1001323129+999894670+1001363805+1002881726
1744+1003537094+1003622126+1003645209+1004027949+1004456044+1003637037
1735+1000974327+999132497+1001834447+1007584217+1013527323+1018705447
1727+1022298960+1023665220+1023326650+1022044549+1019098918+1012844942
1718+1003765490+997644584+999766279+1006643432+1012927479+1016492418+1017031436
1708+1014719400+1010449557+1006461950+1004188844+1001928588+997365031+991666854
1698+989075140+991389485+998045977+1006324576+1012225383+1014285691+1013559888
1689+1011629220+1008432858+1002659444+996698371+997085665+1002478648+1007128361
1679+1008758577+1006656471+1000763087+992795485+984079121+973064510+959238647
1669+946833507+938384719+929501098+914818047+892774662+867397229+842909673
1659+818423491+792208085+762877606+724799384+676383879+640146115+622681384
1649+609134513+592879203+577872680+568601952+562012213+554856942+546819404
1639+538861346+533034217+533905878+544346598+558447710+570629319+580475685
1629+588504926+593919557+594926534+590004505+579093392+565003261+550867588
1619+536242869+519383254+502526073+490560850+483074651+477106560+472073234
1609+469275427+469889089+473751019+479926732+487844987+497220929+507258166
1599+516772544+524916138+531328264+535921829+538684980+539590517+538811000
1589+536795362+533883232+530292277+526692838+524259772+523861186+525284904
1579+527753592+532078272+541876975+557767512+572995070+584115177+594072840
1570+606364374+620102148+632162915+641917199+649318085+653238814+653347803
1560+653903477+663735869+679036669+691792606+702556675+712327990+721333701
1550+730113573+737940994+742831830+744039192+742617471+740271996+740655671
1540+749962583+764765540+775902990+782897866+790204923+801122150+812952837
1530+821329881+825971982+829089675+832034682+834085320+835303038+837984588
1520+842552200+846619162+850214983+855171512+860690890+863793110+862492855
1510+856536274+847759958+843521059+851101617+861114243+864982755+863090266
1500+858308981+855194283+859790843+873693815+890049379+902286638+909739304
1490+915978120+925188645+936469834+945068225+948007243+944604008+935458614
1480+921557950+902659084+877342727+845349664+808106233+767411093+727434020
1470+693509041+666690047+648259951+645296415+663705113+692897218+714246993
1460+719178442+704830281+672091577+640035566+627424926+627940985+633043248
1451+640582195+651313885+666430208+685314227+705390822+724132101+739428970
1441+749958091+756573347+761620210+765068363+761442285+744464666+710882625
1431+662242092+610413307+572121100+554993817+558156740+576967330+604119092
1421+635481741+672059760+710229440+740090639+759198874+772414411+785026861
1411+800292849+817808736+834043895+845094691+847633189+839438313+821388898
1401+797897839+777047529+768726695+777499269+800075994+828917988+855751954
1391+876410301+891678597+903952664+914241660+920501002+918627978+904188047
1381+873517823+827530142+776436081+737347950+723865898+734215722+750102703
1371+755399112+749627007+741164681+737001581+739022835+747362759+763090281
1361+785091555+808688546+830140572+848541159+864263191+877751232+888975961
1351+897490567+902887605+904780405+902382276+894591413+880621501+860462057
1341+835440599+809270798+786931265+769915903+755097786+739825622+725441963
1332+716300125+716748184+728709133+751111177+780724078+813298082+844616750
1322+871549910+892578270+907320151+915695199+917560674+912799227+901388649
1312+883271795+858230062+826162947+787719890+744635355+699514345+655617291
1302+616675394+585981837+565115556+553698678+550298126+553296661+561197822
1292+572714893+586852625+602862881+620080999+637853730+655695898+673448229
1282+691130251+708665291+725887651+742719847+759108226+774854963+789713943
1272+803559021+816271226+827536693+836973867+844572892+851049088+857726231
1262+865946061+876377611+888642444+901549544+913803584+924512316+933103532
1252+939044766+941805609+940983108+936310499+927475665+913921307+894968539
1242+870410923+840991295+808151463+773398618+738045491+703320969+670212627
1232+638866572+608408212+577919220+547528986+518078632+490078260+463888714
1222+440880056+423585141+414442805+414593935+423769119+440910595+464676684
1213+493502831+525528460+558753527+591159338+619903260+639746780+643633134
1203+628159275+600280713+576425318+571805550+590114929+623879638+662689277
1193+699135660+728736521+747951062+753816746+744883466+722131310+689321049
1183+652431785+617865038+589890775+568951315+552232787+536071494+518391499
1173+499732726+482596272+469839212+463200686+462634593+466576471+472863699
1163+479734520+486337079+492550161+498470184+504217770+510233930+517396625
1153+526466687+537586357+550729527+566456176+585525731+607612724+631004215
1143+653876963+675461123+695790882+714897869+732588126+748559578+762311201
1133+772987305+779185632+778522466+767478533+742477725+702117351+649164552
1123+590806481+536679448+495437212+471343283+462707055+463450731+467063708
1113+470193971+473360918+478788619+487748070+499712326+513355179+527692079
1103+542264331+556783306+570976998+584661556+597725557+610057830+621639658
1094+632663378+643356701+653676828+663361052+672236438+680258816+687377778
1084+693678170+699552525+705412095+711261684+716741446+721549308+725712470
1074+729473864+733028510+736477225+739976472+743717279+747720046+751842469
1064+756009375+760267800+764569460+768489627+770917078+769699921+761536613
1054+742775620+711655279+671048353+628979031+595227860+576269103+572743653
1044+580942834+595950667+613762328+631888665+649127682+664996446+679259325
1034+691830475+702809339+712336475+720451933+727179671+732659184+737007071
1024+739853384+740025445+736290066+729180337+721948643+718767067+721560350
1014+728903030+737883287+746385228+753661716+759719363+764798231+769185484
1004+773109707+776704467+780024978+783034867+785672684+788025645+790346852
994+792826457+795395775+797794215+799810041+801455480+802899660+804285072
984+805674041+807068624+808352284+809291260+809586223+808717806+805925707
975+800897372+794472707+788197831+783266257+780262170+779598068+781547515
965+785793713+791327876+796973773+802012215+806360727+810270600+813920448
955+817275583+820213728+822695080+824807792+826683560+828418274+830085672
945+831750513+833422403+835050373+836597928+838071866+839473936+840804386
935+842111067+843442078+844747761+845963732+847206779+848713470+850520427
925+852347784+853880240+855065705+856072370+857065996+858128997+859310468
915+860590323+861837986+862959567+864017327+865094114+866206774+867422433
905+868820822+870292015+871595015+872611662+873450384+874399841+875711699
895+877276348+878696260+879731123+880208379+879167526+874119601+861519442
885+839383912+811066275+785756469+772855545+775042122+787464231+803009398
875+817055047+828023119+835904067+841381771+845484044+849028459+852221264
866+854831320+856547192+857119524+856437018+854466110+850715010+843558553
856+830256548+807975970+775554813+735334121+693604679+658474272+636158321
846+628386361+632482770+643339544+655700827+665676582+671049227+670834181
836+665119035+655316215+643612360+631085878+616408879+597398217+574139172
826+549666090+527200911+507703760+490528128+475228545+461939610+450913769
816+442457213+436850900+433933530+433059779+433707068+435890214+439732928
806+444866852+450646287+456772091+463329077+470456586+478292523+486911501
796+496075798+505338946+514532657+523974604+534144818+545260620+557229804
786+569920673+583227857+596823576+610103060+622539518+634035190+644865700
776+655286706+665337512+675135903+685035111+695174505+705237414+714960879
766+724438792+733707710+742579353+751075180+759503381+767931208+775998130
756+783446179+790530205+797660958+804877617+811944175+818709469+825077238
747+830863130+835896144+839974586+842208202+839647058+826428400+796865096
737+753046338+708856879+681929770+679799778+695989831+719055104+742038713
727+763311004+782719816+799770800+814254215+826644507+837524801+846986930
717+854743916+860681344+865142588+868730736+871913622+874858629+877722909
707+880948280+884902698+889255888+892989583+894735838+892904176+886598794
697+877567567+870505127+869924934+876589163+887503894+898908482+908700822
687+916524375+922665869+927470798+931476373+935381942+939551592+943714879
677+947359423+950271366+952577351+954530104+956132433+955762295+947783276
667+925897603+892470279+853273409+815396445+792768126+797916181+827829222
657+867163467+902052627+926984372+942742276+951639622+954604905+950583797
647+936964308+909616965+863745073+798376155+722036420+652114987+605418848
637+587737762+592607760+608913666+628985145+651218559+676774854+705173530
628+733690055+759584359+781387120+798741115+812259164+823379832+833620292
618+843584818+852620599+859691524+864613365+868008115+870334063+871799455
608+873145502+875518427+879268342+883496573+887025516+889486593+891451075
598+893795240+897027598+901102546+905666415+910421623+915325622+920370053
588+925215035+929363786+932752983+935865623+939215143+943094010+947709785
578+953040756+958493068+962962048+965504788+966088350+965563307+964799199
568+963916558+962694161+961510319+961156963+961737655+962172549+960920768
558+957221760+951537683+944581986+936083288+924824372+909463931+888544310
548+859954170+821940206+776172374+729504621+691298320+668728644+664132334
538+675213761+697224019+725187988+754849177+782941724+807071931+825239879
528+835292494+833812567+815364192+775400282+715880890+648166434+591049476
518+562268371+566367462+592478059+626320190+659925689+690679074+717814989
509+741251648+760931965+776448059+788297088+798735874+809900213+821428950
499+831450559+839096499+844748197+848898695+851945766+854856336+858774632
489+863578813+867888147+870683364+872196918+873137454+873468226+871963219
479+866689332+856332334+841321568+823694571+807215980+797123875+796325892
469+803018007+813425350+824264906+833688792+841366985+847169909+850711516
459+853182325+857538011+864161314+870016392+874265960+879102332+885004699
449+889483910+891391121+892877912+896103096+900621173+905078112+909220562
439+913086017+916009189+917423174+917621500+917033197+915765820+914542799
429+914698640+916560684+918755870+919387282+917532350+913132370+905691370
419+896168539+890407789+891237838+893905663+894911143+895531824+898840481
409+905141871+911866178+917030889+920348280+921645416+920349029+916522815
399+912088398+912034433+920997347+935887832+949826115+959017176+962880197
390+962364949+958715600+953499170+949387165+949024514+952111824+956493151
380+961197576+965679033+966896190+959068457+942777150
##END=
