##TITLE=SG-X18913
##JCAMP-DX=4.24
##DATA TYPE=INFRARED SPECTRUM
##DATE=24/6/2021
##SAMPLING PROCEDURE=Diamant-ATR
##ORIGIN=Angelika Moesle
##XUNITS=1/CM
##YUNITS=TRANSMITTANCE
##RESOLUTION=4
##FIRSTX=3997.453
##LASTX=373.96442
##DELTAX=-1.4165319
##MAXY=0.97558171
##MINY=0.65324825
##XFACTOR=1
##YFACTOR=9.0858127e-010
##NPOINTS=2559
##FIRSTY=0.95809162
##XYDATA=(X++(Y..Y))
3997+1054491934+1054711569+1054915131+1054870653+1054595847+1054314087
3989+1054254192+1054494820+1054867767+1055015240+1054676996+1054016582
3980+1053590826+1053792093+1054352989+1054652986+1054461035+1054072409
3972+1053837292+1053962789+1054525784+1055258032+1055652693+1055587419
3963+1055451952+1055520899+1055631635+1055626256+1055657285+1055879348
3955+1056148840+1056154220+1055752933+1055173996+1054838771+1054878722
3946+1055061358+1055347841+1055954134+1056694648+1056947806+1056539696
3938+1055855141+1055187445+1054670961+1054508137+1054748503+1055076971
3929+1055222017+1055213029+1055123549+1054985129+1054769298+1054299195
3921+1053545233+1052961573+1053128989+1054002412+1054896500+1055384513
3912+1055675392+1056090717+1056492463+1056404097+1055711538+1054982636
3904+1054969384+1055751031+1056771468+1057644170+1058158423+1057999142
3895+1057043650+1055743224+1055132208+1055863144+1056916579+1057031645
3887+1056533136+1056486493+1057079666+1057627901+1057976509+1058279327
3878+1058224943+1057727615+1057283884+1057163439+1057026987+1056744440
3870+1056733353+1056858194+1056595196+1056430207+1057373759+1059188701
3861+1060373536+1060306622+1059480170+1058310751+1056923139+1055947967
3853+1056774354+1058791088+1059863088+1059800635+1059353689+1059027189
3844+1058944858+1059086296+1059479317+1060125692+1060815103+1061183785
3836+1061194872+1061223343+1061429595+1061528195+1061211010+1060634763
3827+1060246793+1060210647+1060214648+1059969822+1059634597+1059547937
3819+1059753139+1060354184+1061460625+1062254802+1061724213+1060219044
3810+1058794368+1058258794+1058902873+1060160002+1060950177+1060985274
3802+1060835570+1061019518+1061440748+1061874442+1062266479+1062524032
3793+1062593045+1062484343+1062200352+1061907964+1061941815+1062366522
3785+1062738419+1062604000+1062143475+1062028409+1062685806+1063654877
3776+1064047439+1063602592+1062693022+1061845183+1061483717+1061621875
3768+1061822879+1061907505+1062116119+1062372229+1062281961+1061924824
3759+1061874573+1062241222+1062418872+1062202189+1062109165+1062827965
3751+1064575599+1066253040+1066609192+1065924833+1065147779+1064978657
3742+1065163392+1065015066+1064368298+1063285079+1062005842+1061300491
3734+1061800508+1062917905+1063880416+1064622898+1065247297+1065739246
3725+1066117834+1066452863+1066660952+1066557695+1066173005+1065772768
3717+1065486350+1065119045+1064497336+1064015359+1064535910+1065894197
3708+1066719141+1066521220+1065721927+1064650189+1063518687+1062908393
3700+1063422318+1064796284+1066214072+1067146341+1067585742+1067695822
3691+1067494883+1067116885+1067082444+1067500460+1067780317+1067631991
3683+1067247171+1066890231+1066692113+1066756469+1067319464+1068417246
3674+1069162549+1068854286+1068072377+1067449684+1066981745+1066570028
3666+1066524369+1066985026+1067653837+1068183769+1068559996+1068888792
3657+1069021702+1068568524+1067343605+1065643467+1064043109+1063499663
3649+1064942052+1067211352+1068307166+1068319630+1068098618+1068057682
3640+1068186262+1068332751+1068380640+1068265640+1067989128+1067606997
3632+1067148505+1066724652+1066767358+1067533129+1068279154+1068345543
3623+1067841655+1067241988+1067095302+1067528472+1067900303+1067767918
3615+1067572622+1067772839+1068181604+1068336162+1068160218+1068003364
3606+1068146441+1068374277+1068255800+1067699824+1067087561+1066814264
3598+1066846278+1067064010+1067562388+1068150246+1068165466+1067330157
3589+1066237492+1065898790+1066612079+1067417932+1067607850+1067368665
3581+1067111768+1067155590+1067640388+1068431547+1069221787+1069821323
3572+1070208571+1070270893+1069720559+1068560192+1067681586+1067937959
3564+1068583022+1068593977+1068056108+1067552088+1067269607+1067095827
3555+1067086774+1067355742+1067896826+1068712061+1069707307+1070501680
3547+1070730762+1070479638+1070167111+1070042467+1070063656+1070108266
3538+1070156024+1070346532+1070775306+1071213658+1071283130+1070926059
3530+1070499909+1070324096+1070285260+1070207325+1070379989+1071099182
3521+1071936853+1072205427+1071870726+1071439000+1071268501+1071355620
3513+1071538780+1071656929+1071671690+1071728567+1071945512+1072192962
3504+1072190994+1071792857+1071209393+1070845893+1070846549+1070962140
3496+1070891552+1070699470+1070828050+1071599593+1072764617+1073638500
3488+1073741823+1073244167+1072677629+1072328693+1072028695+1071482100
3479+1070747031+1070268203+1070404524+1070987593+1071384419+1071145563
3471+1070543928+1070265907+1070599361+1071154747+1071369593+1071075238
3462+1070640559+1070671786+1071360671+1072150715+1072332104+1071825658
3454+1071046570+1070271221+1069569543+1069090059+1068949408+1068915295
3445+1068570951+1067873800+1067294601+1067331994+1067973056+1068702155
3437+1069006023+1068817877+1068482979+1068305526+1068175437+1067771330
3428+1067075622+1066417504+1066013724+1065812720+1065842306+1066269637
3420+1066908271+1067123839+1066586100+1065782477+1065509377+1065996996
3411+1066694081+1066899415+1066553562+1066265110+1066468673+1066847983
3403+1066846343+1066385621+1065747446+1065148894+1064743278+1064682859
3394+1064940215+1065263960+1065381584+1065212069+1064945463+1064854079
3386+1064956943+1065016772+1064900591+1064702802+1064510916+1064341138
3377+1064251329+1064239062+1064089227+1063576548+1062773319+1061930007
3369+1061129926+1060306885+1059511396+1058859642+1058308651+1057774324
3360+1057346337+1057105841+1056890798+1056473045+1055835657+1055126501
3352+1054462872+1053845165+1053141060+1052148503+1050806616+1049344350
3343+1048112741+1047248698+1046547939+1045670251+1044492435+1043328461
3335+1042727351+1042910445+1043467340+1043718070+1043235831+1042017669
3326+1040441715+1039095433+1038327038+1037921750+1037386570+1036439344
3318+1035142198+1033775776+1032599666+1031532192+1030174889+1028341382
3309+1026350627+1024599122+1023076240+1021490642+1019704369+1017828286
3301+1015902149+1013719312+1011186620+1008697750+1006811433+1005666615
3292+1005039723+1004820022+1005022338+1005474860+1005916820+1006300722
3284+1006679836+1006978915+1007111496+1007089847+1006869950+1006366521
3275+1005628369+1004738610+1003674220+1002517593+1001572991+1001061165
3267+1000871117+1000656861+1000065001+998977518+997646718+996488517+995714218
3257+995244509+994907905+994607580+994313290+993933848+993257362+992127369
3247+990635910+989063171+987660340+986480097+985347152+984050924+982608601
3237+981210297+979872543+978315351+976302817+974054837+972126273+970700350
3227+969236706+967178382+964733006+962486994+960527662+958431879+955923919
3217+953158537+950441110+947896741+945367526+942588892+939437443+935922166
3207+932074944+928028554+923985903+919900086+915493870+910847748+906520122
3197+902725185+898911747+894590747+890007275+885568454+881200287+876684778
3187+872102290+867601738+863162393+858801835+854649958+850732738+846985099
3177+843458997+840248375+837263424+834316522+831415672+828788972+826604758
3167+824760492+823006494+821276441+819852487+819111185+819088553+819421154
3157+819702914+819696289+819219232+818098555+816295421+813996600+811649627
3148+809855743+809024830+809203332+810340869+812443738+815341570+818626387
3138+821922357+825001185+827625195+829382210+829712909+828342683+825849942
3128+823614492+823015219+824645754+828147124+832570724+836994260+841039206
3118+844833357+848551213+852202810+855814719+859506400+863293728+867023523
3108+870605714+874149003+877780592+881474438+885098876+888507616+891648044
3098+894728183+898128067+901954034+905829794+909329523+912475855+915607099
3088+918828545+921793291+924102674+925749347+926957996+927723767+927777233
3078+926922637+925152829+922461578+918770553+914060862+908493821+902381693
3068+896040156+889673820+883422879+877506376+872252912+867942868+864625840
3058+862124440+860264233+859058667+858618806+858995689+860188331+862125817
3048+864550791+867116481+869702901+872470644+875554917+878836914+882065773
3038+885169333+888366637+891875223+895568740+899102648+902325800+905387309
3029+908440421+911360098+913814593+915673160+917261119+918965915+920704169
3019+922166959+923457611+924981674+926801602+928596076+930168946+931546914
3009+932656570+933334500+933598154+933525795+932890834+931237601+928308477
2999+924146168+918845077+912485827+905271194+897458403+889147300+880341296
2989+871188718+862003929+853089026+844673485+836972808+830181176+824445931
2979+819912381+816710878+814839584+814133970+814412909+815584362+817552813
2969+820107809+823020336+826192253+829592727+833070151+836380095+839400471
2959+842183697+844735610+846818995+848065168+848320819+847791084+846697762
2949+844884526+842026843+838230593+834134017+830364533+827134362+824380985
2939+822044705+820089441+818403669+816811708+815193375+813589343+812199436
2929+811247815+810819107+810825011+811117661+811633226+812454234+813729207
2919+815448829+817343280+819145036+820901986+822888608+825293441+828094248
2910+831104588+834086718+836936333+839680854+842250479+844523782+846613398
2900+848707214+850677763+852322140+853891141+855872908+858319989+860774090
2890+862833006+864523501+866118479+867787063+869496320+871169890+872809347
2880+874456479+876111090+877709808+879192148+880608624+882080796+883614633
2870+885050134+886249533+887233102+888087632+888829852+889410954+889810732
2860+890026627+889929012+889205948+887545761+884827678+881098342+876466390
2850+871102451+865326271+859655513+854688597+850859284+848313340+846985820
2840+846702683+847268499+848592804+850661494+853296197+856120555+858868421
2830+861562887+864338700+867246832+870237097+873161367+875802892+878064780
2820+880127631+882304433+884727373+887233037+889553375+891579621+893388330
2810+895044909+896536237+897956124+899513119+901193577+902669489+903748312
2800+904633412+905552560+906399087+906916817+907015351+906761013+906211006
2791+905381208+904365363+903409084+902802857+902725644+903203816+904093509
2781+905059037+905737754+905980153+905808736+905211365+904149073+902700190
2771+901056666+899440170+898065679+897101463+896664292+896881959+897883831
2761+899662429+902007565+904614191+907247713+909825670+912363217+914833981
2751+917137722+919250037+921316693+923473290+925638349+927612310+929334425
2741+930896602+932368250+933749497+935009841+936063932+936812056+937277304
2731+937582812+937818192+938091161+938622602+939582620+940892624+942305886
2721+943566754+944451133+944859111+944947870+944980999+944982180+944688218
2711+943878101+942636782+941284005+940154144+939459617+939255988+939464602
2701+939951959+940606731+941330845+942003199+942548088+943043710+943683919
2691+944618221+945904149+947575095+949580807+951644708+953401264+954756796
2681+955915850+957007924+957948393+958682806+959293429+959824082+960227665
2672+960461470+960501750+960387734+960314981+960479773+960783051+960917600
2662+960749200+960409907+960046669+959706392+959501583+959684350+960403478
2652+961487484+962633417+963760327+965012273+966468176+968009426+969395660
2642+970371685+970844871+971029081+971250487+971643115+972214507+973061821
2632+974243967+975576669+976817004+977906520+978866210+979720150+980619880
2622+981702574+982764275+983494948+984032359+984797933+985828342+986789081
2612+987574402+988424471+989486697+990622593+991631813+992469942+993251064
2602+994080469+994880352+995471688+995835778+996166346+996660263+997352428
2592+998118265+998729478+998977977+998839623+998520864+998315530+998454671
2582+999039118+999956561+1000853339+1001377760+1001567153+1001838220+1002496338
2572+1003406892+1004249220+1004925576+1005590713+1006405751+1007372788
2564+1008310239+1008912858+1008971506+1008621783+1008302892+1008415530
2555+1009010408+1009763059+1010223715+1010134365+1009533846+1008595542
2547+1007473947+1006268971+1004949127+1003298452+1001101970+998431120+995682336
2537+993300725+991403453+989637187+987539633+985159793+983240938+982688176
2527+983899581+986553571+989835043+992849777+995065350+996501965+997476088
2517+998265279+999145393+1000508404+1002582408+1005125399+1007630538+1009772965
2507+1011509643+1012846872+1013597620+1013392549+1012009202+1009664197
2499+1006824750+1003822021+1000801054+997961542+995709692+994613222+995120783
2489+997134892+999908671+1002518052+1004419982+1005558765+1006149313+1006511895
2479+1007001088+1007872412+1009141678+1010622443+1012103800+1013443784
2470+1014586765+1015569875+1016469540+1017332270+1018223931+1019280974
2462+1020604033+1022161684+1023837287+1025454636+1026750930+1027443292
2453+1027356173+1026485373+1024980794+1023075584+1021023294+1019176339
2445+1018058680+1018129923+1019384297+1021320471+1023379911+1025305720
2436+1027044367+1028506305+1029607236+1030432114+1031204707+1032112309
2428+1033159775+1034116709+1034700501+1034906950+1034983113+1035014012
2419+1034776533+1034028803+1032635747+1030387898+1027015240+1022458729
2411+1016992846+1011112096+1005449079+1000764907+997811838+997000933+998177503
2401+1000764645+1004069340+1007438718+1010441776+1013129813+1015880631
2393+1018799456+1021548700+1023852441+1025782449+1027470451+1028918547
2384+1030149238+1031278181+1032418933+1033586515+1034585763+1035026936
2376+1034609314+1033319843+1031303307+1028831100+1026492458+1025047445
2367+1024963475+1026246910+1028581025+1031430968+1034146558+1036112909
2359+1036992630+1037090705+1037349439+1038544312+1040427611+1042028166
2350+1042808500+1043065266+1043401475+1044244591+1045710465+1047667435
2342+1049779947+1051556905+1052629693+1052951076+1052721339+1052386441
2333+1052480121+1053042132+1053426034+1053078147+1052211874+1051435804
2325+1051157193+1051446825+1051999980+1052136235+1051359575+1050059542
2316+1049183232+1049073152+1049039039+1048252276+1046662873+1044763567
2308+1042912085+1041293359+1040273971+1040394613+1041890992+1044341157
2299+1046989899+1049414479+1051592855+1053406550+1054572821+1055117251
2291+1055438110+1055778715+1055967058+1055807055+1055508172+1055513421
2282+1055969222+1056599985+1057081502+1057234486+1056892831+1055983720
2274+1054725017+1053514531+1052781168+1052975612+1054281155+1056286211
2265+1058283263+1059805293+1060659757+1060820679+1060509988+1059983074
2257+1059106436+1057561839+1055522736+1053674731+1052441087+1051493403
2248+1050170803+1048187920+1045822316+1043597035+1041978899+1041256884
2240+1041394583+1041923465+1042259084+1042342661+1042697961+1043554000
2231+1044372055+1044636103+1044419158+1043617371+1041439520+1037323198
2223+1031868861+1026733479+1023974592+1024986895+1029415613+1035465156
2214+1041444506+1046504642+1050161750+1052202953+1053259602+1054704943
2206+1057396063+1060588842+1062628667+1062816091+1061888349+1060618494
2197+1058952862+1056722070+1054198759+1051632610+1048770334+1044824708
2189+1038911289+1031141992+1023331497+1017826055+1015497713+1015396030
2180+1016405447+1018843672+1023953928+1031744545+1040058010+1046511399
2172+1050660587+1053382146+1055221951+1056307597+1056830444+1056891454
2163+1056721545+1057229500+1059006131+1060588710+1059424408+1054710257
2155+1047869554+1040951507+1035160304+1030048408+1023905776+1015091047
2146+1002871581+987467143+970085988+952649335+936778074+922923940+910538960
2136+899065846+888794952+880463184+873816598+867217376+859111476+849250201
2126+838123727+826105396+813700473+801663249+790152348+778489317+766240001
2116+753941550+742587307+733021240+725899499+721542681+719549761+718976138
2106+719123283+720008646+722042305+725505494+730301451+735954759+741969337
2096+748233858+754672027+760607620+765235177+768671994+771910431+775801214
2087+780387638+784939425+788423804+790293654+790903293+790910903+790491510
2077+789545596+788513219+788471168+790200631+793400560+797212357+801383456
2067+806343287+812136458+817965383+823076951+827580126+832114004+837097714
2057+842385357+847293559+850972841+853287603+855386535+858914343+864395774
2047+870556184+875545339+878635319+880587434+882703882+885541164+888671424
2037+891806603+895395355+899774937+904593657+909363702+913498326+915894763
2027+916058374+915518471+916402784+918761434+920895005+922057142+923251883
2017+925402576+927765162+928503577+926915683+924805795+924841548+927401531
2007+930273516+931759333+932140611+931928586+931018360+929653775+928463888
1997+927488125+926330908+925372136+925970622+928949998+933115455+936261262
1987+937595801+938387091+940397396+943976241+947776689+950463349+952311420
1977+954421308+956820434+958786457+960512180+962806344+965848697+969098024
1968+971513617+971791178+969635041+966545258+964337230+963331290+962592219
1958+961547903+960465406+959557935+958670407+957939602+958020293+959332330
1948+961483219+963813530+966277340+969216763+972299462+974568828+975704134
1938+976254862+976885952+978003218+979656188+981459584+982892461+983781497
1928+984384379+985204337+986740995+988940758+990876932+991721097+991819828
1918+992093191+992786668+993475291+994028512+994658618+995294825+995618505
1908+995700770+996010935+996716812+997487896+998006282+998329700+998682375
1898+999177670+999868195+1000678444+1001151237+1000848156+1000144838+1000043943
1888+1000969716+1002312718+1003460030+1004337455+1005004364+1005367732
1880+1005278251+1004763736+1004123986+1003650931+1003341553+1003127100
1871+1003214022+1003944631+1005280613+1006631618+1007555227+1008175231
1863+1008805337+1009576749+1010406220+1011195082+1011930217+1012626843
1854+1013269939+1013774942+1014026460+1013974831+1013652398+1013214636
1846+1013031082+1013373393+1013797509+1013682771+1013157891+1012718489
1837+1012702417+1013157432+1013842512+1014487707+1015164718+1016095543
1829+1017025188+1017516939+1017713483+1017941974+1018120542+1018063469
1820+1017951421+1018171712+1018867682+1019687640+1020142130+1020183853
1812+1020214686+1020554110+1021073021+1021426287+1021366196+1020857519
1803+1020201434+1019958707+1020406637+1021099458+1021388303+1021155285
1795+1020856535+1021214327+1022457745+1023573109+1023633462+1023046588
1786+1022663342+1022762138+1022972064+1023054854+1023161719+1023238342
1778+1022968718+1022348977+1021768401+1021589176+1021669079+1021416578
1769+1020653890+1019638373+1018474530+1017189389+1016033877+1015300317
1761+1014852781+1014329868+1013701402+1012940355+1011774150+1010238213
1752+1008858146+1008086931+1007679608+1007009026+1005978945+1004890807
1744+1004016662+1003613997+1003890903+1004566799+1004919343+1004901828
1735+1005571361+1007763841+1010069354+1011130071+1011614016+1011980403
1727+1012048628+1011928315+1011946683+1011976991+1011667547+1011144241
1718+1011050561+1011732296+1012365092+1012299031+1011872553+1011436169
1710+1011040852+1010814067+1011123576+1011941238+1012481207+1012369356
1701+1012225491+1012648033+1013181376+1013402127+1013474617+1013150609
1693+1012273709+1011307262+1010686012+1010241428+1009618800+1009228731
1684+1009984006+1011225522+1011476908+1010972626+1010423539+1010298108
1676+1010770704+1011322416+1011250844+1010901711+1011300833+1012486127
1667+1013184722+1013032722+1012826142+1013286405+1014187447+1014707276
1659+1014629735+1014214672+1013728955+1013667224+1014499187+1014881252
1650+1013904440+1012489342+1011601748+1011481894+1011196854+1010214006
1642+1008793463+1007190153+1005543217+1004138878+1003409713+1003020103
1633+1002026038+1000491347+999036429+998141422+997865697+997895022+998189049
1623+999059849+1000249080+1001059263+1001634526+1002911598+1005143505
1615+1006949066+1007630866+1007913151+1008453908+1009350948+1010367252
1606+1011330944+1012243597+1013105540+1013853927+1014436012+1014822867
1598+1015054048+1015337513+1015895851+1016681762+1017490174+1018255092
1589+1019006758+1019661334+1019953590+1019491359+1017908058+1015110531
1581+1011481566+1007850173+1005518354+1006255720+1010067780+1014114694
1572+1017292056+1020671865+1024654949+1027691136+1028665849+1028245209
1564+1027236318+1025918114+1024307587+1022215215+1019198644+1015265745
1555+1010477201+1004540558+996986763+986721249+972753099+955786811+937045008
1545+916412362+894306888+873696547+858277086+850369566+847604774+846262953
1536+847359226+854128685+866210912+877759009+886351741+894755211+905154029
1526+916210964+925819541+935238070+946449826+957367488+965901835+973532712
1516+980983971+987036335+991497198+995300073+999091272+1003898644+1011473366
1506+1018973367+1022064528+1022610532+1022629294+1022469422+1021684102
1497+1019289830+1014492168+1007673048+998688345+984912867+961878799+928457852
1487+891321805+857954521+831898830+814686929+806249280+804122663+804331540
1477+803796753+801100450+795396497+785832267+773323431+760894891+750251903
1468+741961990+737261221+736887815+738542295+739346049+739541149+742493234
1458+752916652+767500148+776291063+779667855+781885920+784908133+789330160
1448+794917210+800273538+804303003+807552855+810809463+813942216+817166221
1438+822164822+829647176+836347884+839974028+842369678+845761886+850146257
1428+854000433+856980071+859997036+863236588+865982290+868546995+872455228
1418+877446219+880977175+882516392+883468669+884880225+886920903+889139034
1408+891096397+893034015+895449476+897964587+899872749+901617693+904275816
1398+908071082+912442923+917213295+922090468+926116062+929022094+931745556
1388+935396367+939975904+944274992+947472034+949576543+950551780+950074133
1378+947925278+944181968+939016410+932516182+924650647+915061226+903089997
1368+888826835+874048238+861132998+851713027+846712785+845926875+848130180
1358+852744551+859967318+869515673+880202023+890814309+901054304+911268912
1349+921575165+931644464+941056563+949515533+957097799+964466728+972340725
1339+980468537+987813652+993936801+999160023+1003747235+1007640772+1010695786
1329+1012792947+1013793835+1013545860+1011843360+1008295545+1002216349
1320+992460627+977448422+956003166+928448340+896601708+862861739+829339241
1310+797862078+770959532+751862758+742380989+741253161+745387851+752145042
1300+760140928+768780828+777677165+786398280+794519006+801756010+807972247
1290+813072335+816978599+819788131+821973789+824290520+827358458+831384183
1281+836292385+841948776+848129917+854437998+860478554+866084629+871247497
1271+875933177+880114773+883901248+887477601+890947481+894313055+897573796
1261+900792225+904053885+907357793+910581798+913622183+916536809+919499652
1251+922644541+926009656+929594995+933405940+937417364+941534670+945672771
1241+949859680+954173136+958609201+963053007+967139152+969791174+968727308
1231+960543604+942070506+913118491+878734444+847912185+828567894+823060550
1221+828297024+839249980+851907930+864007411+874500170+882888945+888873346
1211+892405286+893987276+894797065+896326245+899691425+905145960+912166280
1201+919951321+927834569+935296849+941550611+944812927+941839653+928826273
1191+904081700+870718877+836570734+810625188+798407033+799726746+810119200
1181+824191199+838166828+850472036+860974701+870047901+878047985+885157655
1171+891403545+896739012+901173241+904891621+908209568+911329134+914183932
1162+916611464+918618029+920398398+922154102+923985575+925914139+927915784
1152+929931336+931928061+933975955+936178801+938496909+940736557+942760966
1142+944614678+946393605+948110537+949753405+951379348+953084800+954937135
1132+956947177+959030234+961015084+962820120+964598719+966558313+968658885
1122+970676405+972520802+974316260+976225210+978346447+980679512+983051348
1112+985198695+987026888+988719548+990550497+992602065+994611516+995998865
1102+995952812+993395519+986902507+974966178+956951638+934487453+911942053
1092+894538594+885023893+882181298+882746393+884278459+886070637+888321962
1082+891381962+895556145+900942191+907359827+914684868+923104935+932728798
1072+943076708+953244213+962412208+969911291+974906415+976498901+974689010
1062+971336820+969422360+970573410+973351847+974000584+968540080+954721436
1052+933010164+905524286+873989918+840369936+809753208+789688018+784741832
1043+792962208+808373993+825565493+841587244+855381747+866899010+876543406
1033+884805111+892101090+898760666+904963390+910615320+915463890+919542031
1023+923326604+927195738+930947050+934102173+936418444+937848631+938241980
1013+937391976+935399516+932913795+930943770+930374411+931588768+934324498
1003+937523246+938948644+934896481+921304163+897294004+868703850+846409508
993+838866931+846081367+861234288+877058906+889858490+899203938+906167578
983+912019266+917457531+922503956+926983516+930883416+934310065+937370393
973+940146075+942705860+945122503+947419225+949499657+951264545+952830331
963+954476544+956328158+958230219+959991433+961613767+963203301+964815992
953+966505306+968380602+970484848+972700224+974845996+976779939+978347496
943+979257198+978996824+976916982+972567183+966121994+958515193+951031789
933+944511684+938720152+932302582+923222363+909717952+892018432+873747257
924+860748702+857285644+863143303+874550093+887399797+899249400+909134948
914+916843694+922684362+927313821+931302875+934859744+937954972+940550379
904+942677783+944399439+945747820+946745165+947545705+948445107+949581135
894+950715982+951500974+951841317+951863228+951732286+951617221+951552668
884+951247160+950317778+948731918+946732045+944405999+941692180+938828527
874+936609674+936119169+938066626+942179208+947277721+952079976+955880359
864+958502007+959978903+960538159+960635118+960709445+960972837+961497521
854+962286646+963171353+963876835+964294260+964528262+964680459+964730447
844+964595832+964210093+963591533+962856333+962103945+961303798+960342993
834+959139658+957630158+955644586+952942182+949530162+945854029+942406847
824+939169984+935680226+931628982+927146143+922470499+917560657+912177235
815+906313739+900392250+894912131+889999796+885482844+881351040+877900381
805+875338890+873411441+871650686+870023169+869053573+869181038+870311621
795+872129514+874464679+877237540+880457674+884340059+888980933+893887167
785+898242673+901701598+904592936+907287402+909508485+910058229+906942402
775+898147616+883132394+863948631+844692575+829457521+820305336+816496425
765+815207020+813252150+808844425+802278463+795050447+788105963+780894938
755+772529057+763882663+757599511+755273728+755295376+754640473+752737034
745+752545542+757502748+768079609+781672976+795146882+806881091+816819580
735+825418413+832939538+839491133+845252028+850450059+855233224+859607098
725+863473936+866788799+869718448+872576263+875582142+878721979+881831049
715+884776246+887546155+890167212+892590874+894754424+896661012+898269176
705+899489634+900483043+901679884+903262661+904964046+906555547+908135700
696+909759347+911272323+912710251+914367617+916190037+917433980+917233501
686+915368374+912317361+908858502+905942170+904691076+905917044+909418020
676+914043216+918449366+921754980+924010438+926299550+929762018+933248233
666+934668645+934700790+934917211+935943749+937508945+939167557+940742724
656+942198561+943525753+944678575+945549243+946177119+946837598+947675925
646+948499163+949169352+949907373+950955363+952183168+953255497+954059185
636+954846539+956029538+957820797+960012622+962187390+964142392+965961204
626+967684959+969147553+970269805+971307627+972619008+974327872+976414865
616+978953986+981942348+984911555+986382022+982795304+968499604+939533419
606+899291319+859165139+831534608+821992814+828171003+843736428+862581094
596+880876017+896747869+909147084+917787312+923700141+928622579+933544754
586+938321424+942500986+946117880+949543611+952817014+955635008+958007107
577+960255415+962238232+963232428+962894250+961972806+961908320+963645851
567+966783261+970107834+972729088+974440642+975548592+976690721+978285765
557+980002173+981402314+982923425+985269939+988209625+991103783+994127833
547+997699266+1001347321+1004578279+1008037336+1012366404+1016560136+1017649718
537+1009918535+984687066+936246305+871664528+811268349+774752830+767755077
527+782586023+806688419+830136960+849680352+866590944+881979244+895247422
517+905592381+913209284+918968999+924000270+929235104+934625479+939225418
507+942396351+944559639+946538651+948536228+950136586+951207799+952167227
497+953211674+954070600+954736000+955810887+957600769+959253215+959568169
487+958527526+957573216+958382678+961288119+965125305+968556284+970861731
477+971808366+971528836+970385592+968826891+967724124+968267373+970652461
467+973505749+975307767+976153835+977120675+978384365+979223544+979227677
458+978660286+978300132+979069314+981398509+985013632+989148322+992798608
448+995085621+996067812+996639401+996693326+995075846+992318008+990782399
438+991967432+995447218+999386546+1001740932+1001832119+1000811944+1000230973
428+1000356076+1000457169+1000199944+1000043090+1000541795+1001731420
419+1002590608+1001447167+998894729+997136729+997085625+997773461+996989388
409+992508319+981289151+957926744+918419649+867454002+818282371+784649727
399+776473895+795607604+825857618+848145990+861793019+873801116+888420956
390+905544885+922002758+935221144+945274961+951829049+952590359+948241938
380+943215128+941884722+947580277+961684683+976600649
##END=
