##TITLE=J. Busch JMB080_ANW012
##JCAMP-DX=4.24
##DATA TYPE=INFRARED SPECTRUM
##DATE=13/6/2018
##SAMPLING PROCEDURE=Diamant-ATR
##ORIGIN=Angelika Moesle
##XUNITS=1/CM
##YUNITS=TRANSMITTANCE
##RESOLUTION=4
##FIRSTX=3997.453
##LASTX=373.96442
##DELTAX=-1.4165319
##MAXY=0.91319424
##MINY=0.39542487
##XFACTOR=1
##YFACTOR=8.5047841e-010
##NPOINTS=2559
##FIRSTY=0.85110795
##XYDATA=(X++(Y..Y))
3997+1000740224+1000533337+1000421273+1000394711+1000272766+1000121175
3989+1000112344+1000175209+1000121595+999933981+999714970+999553988+999534574
3979+999644185+999692893+999566883+999470167+999645377+999991730+1000263725
3969+1000456105+1000666426+1000774425+1000622483+1000378171+1000394851
3961+1000722843+1001029529+1001048802+1000875906+1000795520+1000965403
3952+1001325913+1001715508+1001928422+1001808369+1001514858+1001451082
3944+1001649419+1001491521+1000503621+999165654+998325841+998272297+998690487
3934+999189833+999575083+999725763+999618465+999493295+999649442+1000034201
3924+1000259239+1000210321+1000244452+1000572093+1000926436+1001004509
3915+1000914031+1000875836+1000861889+1000777158+1000726978+1000918587
3907+1001297459+1001414429+1000869598+999954446+999242886+998761131+998387655
3897+998338036+998713684+999209877+999453418+999507242+999815540+1000393940
3887+1000680372+1000158599+999088352+998261084+998005909+998256949+998957155
3877+999970285+1000922651+1001329207+1001057492+1000476709+999954516+999757160
3867+1000141639+1000989231+1001631548+1001481709+1000844648+1000286923
3859+999945545+999904336+1000372355+1001079429+1000795590+999441994+998576741
3849+998628463+999101317+999506050+999742022+1000015208+1000331075+1000350769
3839+999991310+999666962+999534504+999387118+999375835+999788768+1000373055
3829+1000555623+1000207237+999797388+999866561+1000516657+1001416601+1002062983
3819+1002238963+1001995843+1001328646+1000517147+1000046816+999934472+999918423
3809+999945966+1000215437+1000833926+1001533851+1001922185+1001700160
3801+1001020068+1000577349+1000539574+1000457086+1000158459+1000035532
3792+1000363174+1000880882+1001185816+1001253937+1001354717+1001604916
3784+1001919031+1002262931+1002594357+1002668996+1002307084+1001748938
3775+1001351914+1001259053+1001407560+1001527474+1001286876+1000755502
3767+1000417699+1000513924+1000733355+1000692847+1000531655+1000880111
3758+1002012452+1003147037+1003444192+1002964119+1002273164+1001633440
3750+1000817666+999970705+999585876+999748960+1000014437+999996636+999951362
3740+1000242980+1000899033+1001576462+1001871444+1001938304+1002185349
3731+1002499254+1002586928+1002369879+1001919451+1001454236+1001289469
3723+1001488717+1001741930+1001689998+1001216022+1000453722+999659744+999097813
3713+999027309+999682381+1000918096+1002124306+1002829067+1002919896+1002480962
3703+1001699599+1000995188+1000882564+1001334043+1001751951+1001678223
3694+1001279167+1001029179+1001030720+1000944728+1000720110+1000828950
3686+1001342943+1001902982+1002254732+1002375556+1002440453+1002679439
3677+1003055648+1003037847+1002312200+1001665468+1001803673+1002609285
3669+1003364366+1003601389+1003632086+1003750177+1003853410+1003756625
3660+1003556816+1003476360+1003427091+1003102324+1002540112+1002012733
3652+1001510373+1000920689+1000539574+1000685558+1000874224+1000851446
3643+1000882844+1001116293+1001394875+1001562375+1001750199+1002100828
3635+1002376117+1002292787+1002130263+1002445570+1003136875+1003350209
3626+1003013528+1002634585+1002236720+1001845513+1001827151+1002278560
3618+1002560086+1002332805+1002064034+1002171683+1002634025+1003133651
3609+1003212916+1002629890+1001894502+1001772206+1002295380+1002962787
3601+1003466829+1003868338+1004091695+1003780383+1002919615+1002097254
3592+1001813835+1002035720+1002506192+1002853737+1002706071+1002324395
3584+1002279541+1002568566+1002785265+1002751064+1002691773+1002823110
3575+1003021868+1002994885+1002698221+1002458815+1002604309+1003046677
3567+1003324349+1003200791+1002884924+1002518667+1002115125+1001772556
3558+1001678854+1001905995+1002210018+1002201188+1001889105+1001783069
3550+1002128721+1002543406+1002613700+1002362871+1002054222+1001840537
3541+1001722516+1001643322+1001582209+1001647457+1001942229+1002323414
3533+1002513831+1002438071+1002228871+1002011331+1001869832+1001912583
3524+1002082887+1002052610+1001632459+1001082793+1000723053+1000551839
3516+1000457436+1000513924+1000852358+1001365790+1001675700+1001487175
3507+1001006401+1000724945+1000749124+1000683386+1000337803+1000156847
3499+1000607485+1001572047+1002479630+1002803136+1002404851+1001552283
3490+1000730272+1000358898+1000503761+1000901696+1001345046+1001883148
3482+1002530371+1002957180+1002727236+1001826871+1000781153+1000205135
3473+1000235271+1000491006+1000605102+1000626548+1000884666+1001517452
3465+1002148695+1002205603+1001610032+1000872892+1000397164+1000109541
3456+999900551+999908541+1000191469+1000536140+1000763982+1000919568+1001062889
3446+1001132552+1001118325+1001112999+1001099052+1000964491+1000789983
3438+1000836238+1001162268+1001519694+1001697777+1001760502+1001836753
3429+1001850279+1001620404+1001189670+1000831963+1000688642+1000644910
3421+1000641546+1000824815+1001268514+1001763165+1001951340+1001606598
3412+1000864412+1000162804+999855487+999987735+1000483157+1001244616+1001965847
3403+1002206865+1001876981+1001410013+1001265220+1001448279+1001690278
3394+1001854904+1001908378+1001775920+1001529296+1001398449+1001396347
3386+1001303766+1001076485+1000876887+1000824534+1001045228+1001639537
3377+1002349625+1002691423+1002552167+1002251087+1002043990+1001950989
3369+1001935431+1001929824+1001780335+1001395997+1000934846+1000692006
3360+1000715204+1000682965+1000355605+999984161+999989207+1000383568+1000806663
3350+1000980050+1000899664+1000739172+1000684367+1000735949+1000720250
3342+1000646031+1000839042+1001460824+1002133277+1002393077+1002287951
3333+1002158297+1002092488+1001982387+1001825539+1001631478+1001307060
3325+1000936949+1000881933+1001320166+1001951340+1002402468+1002686027
3316+1003001403+1003291129+1003291549+1002934123+1002444238+1002071393
3308+1001919732+1002002150+1002248985+1002474094+1002531352+1002523082
3299+1002648251+1002829488+1002757722+1002333646+1001790217+1001344835
3291+1001009836+1000787881+1000806593+1001166543+1001748587+1002275687
3282+1002619517+1002953536+1003453373+1003965404+1004165913+1003915084
3274+1003301081+1002539341+1001950499+1001805495+1002084639+1002512499
3265+1002844626+1003035604+1003142902+1003143323+1002916882+1002444658
3257+1001924638+1001603795+1001606248+1001984069+1002722821+1003565016
3248+1004040253+1003871842+1003303884+1002912257+1003066230+1003639305
3240+1004256812+1004681238+1004840749+1004627344+1003978229+1003169183
3231+1002710696+1002838108+1003285382+1003643510+1003767558+1003728942
3223+1003550999+1003211304+1002888849+1002933913+1003434170+1004031212
3214+1004342804+1004348341+1004202637+1003945570+1003580014+1003189858
3206+1002840281+1002592185+1002662478+1003262815+1004184766+1004844323
3197+1004922887+1004721046+1004693994+1004875370+1004972226+1004821966
3189+1004575692+1004535324+1004889177+1005521752+1006077585+1006275432
3180+1006153766+1005980309+1005920668+1005839441+1005564082+1005255504
3172+1005222144+1005442347+1005642015+1005757583+1005933073+1006177034
3163+1006308021+1006107721+1005458256+1004570646+1003995680+1004077468
3155+1004515491+1004775361+1004756789+1004761695+1004980426+1005282837
3146+1005456434+1005418519+1005146384+1004607230+1003924966+1003465918
3138+1003492409+1003823905+1004082934+1004158344+1004192755+1004269637
3129+1004361517+1004436576+1004456690+1004411557+1004406791+1004532801
3121+1004680047+1004685023+1004562867+1004427466+1004287298+1004066605
3112+1003762161+1003499558+1003408099+1003415948+1003272557+1002885345
3104+1002463791+1002191026+1001978672+1001685372+1001307411+1000839322
3095+1000236883+999590641+999098304+998863734+998862893+998984277+998989253
3085+998634139+997918655+997048076+996130821+995092742+993900548+992710177
3075+991691021+990743069+989551437+988019197+986469577+985245917+984299226
3065+983346299+982286844+981311560+980645905+980260865+979880311+979324968
3055+978742503+978374844+978277077+978413530+978811115+979467448+980306280
3046+981315555+982520503+983792451+984898161+985755775+986436708+986929607
3036+987132499+987076432+986947408+986883912+986903956+987016861+987318571
3026+987937970+988832238+989701135+990322707+990898585+991770636+992906412
3016+994002660+994978926+995987920+997022215+997852707+998342732+998570924
3006+998682427+998823435+999162640+999722469+1000257698+1000568308+1000803790
2996+1001163669+1001507640+1001624680+1001624329+1001647947+1001449400
2987+1000651988+999218707+997336260+995024410+992179574+988869663+985311235
2978+981668846+978077759+974672043+971359679+967777002+963690634+959302555
2968+955077632+951451503+948741438+947122925+946564078+946798088+947444890
2958+948239288+949168878+950417418+952196773+954522008+957065625+959425202
2948+961603682+963927727+966437423+968715352+970360707+971289946+971591236
2938+971400258+970919694+970324684+969635201+968831481+968083198+967691921
2928+967764738+968111441+968552618+969137116+969924226+970735164+971304944
2918+971591586+971801627+972135365+972592171+973039164+973426096+973860054
2908+974446094+975121280+975753084+976354612+977036036+977770232+978414091
2898+978963477+979580844+980353446+981163333+981785185+982085073+982184101
2888+982361904+982715406+983031553+983054330+982712532+982064258+981195151
2878+980171789+978979316+977564747+976036993+974711431+973853747+973460437
2868+973361549+973433945+973622400+973890891+974281958+974905562+975758691
2859+976679520+977554795+978444227+979436682+980472798+981383886+982095656
2849+982746943+983552905+984592316+985781846+986959182+987931943+988585754
2839+989030154+989533565+990243793+991052839+991768113+992311121+992689993
2829+992880901+992882513+992848733+992994507+993350882+993740477+994026699
2819+994249705+994449654+994495138+994279351+993996353+993975959+994269118
2809+994630330+994892022+995124349+995421574+995714874+995888682+996010487
2799+996256481+996580618+996701232+996536746+996365531+996443815+996746156
2789+997123276+997456804+997675325+997801125+997940241+998160374+998437415
2779+998682637+998799607+998776900+998699878+998639676+998637784+998760711
2769+999015955+999279960+999436247+999480049+999419988+999253188+999095150
2759+999166355+999565131+1000115218+1000494020+1000490235+1000117320+999557982
2749+999083446+998936130+999113091+999314161+999263841+999027309+998881184
2740+998960239+999177919+999393706+999512358+999511377+999497360+999631640
2730+999924099+1000227772+1000455053+1000615124+1000658716+1000502710
2721+1000209270+999980236+999950801+1000056558+1000115428+1000026982+999858291
2711+999712937+999606901+999545227+999616923+999920525+1000409289+1000867075
2701+1001106201+1001185605+1001277906+1001340280+1001176635+1000815353
2693+1000524576+1000457296+1000538032+1000645260+1000700066+1000649956
2684+1000501028+1000305144+1000081227+999823249+999603607+999590291+999912466
2674+1000503131+1001110336+1001471897+1001484722+1001247629+1000981802
2666+1000855301+1000833926+1000776877+1000677289+1000674065+1000799374
2657+1000890553+1000845840+1000795940+1000904079+1001154278+1001450872
2649+1001747817+1001977831+1002046583+1001994231+1001968580+1002012312
2640+1002054923+1002106785+1002278490+1002622741+1003081929+1003535581
2632+1003803511+1003703922+1003264357+1002808253+1002670959+1002887657
2623+1003295965+1003795101+1004281271+1004544645+1004513879+1004399572
2615+1004361096+1004275384+1004010958+1003657667+1003392400+1003356307
2606+1003656335+1004240062+1004803885+1005053803+1005037263+1005077772
2598+1005400507+1005944847+1006522547+1006979492+1007143628+1006811992
2589+1005978908+1005004114+1004382962+1004300754+1004478346+1004537777
2581+1004463769+1004570857+1005060111+1005784005+1006366891+1006421836
2572+1005848902+1005058709+1004639258+1004719784+1004942300+1005006146
2564+1004926041+1004861844+1004979515+1005343599+1005796480+1006077726
2555+1006061186+1005769217+1005323485+1004999699+1005114776+1005728359
2547+1006555836+1007184487+1007362780+1007172923+1006924476+1006862943
2538+1007063663+1007507853+1008009091+1008201751+1007937886+1007571279
2530+1007540652+1007784403+1007857851+1007540722+1007052589+1006705115
2521+1006607558+1006748987+1007110969+1007592093+1008011614+1008271064
2513+1008389926+1008396093+1008303653+1008180796+1008164817+1008379904
2504+1008800476+1009179418+1009234504+1009006452+1008938261+1009426954
2496+1010273495+1010768005+1010463211+1009721375+1009328977+1009682619
2487+1010451507+1010942233+1010765131+1010208527+1009897145+1010083217
2479+1010455151+1010674864+1010832342+1011176032+1011578102+1011614545
2470+1011185283+1010653208+1010271602+1009926300+1009593122+1009551282
2462+1009904925+1010301528+1010344419+1010060440+1009785572+1009711283
2453+1009749759+1009850540+1010157226+1010690773+1011162646+1011331407
2445+1011326712+1011438495+1011742799+1012055091+1012177177+1012115994
2436+1012031053+1011999375+1011917587+1011674257+1011356708+1011203435
2428+1011309682+1011479354+1011475640+1011292301+1011007691+1010562239
2419+1009896374+1009148792+1008538293+1008149679+1007918053+1007729037
2411+1007498812+1007251347+1007161780+1007414992+1007886375+1008088286
2402+1007646829+1006760691+1005993555+1005695629+1005758495+1005866143
2394+1005879459+1005935736+1006165400+1006470054+1006698316+1006856706
2385+1007022944+1007230532+1007479819+1007704578+1007801644+1007848950
2377+1008154655+1008927888+1010025609+1011098309+1011827530+1011984517
2368+1011478723+1010525866+1009692851+1009521707+1010020983+1010715372
2360+1011132510+1011006359+1010254992+1009116343+1008093122+1007524533
2351+1007329350+1007232985+1007091205+1006997924+1007220580+1007965429
2343+1009098892+1010193950+1010756651+1010456273+1009538807+1008931252
2334+1009448680+1010873060+1012175355+1012594876+1012102188+1010973420
2326+1009624169+1008761159+1008935878+1009869462+1010809354+1011530375
2317+1012337949+1013263754+1013890232+1013935366+1013626507+1013346944
2309+1013130315+1012765600+1012266043+1011924736+1011934758+1012206332
2300+1012527806+1012700982+1012551774+1012034627+1011398127+1011067963
2292+1011204136+1011464006+1011364907+1010809915+1010152740+1009820894
2283+1009900089+1010092468+1010201238+1010495800+1011204276+1011896772
2275+1012008275+1011745952+1011831244+1012549321+1013570440+1014450131
2266+1014845613+1014473749+1013353672+1012076046+1011408640+1011521544
2258+1011875817+1011911420+1011603332+1011322577+1011348578+1011593801
2249+1011875677+1012373131+1013366497+1014460994+1014738525+1013931932
2241+1012877733+1012591302+1013206566+1013836828+1013454802+1012081583
2232+1010901654+1010895277+1011822133+1012949079+1014170637+1015780809
2224+1017575932+1018746750+1018544699+1016944969+1014846734+1013473515
2215+1013240487+1013526638+1013835777+1014578384+1016224228+1018288683
2207+1019649147+1019532037+1018070092+1016239717+1015253640+1015739250
2198+1017406190+1019315198+1020489801+1020681059+1020573060+1020830548
2190+1021087825+1020406051+1018686057+1017119547+1017022481+1018537200
2181+1020834402+1023170361+1024967306+1025350804+1023809454+1021117120
2173+1018648773+1017221519+1017313819+1019534560+1023746799+1028046011
2164+1029874214+1028734233+1026885286+1026540054+1027327163+1027735401
2156+1027559491+1027016272+1025526083+1022931095+1020521969+1019890375
2147+1021262193+1023397852+1024873324+1025195288+1024764274+1024123288
2139+1023471580+1022690218+1021651508+1020585675+1020019259+1020151297
2130+1020550774+1020657931+1020310527+1019670172+1018956160+1018451277
2122+1018470270+1019023160+1019639265+1019771443+1019349610+1018736307
2113+1018195332+1017675171+1017085767+1016511361+1016149169+1016157999
2105+1016434620+1016541567+1016161924+1015629288+1015644847+1016459359
2096+1017644334+1018591164+1018940952+1018636018+1017876451+1017060046
2088+1016639544+1016973493+1018112633+1019468121+1019962631+1019131930
2079+1017950950+1017863906+1019014259+1020140434+1020151437+1019059043
2071+1017472349+1016044744+1015541684+1016644170+1019222618+1022097310
2062+1023916471+1024118172+1022991858+1021350148+1020145340+1019792258
2054+1019937541+1020211288+1020574532+1020578457+1019541709+1018123916
2045+1018082987+1019794991+1021665034+1022093946+1020821086+1018619338
2037+1016566517+1015350986+1015008207+1015572030+1017319426+1019897454
2028+1022165291+1023416565+1024099110+1025028349+1026404862+1027959879
2020+1029674896+1031613831+1033071291+1032937220+1031229001+1029153263
2011+1027492070+1026060962+1024924415+1025029470+1026820528+1028911054
2003+1029207228+1027161415+1024315318+1022587335+1022363207+1022615999
1994+1022643402+1022908738+1023921307+1025033044+1025150575+1024087055
1986+1022577663+1021418830+1020806859+1020409905+1020198042+1020885423
1977+1022832067+1025001927+1026230003+1026632354+1026836227+1027066732
1969+1027375100+1027666648+1027551571+1026912969+1026179964+1025682930
1960+1025336437+1024916215+1024314547+1023730680+1023582523+1023902104
1952+1024117682+1023774973+1023029352+1022222339+1021468659+1020796487
1943+1020327066+1020268827+1020757100+1021572523+1022213088+1022467982
1935+1022778803+1023626255+1024660550+1025001226+1024355966+1023308356
1926+1022548508+1022319966+1022475201+1022508421+1021791184+1020267075
1918+1018649123+1017631579+1017211357+1017150945+1017346688+1017470947
1909+1017059345+1016149029+1015107095+1013921630+1012386307+1010740742
1901+1009537336+1009034415+1009097561+1009497318+1010043690+1010647531
1892+1011406537+1012426044+1013522643+1014385864+1015008627+1015512529
1884+1015815571+1015923009+1016182038+1016822883+1017599340+1018221263
1875+1018742405+1019246517+1019594692+1019727921+1019884418+1020288801
1867+1020823189+1021304313+1021730492+1022115321+1022479897+1022955975
1858+1023631441+1024352252+1024831204+1024876828+1024476440+1023816462
1850+1023209117+1022924858+1023113593+1023792774+1024610230+1024836390
1841+1024258900+1023432684+1022944061+1022972725+1023301768+1023680009
1833+1024053555+1024314827+1024131979+1023440253+1022799548+1022717480
1824+1023120601+1023532203+1023606842+1023423643+1023338842+1023607262
1816+1024041291+1024196946+1023882341+1023300857+1022824288+1022668001
1807+1022729885+1022742290+1022566940+1022324731+1022223530+1022284854
1799+1022357040+1022388998+1022496156+1022792400+1023181714+1023257405
1790+1022803893+1022230749+1021937799+1021905911+1021897782+1021762941
1782+1021509098+1021147816+1020674681+1020173303+1019790997+1019617750
1773+1019606817+1019593501+1019496365+1019446535+1019605976+1020010849
1765+1020560235+1021117680+1021582685+1021922171+1022195497+1022463988
1756+1022698978+1022844261+1022944832+1023161670+1023668305+1024425910
1748+1025160106+1025733180+1026189215+1026532765+1026721851+1026778338
1740+1026788080+1026844217+1027068064+1027603012+1028367976+1028919324
1731+1029108199+1029116680+1029033070+1028929836+1028904396+1028952824
1723+1028980787+1028991370+1029150039+1029621072+1030242924+1030633220
1714+1030839476+1031069421+1031312471+1031504150+1031716713+1032107150
1706+1032677981+1033220499+1033598109+1033778925+1033659012+1033307753
1697+1033088811+1033121541+1033149013+1033021391+1032848354+1032711060
1689+1032540407+1032257619+1031917153+1031740682+1031946658+1032385031
1680+1032822143+1033181742+1033469996+1033676743+1033746687+1033722228
1672+1033770235+1033972076+1034137473+1034056457+1033859522+1033786985
1663+1033914677+1034072155+1034070333+1033915308+1033700572+1033529988
1655+1033472239+1033421218+1033274533+1033202557+1033181953+1032964343
1646+1032498777+1032240939+1032471374+1033059867+1033766591+1034497493
1638+1035507259+1037108670+1038814226+1039936897+1040684409+1041399753
1629+1042186723+1043014130+1043880645+1044957410+1046352916+1047740993
1621+1048783908+1049611106+1050476709+1051440079+1052400786+1053274729
1612+1053995189+1054469656+1054589289+1054292765+1053529203+1051965286
1604+1048830514+1043142734+1033879986+1019735350+998657407+967965317+926203231
1594+875608992+821410280+768954268+723077360+688631448+669991996+670450764
1584+691056693+727748016+770631230+810241396+843999086+873830128+898241391
1574+914545725+925971675+937207909+949843153+961428824+970149264+977032391
1564+982772874+987194242+990860459+995615356+1001681517+1005611669+1007516473
1554+1008952838+1010330262+1011556797+1012399483+1012690190+1012463189
1545+1011784849+1010695328+1009123912+1006300101+1001954353+998518361+997080945
1536+997081296+998710180+1002151779+1006267722+1010171032+1014177155+1018628939
1526+1023145131+1027168984+1030762454+1034208188+1037206017+1039404261
1517+1041084166+1042423185+1043057372+1042824624+1041994063+1040453133
1509+1036342376+1025121140+1006792649+987655533+965499633+933272641+883980486
1499+812325754+723049677+642270122+595564335+583986758+600854670+642602249
1489+697977105+747283627+781948971+804074454+817312207+825301745+831298314
1479+837391458+844420920+852303160+860591604+868692505+875143636+878923809
1469+880912503+882207439+883335085+884576057+885973735+887423907+889115656
1459+891880247+897385669+905749664+914086186+921499987+928692043+935857677
1449+942808995+949390272+955311851+960132486+963136412+962781438+957254220
1439+945540646+927959598+909226164+898331308+898548357+907620618+923043439
1429+940435752+954476174+963799894+970275064+975355219+979247386+982218092
1419+985014781+987872652+990333150+992315817+994000207+995450239+996766410
1409+998061556+999321660+1000362543+1000635379+999231743+994960774+985790467
1400+969632047+947523243+923939038+903349859+889998710+886703026+891887045
1390+901410714+910849162+916557757+918201990+918628238+920429038+924694190
1380+931385708+939683684+948623697+957533223+965552757+971459829+974681154
1370+975463709+974305506+972176224+970515802+970549862+972744042+976403741
1360+980236546+983571127+986380992+988721225+990557347+991925170+993015041
1350+993996073+994847869+995461242+995877328+996315001+996952762+997779749
1340+998666308+999498832+1000244101+1000940032+1001664347+1002492596+1003459890
1330+1004570787+1005849463+1007349814+1009066023+1010845587+1012484073
1322+1013928288+1015299615+1016678160+1017926140+1018819987+1019352904
1313+1019768570+1020148704+1019962701+1018114175+1013445902+1005450477
1305+994943393+984182888+976040357+972619854+974315738+979910027+987356907
1295+994708193+1000802248+1005409057+1008859627+1011524698+1013525166
1286+1014803352+1015310758+1015043529+1013993606+1012154610+1009526262
1278+1006091392+1001891068+997172475+992467267+988573349+986451286+986911245
1268+990139438+995438114+1001489068+1007023435+1011330426+1014144496+1015249575
1258+1014446136+1011835449+1007875652+1003089779+997729850+991556881+983723910
1248+972899698+957719155+937314366+911688484+881896828+849900832+818017249
1238+788197981+761469262+737876507+717036218+698787132+683330460+670958030
1228+661863483+656185584+654106202+655890112+661889554+672524610+688131892
1218+708645451+733309154+760626997+788576853+815042688+838369265+857762607
1208+873298334+885582879+895382398+903491218+910768846+918027902+925708511
1198+933667002+941323642+948059664+953539996+957770386+960965571+963447584
1188+965643165+968107377+971446933+976055845+981859824+988400312+995155677
1179+1001702823+1007689580+1012772047+1016341058+1016844889+1011047709
1170+994381393+963635618+920350895+870060398+816683347+759743031+699776643
1160+644929727+608892005+601855675+624014869+666289897+715870096+762216144
1150+800232468+829645391+852367286+870352297+884883023+896747137+906499840
1140+914542571+921250419+927110464+932527511+937524757+941904285+945653061
1130+948981544+952036141+954751673+956986991+958718478+960033738+960971668
1120+961524768+961793819+962016896+962479518+963486410+965242497+967559392
1111+969725608+970769014+969821903+966151552+958816245+946459794+927800088
1101+902629119+872383882+839693987+807516333+778991650+757956318+748531327
1091+753097698+770455460+796210296+824996951+852521610+876247524+895122667
1081+909172200+919180918+926256004+931298244+934766334+936939839+938336817
1071+939756641+941867001+944817103+948302784+951901019+955239455+958026822
1061+960175447+961849886+963257517+964436114+965301016+965804918+965991621
1051+965937516+965708343+965388691+965109688+965026709+965311249+966149870
1041+967669214+969844961+972482349+975200474+977466980+978721127+978395939
1031+976023327+971967865+968150899+967196990+970276606+975994662+981400075
1021+983490531+979465486+966436862+943014621+912967160+886361088+873857391
1011+878280862+892971449+908861729+921619620+931769066+940538285+947587650
1001+952020022+954116995+955576487+958042381+961574598+964955644+967449221
992+969628262+972366501+975717692+979108480+982106939+984607244+986607082
982+988172891+989489412+990702210+991726203+992318690+992357236+992000440
972+991524712+991060758+990592389+990145396+989817544+989682843+989809344
962+990287946+991139883+992274678+993591760+995009763+996374432+997428280
952+997887538+997542797+996340651+994399334+991922367+989138083+986353519
942+984028914+982696763+982751148+984273085+987012375+990490838+994118859
932+997299186+999605990+1001028338+1001992689+1002984443+1004142575+1005318930
922+1006410833+1007460616+1008524487+1009616040+1010730020+1011851779
914+1012957208+1013948261+1014596746+1014751210+1014673908+1014920392
905+1015748571+1016826808+1017670825+1018200658+1018694187+1019348558
897+1020134477+1021007859+1022010897+1023184658+1024527391+1025974338
888+1027341460+1028438550+1029317399+1030253156+1031409046+1032659619
880+1033795115+1034759746+1035589327+1036238932+1036599442+1036587388
871+1036101568+1034968315+1033072832+1030635252+1028410446+1027446866
863+1028355921+1030809761+1033847467+1036499924+1038078488+1038247039
854+1037048468+1034717836+1031429581+1027215169+1021900445+1015054742
846+1006157551+994773300+980520385+963084620+942306355+918104503+890394123
836+859219296+824801909+787337353+747009740+704664839+662812415+625933199
826+599207634+586043469+586104582+595324929+607838157+618526407+624693769
816+626231265+624938432+623793194+626095443+634398675+649749801+671550097
806+697903938+726330854+754564689+781082807+805241557+826958803+846099003
796+862251256+875269296+885776240+894795377+902995586+910495590+917186407
786+923045332+928279250+933186648+937754211+941587157+944456242+946710343
776+949042237+952046723+955866143+959986432+963632254+966596443+969354445
766+972353395+975617682+978921076+981816302+983492844+982833076+978575704
756+969649638+955944286+938927692+920988656+903579804+886041927+866735489
747+845469652+824584018+807950922+799649652+803015420+818976064+844488060
737+873546500+900357427+921756142+937397976+948533850+956715277+963123517
727+968560748+973648752+978675012+983186788+986038983+986173053+983485555
717+978891080+973420069+967018697+958255856+945916295+931310859+918281745
707+910119381+906609520+904278398+898898425+887374217+868169891+841481681
697+809819352+778457543+754751673+745536862+753561582+775800320+805574595
687+836513800+864683579+888304578+906904643+920846597+930995693+938382651
677+944008477+948742419+953104356+957085669+960479751+963480383+966760158
667+970538158+974115369+977193373+979895730+982230357+984306655+986471680
657+988878073+991244378+993177635+994517145+995408258+996196770+997134489
647+998028266+998306849+997538311+995599867+992148877+986290233+977160644
637+965087401+952744897+945033871+945892887+954310145+964834399+972474570
628+976343539+978825202+982444953+987654762+992814882+996085337+997428280
618+998267882+998906274+997389173+992133669+985006651+980534402+981938108
608+988638737+997599845+1005995798+1012425624+1016866195+1020180451+1023187321
598+1025875520+1027771213+1028926472+1030056712+1031600655+1033085518
589+1033923228+1034441286+1035435563+1037065148+1038813526+1040363005
581+1041910873+1043606898+1045066951+1045694480+1045523126+1045407768
572+1046130260+1047763420+1049939448+1052151779+1053925807+1055202030
564+1056330517+1057498602+1058587492+1059622978+1060898010+1062600132
555+1064567661+1066469732+1068171293+1069745652+1071157418+1072317583
547+1073265044+1073741823+1073011551+1070629197+1066713412+1061005659
538+1051943420+1036443717+1010567986+971443079+919540868+859295687+796464279
528+733728815+670214232+606686683+548822665+503428668+474903740+464944045
518+471175815+487021907+506793630+530241803+560166372+597006446+636221481
509+669835219+690794651+698213217+698601691+700828459+710245041+726847721
499+748235433+772459853+797451618+820292585+838216973+849490702+853272136
489+849261739+837974344+821807023+805628209+795128905+793481378+799533383
479+808892706+816271535+817432611+809498509+791412018+766831784+743430427
469+726781352+719012998+720914858+732001183+750361281+773250817+798545343
459+826073016+855069712+881180854+900894268+914462605+921432917+917327345
449+895397466+852531492+795893027+741471729+703664885+688117244+690420474
439+699777905+705972810+703882074+695144604+685563536+679757454+679550217
429+685215430+696030461+710785035+728287520+747013034+765486808+782972683
419+797269891+804472740+806534601+808698224+812359955+815778496+816688743
409+814687854+811499048+809425692+810015867+813511570+819365729+827924977
399+841279980+859640709+876168190+884776917+887939652+890942387+897408727
390+907830308+919058832+926255934+926803358+923638800+922765838+926504872
380+932669571+937616707+938577554+936110048+935283341
##END=
