##TITLE=AH320
##JCAMP-DX=5.0
##DATA TYPE=LINK
##BLOCKS=1


$$ === CHEMSPECTRA SPECTRUM ORIG ===
##TITLE=AH320
##JCAMP-DX=5.00
##DATA TYPE=INFRARED SPECTRUM
##DATA CLASS=XYDATA
##$CSCATEGORY=SPECTRUM
##ORIGIN=
##OWNER=
##XUNITS=1/CM
##YUNITS=TRANSMITTANCE
##XFACTOR=0.12501352010900002
##YFACTOR=0.003927893036194102
##FIRSTX=4000.433
##LASTX=249.7859
##MAXX=4000.433
##MAXY=125.69257715821128
##MINX=249.7859
##MINY=64.98699028383142
##NPOINTS=3890
##XYDATA= (X++(Y..Y))
3890B5362B5342B5333B5325B5297B5283B5319B5325B5333B5334B5306B5310B5338B5340
3876B5303B5278B5327B5370B5351B5311B5305B5309B5302B5317B5331B5302B5306
3863B5351B5368B5374B5385B5360B5305B5296B5334B5387B5393B5364B5334B5237
3850B5235B5309B5349B5337B5320B5319B5300B5286B5289B5291B5298B5286B5298
3837B5323B5314B5345B5350B5317B5306B5273B5296B5342B5345B5328B5305B5291
3824B5288B5291B5345B5359B5282B5348B5358B5291B5274B5270B5295B5283B5248
3811B5304B5341B5328B5280B5285B5421B5378B5314B5372B5373B5343B5363B5358
3798B5319B5327B5370B5378B5387B5346B5329B5290B5398B5379B5333B5517B5328
3785B5356B5424B5379B5327B5289B5262B5248B5181B5289B5436B5340B5298B5325
3772B5231B5425B5537B5368B5310B5217B5190B5457B5455B5348B5307B5288B5236
3759B5339B5445B5334B5237B5273B5536B5460B5337B5262B5256B5462B5423B5270
3746B5388B5403B5304B5265B5267B5383B5362B5202B5810B5741B5599B5569B5400
3733B5347B5316B5306B5309B5333B5303B5345B5313B5288B5350B5373B5373B5564
3720B5418B5309B5391B5373B5287B5353B5421B5355B5315B5297B5334B5387B5338
3707B5330B5346B5345B5474B5535B5413B5359B5295B5412B5632B5454B5379B5341
3694B5325B5308B5356B5367B5334B5537B5482B5318B5249B5213B5315B5644B5534
3681B5347B5252B5261B5458B5470B5406B5402B5364B5353B5367B5371B5314B5290
3668B5334B5342B5394B5412B5345B5361B5320B5373B5505B5413B5362B5358B5350
3655B5344B5349B5341B5268B5370B5512B5425B5317B5277B5431B5403B5388B5401
3642B5363B5292B5393B5387B5280B5330B5401B5379B5385B5405B5634B5525B5551
3629B5692B5466B5339B5258B5268B5759B5567B5404B5403B5398B5320B5305B5289
3616B5398B5444B5526B5432B5504B5646B5493B5423B5417B5372B5424B5424B5401
3603B5388B5300B5369B5397B5313B5346B5473B5463B5392B5311B5310B5278B5495
3590B5541B5347B5454B5485B5361B5362B5360B5354B5343B5301B5464B5506B5494
3577B5478B5409B5402B5401B5405B5403B5368B5371B5530B5480B5362B5642B5520
3564B5374B5344B5368B5390B5390B5353B5308B5392B5465B5368B5335B5595B5661
3551B5476B5382B5351B5538B5574B5538B5543B5452B5422B5375B5366B5336B5317
3538B5331B5361B5359B5345B5301B5472B5498B5386B5345B5211B5189B5343B5439
3525B5475B5421B5563B5455B5337B5305B5322B5374B5365B5362B5374B5372B5368
3512B5370B5287B5268B5408B5397B5328B5268B5451B5616B5535B5397B5392B5360
3499B5374B5370B5422B5416B5440B5438B5417B5455B5339B5329B5327B5335B5457
3486B5446B5388B5487B5443B5444B5505B5453B5453B5431B5424B5418B5443B5433
3473B5439B5386B5335B5381B5386B5335B5406B5440B5469B5396B5394B5365B5399
3460B5489B5429B5380B5376B5387B5391B5429B5391B5311B5319B5390B5413B5389
3447B5373B5368B5355B5352B5307B5284B5373B5412B5486B5440B5362B5304B5304
3434B5354B5410B5372B5360B5376B5413B5408B5397B5394B5404B5391B5370B5393
3421B5399B5406B5375B5354B5397B5401B5412B5389B5394B5386B5399B5384B5375
3408B5373B5349B5369B5405B5376B5351B5349B5343B5351B5377B5380B5380B5387
3395B5397B5425B5423B5409B5402B5406B5434B5472B5473B5434B5424B5415B5372
3382B5316B5320B5369B5416B5427B5376B5313B5326B5365B5352B5359B5398B5436
3369B5450B5437B5396B5378B5389B5441B5463B5392B5376B5373B5386B5432B5449
3356B5443B5443B5402B5359B5382B5397B5432B5419B5380B5382B5401B5402B5416
3343B5419B5421B5436B5453B5432B5404B5368B5365B5390B5420B5445B5466B5461
3330B5461B5439B5448B5434B5410B5432B5466B5508B5511B5457B5412B5418B5376
3317B5302B5347B5382B5354B5354B5338B5366B5388B5395B5393B5418B5421B5428
3304B5454B5497B5494B5429B5423B5445B5462B5473B5465B5464B5440B5411B5417
3291B5416B5394B5392B5402B5414B5416B5416B5401B5409B5442B5437B5399B5391
3278B5437B5505B5497B5472B5469B5465B5428B5420B5423B5478B5520B5512B5468
3265B5439B5460B5482B5483B5446B5418B5438B5460B5463B5473B5446B5424B5406
3252B5376B5375B5409B5400B5391B5392B5405B5438B5467B5462B5439B5433B5457
3239B5469B5432B5469B5531B5492B5479B5495B5466B5442B5444B5448B5443B5442
3226B5432B5437B5464B5474B5462B5443B5421B5406B5429B5470B5445B5404B5430
3213B5421B5409B5429B5451B5478B5498B5506B5502B5501B5502B5500B5471B5459
3200B5481B5476B5467B5481B5498B5484B5461B5456B5444B5456B5470B5461B5446
3187B5476B5472B5437B5454B5455B5442B5450B5459B5481B5448B5412B5431B5456
3174B5448B5416B5421B5440B5466B5447B5417B5464B5499B5488B5462B5449B5472
3161B5477B5464B5462B5441B5392B5397B5444B5456B5441B5433B5440B5432B5425
3148B5434B5446B5471B5477B5437B5411B5414B5463B5495B5471B5470B5479B5466
3135B5439B5446B5461B5471B5477B5472B5443B5436B5439B5442B5458B5436B5437
3122B5447B5429B5420B5455B5459B5437B5420B5451B5480B5481B5473B5474B5506
3109B5492B5468B5488B5496B5491B5484B5447B5464B5496B5479B5454B5435B5444
3096B5454B5456B5462B5472B5448B5441B5444B5430B5438B5416B5375B5372B5442
3083B5490B5487B5475B5478B5499B5468B5459B5467B5477B5475B5473B5480B5498
3070B5489B5468B5470B5489B5479B5450B5427B5410B5418B5430B5424B5438B5458
3057B5464B5445B5456B5480B5460B5441B5458B5492B5478B5486B5492B5493B5489
3044B5467B5470B5469B5489B5484B5449B5454B5445B5430B5451B5471B5471B5460
3031B5433B5408B5419B5413B5422B5440B5436B5403B5409B5444B5424B5425B5445
3018B5440B5448B5443B5448B5462B5472B5486B5492B5501B5530B5534B5510B5480
3005B5486B5499B5495B5442B5449B5487B5478B5448B5431B5425B5437B5432B5439
2992B5438B5443B5455B5437B5434B5444B5468B5453B5437B5419B5422B5455B5498
2979B5494B5478B5473B5476B5495B5508B5500B5486B5483B5456B5436B5422B5408
2966B5403B5413B5442B5454B5432B5416B5391B5383B5420B5465B5462B5424B5427
2953B5463B5469B5438B5441B5450B5431B5429B5440B5463B5440B5393B5405B5435
2940B5432B5403B5384B5403B5371B5365B5384B5393B5356B5344B5358B5360B5353
2927B5342B5346B5371B5398B5420B5449B5446B5422B5420B5426B5446B5448B5417
2914B5416B5449B5444B5441B5445B5429B5423B5414B5411B5419B5392B5372B5381
2901B5355B5368B5389B5365B5333B5340B5366B5385B5393B5395B5395B5403B5389
2888B5392B5404B5367B5352B5363B5377B5407B5398B5380B5359B5348B5359B5333
2875B5288B5290B5295B5282B5300B5308B5288B5271B5280B5271B5269B5290B5290
2862B5267B5255B5265B5276B5260B5247B5255B5268B5286B5267B5230B5188B5151
2849B5160B5151B5136B5132B5113B5097B5064B4986B4978B4974B4949B4933B4907
2836B4866B4849B4858B4836B4774B4736B4723B4684B4609B4557B4503B4425B4381
2823B4333B4246B4135B4054B3966B3843B3752B3682B3589B3495B3369B3260B3198
2810B3147B3107B3064B3024B2987B2960B2930B2909B2926B2945B2961B2981B3018
2797B3035B3040B3029B3010B2975B2924B2840B2774B2695B2596B2475B2370B2239
2784B2103B1998B1875B1715B1580B1457B1342B1235B1153B1093B1032B0974B0974
2771B1001B1086B1195B1298B1397B1521B1658B1792B1923B2041B2177B2269B2325
2758B2394B2464B2526B2602B2657B2707B2761B2818B2895B2939B2963B2984B3025
2745B3075B3121B3173B3201B3246B3293B3344B3417B3461B3493B3534B3580B3609
2732B3626B3633B3649B3645B3649B3622B3590B3551B3484B3436B3397B3317B3250
2719B3222B3187B3168B3171B3148B3111B3099B3077B3036B2997B2937B2858B2793
2706B2738B2659B2584B2521B2477B2479B2511B2597B2720B2822B2946B3096B3229
2693B3364B3500B3632B3732B3834B3923B4008B4129B4225B4309B4402B4487B4540
2680B4609B4684B4736B4766B4827B4896B4924B4959B4988B5016B5057B5111B5154
2667B5175B5200B5216B5220B5240B5266B5290B5297B5292B5296B5302B5300B5291
2654B5299B5316B5331B5347B5342B5350B5344B5344B5345B5358B5364B5371B5382
2641B5397B5421B5427B5415B5436B5464B5475B5474B5484B5520B5535B5510B5507
2628B5519B5513B5529B5539B5517B5503B5532B5544B5515B5484B5490B5505B5511
2615B5501B5496B5509B5511B5507B5538B5550B5544B5555B5549B5548B5558B5552
2602B5549B5564B5572B5563B5577B5576B5558B5563B5558B5540B5536B5548B5556
2589B5538B5520B5504B5518B5518B5505B5516B5536B5538B5527B5521B5533B5542
2576B5532B5522B5536B5540B5535B5546B5552B5562B5566B5582B5581B5564B5555
2563B5550B5540B5535B5536B5561B5560B5556B5558B5550B5517B5501B5501B5511
2550B5527B5528B5525B5521B5506B5502B5521B5532B5563B5576B5561B5561B5571
2537B5584B5582B5564B5569B5584B5578B5558B5533B5532B5545B5541B5529B5518
2524B5499B5480B5480B5489B5505B5513B5513B5511B5510B5510B5539B5562B5553
2511B5543B5536B5543B5555B5559B5577B5576B5570B5567B5572B5562B5558B5561
2498B5557B5534B5534B5528B5501B5496B5488B5496B5481B5474B5481B5486B5503
2485B5522B5528B5519B5505B5519B5551B5587B5598B5593B5573B5549B5539B5554
2472B5578B5589B5589B5576B5557B5530B5528B5540B5547B5555B5533B5507B5492
2459B5494B5522B5526B5499B5478B5502B5529B5536B5550B5574B5551B5557B5593
2446B5573B5580B5591B5592B5616B5603B5596B5621B5596B5581B5573B5561B5550
2433B5524B5518B5532B5544B5539B5519B5499B5504B5471B5464B5492B5511B5516
2420B5552B5565B5557B5571B5587B5590B5562B5536B5552B5609B5640B5628B5607
2407B5586B5612B5596B5604B5586B5562B5547B5508B5537B5533B5520B5531B5513
2394B5496B5526B5562B5583B5560B5527B5530B5553B5577B5578B5597B5645B5645
2381B5600B5616B5611B5599B5605B5559B5547B5587B5602B5591B5570B5548B5571
2368B5545B5515B5546B5512B5443B5490B5515B5466B5483B5490B5519B5554B5555
2355B5547B5542B5572B5588B5600B5612B5578B5558B5608B5627B5621B5630B5628
2342B5658B5659B5583B5518B5517B5550B5531B5507B5534B5558B5520B5440B5424
2329B5488B5534B5556B5526B5513B5556B5589B5618B5638B5633B5619B5604B5557
2316B5557B5562B5566B5612B5606B5599B5614B5603B5570B5535B5533B5547B5518
2303B5504B5515B5513B5512B5510B5482B5491B5493B5483B5494B5521B5530B5525
2290B5543B5551B5556B5551B5546B5559B5566B5569B5581B5619B5674B5672B5607
2277B5579B5549B5523B5502B5526B5518B5513B5514B5488B5464B5455B5476B5466
2264B5455B5476B5495B5513B5497B5481B5513B5580B5604B5570B5551B5547B5580
2251B5580B5561B5510B5496B5488B5502B5525B5520B5516B5514B5482B5465B5487
2238B5505B5487B5455B5474B5506B5487B5468B5484B5496B5494B5510B5523B5517
2225B5536B5544B5549B5559B5544B5544B5534B5501B5504B5511B5491B5488B5463
2212B5442B5409B5359B5334B5318B5318B5324B5345B5332B5304B5336B5321B5351
2199B5439B5413B5365B5361B5358B5390B5415B5485B5522B5466B5499B5509B5556
2186B5603B5539B5501B5527B5542B5528B5525B5462B5432B5379B5348B5311B5315
2173B5373B5416B5441B5459B5434B5446B5471B5541B5506B5474B5487B5557B5499
2160B5479B5435B5455B5474B5482B5444B5472B5417B5449B5393B5424B5355B5379
2147B5325B5435B5349B5363B5258B5310B5263B5337B5304B5373B5368B5384B5375
2134B5333B5380B5366B5403B5380B5472B5464B5473B5476B5464B5455B5451B5497
2121B5494B5455B5435B5427B5440B5424B5409B5403B5381B5350B5355B5392B5378
2108B5379B5400B5369B5362B5342B5383B5403B5403B5440B5459B5440B5399B5408
2095B5492B5539B5560B5518B5454B5416B5438B5443B5450B5457B5443B5452B5443
2082B5410B5403B5452B5442B5363B5366B5400B5394B5372B5455B5507B5436B5475
2069B5525B5519B5494B5456B5500B5565B5554B5453B5442B5473B5515B5493B5439
2056B5388B5343B5257B5260B5407B5418B5426B5416B5388B5389B5272B5254B5448
2043B5554B5564B5495B5399B5482B5530B5438B5410B5473B5549B5638B5604B5587
2030B5579B5585B5539B5510B5450B5394B5402B5536B5540B5510B5544B5536B5433
2017B5448B5515B5436B5436B5613B5703B5565B5468B5495B5549B5542B5367B5473
2004B5562B5636B5693B5690B5478B5407B5456B5576B5635B5615B5792B5854B5829
1991B5636B5540B5466B5466B5477B5596B5656B5702B5769B5683B5580B5525B5471
1978B5470B5338B5330B5331B5391B5561B5653B5683B5825B5671B5498B5525B5507
1965B5578B5651B5568B5426B5454B5532B5596B5500B5487B5507B5472B5516B5491
1952B5411B5431B5415B5324B5350B5354B5414B5451B5379B5387B5387B5456B5565
1939B5577B5537B5514B5479B5465B5479B5609B5684B5608B5496B5340B5279B5401
1926B5358B5313B5336B5367B5272B5251B5366B5378B5302B5295B5446B5458B5314
1913B5240B5311B5341B5429B5490B5447B5466B5408B5458B5512B5513B5472B5428
1900B5391B5342B5423B5477B5463B5416B5445B5416B5343B5347B5357B5297B5182
1887B5205B5277B5334B5332B5321B5337B5423B5438B5487B5583B5515B5430B5496
1874B5603B5670B5573B5497B5538B5532B5483B5459B5444B5525B5548B5633B5473
1861B5278B5378B5513B5555B5567B5595B5577B5609B5489B5324B5443B5561B5330
1848B5171B5259B5407B5517B5632B5556B5423B5548B5659B5496B5524B5559B5474
1835B5471B5531B5565B5593B5266B5292B5471B5380B5310B5230B5314B5491B5551
1822B5590B5469B5426B5313B5395B5554B5535B5529B5395B5389B5468B5475B5493
1809B5476B5512B5532B5564B5599B5639B5697B5639B5581B5502B5550B5610B5609
1796B5541B5528B5521B5413B5524B5535B5457B5394B5275B5358B5415B5430B5564
1783B5742B5674B5617B5766B5736B5602B5521B5517B5572B5761B5618B5460B5464
1770B5414B5471B5526B5541B5509B5445B5370B5249B5342B5341B5234B5235B5335
1757B5364B5393B5398B5376B5422B5437B5459B5464B5424B5397B5403B5446B5490
1744B5492B5458B5465B5501B5525B5514B5426B5344B5329B5404B5447B5420B5334
1731B5281B5341B5403B5374B5376B5430B5423B5374B5376B5405B5420B5438B5457
1718B5479B5475B5471B5470B5422B5364B5372B5407B5450B5440B5412B5407B5430
1705B5412B5372B5361B5405B5425B5373B5338B5400B5417B5366B5334B5323B5352
1692B5387B5425B5471B5479B5488B5458B5442B5442B5434B5412B5425B5430B5429
1679B5441B5436B5432B5434B5416B5423B5438B5427B5421B5402B5391B5395B5386
1666B5384B5381B5381B5403B5394B5366B5355B5369B5412B5426B5417B5412B5484
1653B5490B5464B5468B5480B5485B5457B5468B5490B5487B5468B5467B5464B5432
1640B5390B5415B5418B5396B5364B5340B5386B5394B5407B5423B5415B5421B5437
1627B5440B5436B5439B5436B5439B5436B5438B5438B5468B5480B5468B5462B5462
1614B5464B5454B5414B5391B5417B5410B5398B5436B5416B5386B5368B5379B5340
1601B5342B5376B5379B5417B5423B5427B5440B5439B5428B5458B5465B5453B5434
1588B5462B5481B5482B5487B5462B5467B5463B5405B5452B5483B5477B5455B5397
1575B5443B5452B5430B5410B5394B5372B5370B5436B5425B5428B5418B5394B5455
1562B5480B5464B5453B5420B5418B5458B5410B5414B5427B5433B5431B5426B5413
1549B5420B5415B5385B5404B5421B5376B5372B5361B5346B5403B5449B5413B5360
1536B5343B5405B5424B5426B5427B5440B5437B5449B5462B5462B5454B5414B5392
1523B5501B5514B5444B5455B5460B5458B5452B5430B5436B5436B5409B5372B5385
1510B5370B5374B5371B5335B5271B5420B5487B5367B5321B5324B5465B5437B5389
1497B5374B5359B5352B5367B5365B5385B5383B5348B5335B5389B5419B5393B5340
1484B5337B5367B5363B5349B5318B5399B5426B5362B5334B5358B5360B5345B5411
1471B5414B5406B5391B5402B5389B5414B5431B5435B5446B5415B5401B5416B5408
1458B5369B5361B5487B5629B5444B5388B5360B5330B5344B5372B5416B5378B5358
1445B5347B5349B5340B5338B5308B5305B5300B5301B5412B5373B5352B5350B5351
1432B5341B5309B5287B5289B5267B5254B5238B5287B5271B5228B5173B5139B5110
1419B5090B5215B5150B5062B5019B4962B4910B4853B4804B4756B4692B4644B4585
1406B4490B4359B4263B4175B4082B3975B3811B3605B3366B3135B2905B2685B2476
1393B2306B2234B2254B2350B2473B2578B2660B2720B2769B2783B2740B2608B2435
1380B2245B2051B1849B1707B1758B1676B1561B1563B1603B1633B1710B1953B2070
1367B2178B2285B2400B2552B2698B2816B2884B2980B3311B3490B3850B3927B3930
1354B4040B4309B4393B4435B4427B4561B4735B4789B4826B4838B4963B5041B5057
1341B5224B5285B5240B5418B5508B5438B5416B5418B5419B5491B5512B5496B5518
1328B5463B5374B5342B5309B5218B5203B5097B4985B4898B4804B4758B4643B4462
1315B4344B4295B4173B4113B3990B3918B3919B3863B3836B3822B3891B4200B4455
1302B4513B4545B4625B4740B4856B4904B5047B5113B5125B5297B5283B5229B5186
1289B5102B4984B4897B4882B4857B4911B5012B5125B5249B5343B5408B5469B5554
1276B5594B5604B5547B5487B5548B5454B5302B5204B5094B4908B4639B4411B4171
1263B3981B3831B3803B3824B3748B3688B3670B3574B3437B3347B3263B3155B2936
1250B2755B2606B2439B2399B2473B2620B2766B3071B3340B3567B3818B4046B4272
1237B4392B4505B4674B4832B5013B5117B5326B5345B5380B5295B5295B5445B5397
1224B5379B5271B5094B4870B4620B4427B4431B4479B4453B4380B4364B4485B4444
1211B4482B4578B4722B4839B4921B4967B4978B4900B4803B4715B4655B4562B4519
1198B4596B4690B4811B4937B5027B5166B5302B5349B5380B5392B5448B5504B5490
1185B5475B5451B5413B5275B5210B5150B5081B5020B4965B4889B4794B4688B4557
1172B4457B4406B4420B4505B4614B4771B4977B5129B5221B5289B5313B5344B5378
1159B5383B5380B5365B5340B5393B5415B5390B5373B5324B5288B5268B5258B5261
1146B5314B5339B5325B5330B5370B5394B5376B5346B5299B5205B5096B4993B4901
1133B4777B4677B4686B4755B4833B4936B5088B5199B5267B5323B5372B5414B5446
1120B5449B5445B5459B5459B5452B5470B5489B5505B5461B5428B5406B5413B5385
1107B5365B5365B5339B5312B5294B5288B5246B5171B5045B5013B4933B4807B4659
1094B4549B4427B4395B4319B4254B4187B4139B4121B4116B4106B4083B4022B3956
1081B3914B3889B3876B3877B3860B3829B3773B3660B3479B3206B2870B2513B2128
1068B1737B1366B1010B0665B0353B0114A9926A9757A9672A9684A9744A9783A9783
1055A9737A9643A9480A9269A9040A8814A8601A8445A8385A8397A8460A8595A8794
1042A9044A9298A9555A9828B0118B0396B0671B0957B1203B1338B1386B1428B1483
1029B1555B1692B1870B2045B2203B2381B2562B2736B2904B3076B3254B3396B3450
1016B3389B3151B2716B2156B1660B1315B1200B1326B1624B2014B2400B2757B3078
1003B3356B3591B3770B3895B4019B4140B4230B4331B4419B4486B4533B4580B4624
990B4628B4641B4693B4759B4819B4845B4869B4901B4932B4949B4984B5005B5007
977B5004B4970B4911B4797B4658B4597B4664B4796B4940B5100B5250B5328B5354
964B5402B5459B5492B5488B5479B5470B5436B5397B5353B5301B5201B5069B4917
951B4776B4601B4360B4107B3854B3571B3274B3003B2717B2470B2270B2091B1920
938B1712B1494B1341B1259B1172B1136B1157B1173B1175B1197B1238B1300B1384
925B1532B1734B1932B2103B2250B2436B2634B2803B2960B3125B3271B3363B3410
912B3478B3550B3575B3627B3771B3935B4063B4163B4238B4326B4378B4409B4489
899B4578B4644B4699B4776B4877B4972B5023B5078B5154B5186B5148B5077B5005
886B4915B4878B4908B4959B4986B5027B5104B5180B5258B5332B5405B5430B5412
873B5412B5494B5514B5498B5473B5431B5408B5339B5233B5167B5101B4971B4828
860B4710B4613B4574B4581B4613B4663B4703B4723B4740B4771B4767B4779B4859
847B4927B5015B5102B5150B5187B5242B5262B5257B5260B5225B5185B5148B5108
834B5125B5183B5269B5353B5393B5414B5447B5487B5498B5473B5460B5455B5463
821B5461B5433B5400B5348B5218B4977B4502B3680B2670B1703B0725A9606A8608
808A8206A8676A9814B1042B2053B2831B3409B3848B4117B4165B4062B3864B3575
795B3298B3174B3205B3364B3622B3911B4195B4465B4673B4847B5015B5132B5206
782B5276B5338B5381B5400B5385B5387B5406B5377B5321B5327B5328B5259B5190
769B5178B5191B5187B5161B5200B5231B5216B5211B5207B5154B5093B5054B4990
756B4866B4725B4584B4482B4345B4169B4052B4039B4079B4144B4256B4402B4545
743B4643B4728B4855B4994B5090B5156B5191B5230B5292B5323B5385B5443B5430
730B5422B5449B5453B5428B5440B5474B5489B5483B5470B5468B5470B5427B5411
717B5466B5515B5506B5471B5461B5437B5431B5444B5419B5421B5414B5399B5397
704B5358B5334B5324B5278B5223B5192B5134B5092B5112B5119B5118B5116B5092
691B5082B5101B5079B5042B5034B5009B5000B4969B4905B4825B4733B4609B4469
678B4384B4338B4330B4399B4557B4766B4946B5064B5136B5228B5281B5307B5359
665B5388B5385B5410B5451B5474B5474B5467B5459B5472B5476B5457B5482B5504
652B5444B5407B5398B5413B5363B5240B5105B4933B4712B4515B4442B4480B4521
639B4576B4673B4740B4773B4848B5000B5129B5213B5267B5327B5357B5359B5396
626B5459B5474B5446B5445B5471B5498B5445B5359B5302B5208B5071B4991B4987
613B5001B4976B4966B4977B4918B4820B4803B4798B4762B4751B4830B5025B5177
600B5169B5162B5213B5241B5219B5158B5113B5081B5051B5056B5104B5126B5088
587B5103B5111B5036B4955B4848B4795B4803B4799B4786B4733B4585B4308B4060
574B3896B3781B3711B3745B3908B4144B4398B4618B4833B4982B5067B5155B5251
561B5308B5358B5397B5445B5505B5544B5559B5512B5444B5409B5386B5360B5240
548B5005B4736B4390B3988B3666B3439B3342B3351B3469B3695B3990B4197B4436
535B4734B4931B5059B5180B5249B5341B5362B5294B5220B5008B4478B3818B3746
522B4097B4225B4089B3930B3865B3939B4117B4271B4279B4336B4514B4750B4987
509B5114B5257B5397B5416B5370B5400B5423B5415B5365B5423B5365B5295B5242
496B5200B5172B5027B4807B4680B4701B4759B4800B4840B4888B4892B4785B4775
483B4888B5007B5101B5190B5297B5353B5350B5374B5405B5439B5419B5398B5418
470B5405B5368B5380B5389B5344B5336B5394B5437B5444B5442B5463B5529B5517
457B5483B5502B5508B5489B5471B5484B5514B5529B5495B5484B5488B5452B5382
444B5378B5368B5255B5228B5230B5148B5088B5004B4915B4890B4862B4793B4759
431B4685B4547B4649B4818B4962B5084B5179B5263B5355B5440B5465B5503B5548
418B5516B5497B5499B5464B5460B5446B5369B5305B5030B4583B3806B2796B1617
405B0272A8664A7191A6545A6805A7423A7979A8379A8851A9281A9522A9736B0236
392B0763B1155B1586B2044B2495B2784B2980B3248B3449B3652B3844B4022B4147
379B4246B4214B4348B4513B4611B4702B4789B4848B4897B4945B5019B5065B5074
366B5115B5176B5202B5127B5051B5023B4952B4886B4914B4981B4968B4927B4983
353B5086B5245B5338B5418B5511B5478B5442B5480B5449B5334B5194B5064B5032
340B4886B4450B3987B3392B2590B2063B2096B2533B3121B3664B4022B4379B4585
327B4643B4804B5020B5007B4964B5004B4994B5076B5143B5185B5306B5285B5185
314B5318B5340B5190B5267B5360B5303B5358B5415B5397B5440B5399B5260B5307
301B5348B5198B5260B5349B5332B5408B5459B5329B5365B5429B5372B5401B5288
288B5036B5082B5177B5041B4851B4602B4190B3435B2326B1145B0286B0148B0573
275B1539B2450B3250B3979B4319B4506B4693B4739B4838B5008B5042B5035B5158
262B5099B5016B5230B5431B5312B5293B5344B5357B5461B5339B5262B5418B5161
249B4911B5114B5051B4781B4793B4963B4977B5128B5131B5004B5151B5190B5110
236B5320B5501B5498B5441B5471B5488B5379B5248B5256B5423B5441B5387B5537
223B5510B5555B5431B5213B5257B5121B4966B5082B5166B5053B5063B4999B4927
210B5032B5019B5052B5135B5007B4821B4872B4768B4719B4862B4861B4765B4791
197B4611B4396B4407B4311B4391B4809B4920B5068B5222B5277B5216B5266B5222
184B4795B4711B4968B5093B5335B5236B4957B4846B5052B5191B5368B5193B5108
171B5114B4889B5004B5522B5361B4875B4971B4963B4730B4831B4746B4420B4420
158B4126B3984B4115B3703B3567B4451B4599B4660B5264B5214B4968B5175B5190
145B4995B5128B5114B4915B4899B5044B5359B5654B5391B5249B5535B5307B4869
132B5267B5287B5061B5413B5234B5155B5325B5088B5262B5568B5322B5348B5818
119B5758B5225B5108B5194B5181B4870B4750B5352B5633B5267B4622B5176B5229
106B4415B4040B4582B4934B4977B5096B4880B4938B4858B4679B5198B5074B4762
93B4881B4598B4328B3982B3617B4343B4597B4108B3942B4649B4418B4176B4481
80B3928B3645B3731B4114B4079B4356B4914B5352B5184B4083B3401B3450B4646
67B5145B5202B4487B4516B4820B4972B5126B5041B4919B4716B4362B3448B3415
54B4492B5259B5658B4830B4038B5002B5515B4713B4417B3894B2955B3729B4274
41B2583B2618B2701B2418B2525B3163B3680B2625B2359B1194A9781B0963B2121
28B2317B2432B2743B3365B3913B3427B3635B4246B4391B4209B4538B6013B5351
15B5540B6470B5814B6234B7575B5718B3673B5735B9209B7820B3670B3732B8186
2C2000B9823
$$ === CHEMSPECTRA INTEGRALS AND MULTIPLETS ===
##$OBSERVEDINTEGRALS= (X Y Z)

##$OBSERVEDMULTIPLETS=
##$OBSERVEDMULTIPLETSPEAKS=
$$ === CHEMSPECTRA SIMULATION ===
##$CSSIMULATIONPEAKS=
##END=


$$ === CHEMSPECTRA PEAK TABLE EDIT ===
##TITLE=AH320
##JCAMP-DX=5.00
##DATA TYPE=INFRAREDPEAKTABLE
##DATA CLASS=PEAKTABLE
##$CSCATEGORY=EDIT_PEAK
##$CSTHRESHOLD=0.93
##MAXX=4000.433
##MAXY=125.69257715821128
##MINX=249.7859
##MINY=64.98699028383142
##$CSSOLVENTNAME=- - -
##$CSSOLVENTVALUE=0
##$CSSOLVENTX=0
##NPOINTS=42
##PEAKTABLE= (XY..XY)
397.34285713551026, 92.56865518398641
435.91983939316015, 95.49100760291482
486.0699163281047, 97.33711732992604
515.9670775777831, 79.13918889323878
571.9037018513754, 86.66110405755047
591.1921929802002, 97.91058971321038
594.0854666493653, 97.85952710373986
636.5201471329387, 64.98699028383142
663.5240347132935, 96.41799035945664
716.5673853174052, 97.35282890207083
722.3539326560527, 97.02288588703053
748.3933956801234, 93.73916730877225
753.2155184623293, 93.27174803746516
771.5395850347131, 91.68487925084274
800.4723217279507, 93.13427178119836
831.3339075340705, 97.21928053884022
867.9820406788376, 96.00556159065626
900.7724755978397, 95.56563757060252
971.1754682180508, 94.42262069707003
1014.5745732579066, 91.02499322076213
1028.076517048084, 71.51122061694983
1055.0804046282833, 98.77865407420929
1077.2621694264296, 96.67723129984545
1102.3372078940602, 97.71812295443688
1148.6295866032397, 83.01994721299855
1186.2421443044482, 96.61438501126634
1222.8902774492158, 83.27133236731497
1258.5739860375415, 72.21431347042858
1271.111505271278, 77.26951180801038
1289.4355718436614, 93.78237413217039
1340.5500733350473, 96.92861645416187
1378.1626310362558, 95.86415744135326
1405.166518616611, 96.3080093544432
1419.6328869632293, 95.6991859338331
1451.4588973257905, 87.9808761177117
1488.1070304705577, 97.6356372006768
1508.3599461558238, 93.57026790821591
1573.9408159938284, 84.68930175338105
1591.3004580097709, 87.33277376673968
2854.6966269478016, 88.28725177453484
2923.17077045513, 82.38362854113511
2952.103507148367, 89.9841015661707
##END=


$$ === CHEMSPECTRA PEAK TABLE AUTO ===
##TITLE=AH320
##JCAMP-DX=5.00
##DATA TYPE=INFRAREDPEAKTABLE
##DATA CLASS=PEAKTABLE
##$CSCATEGORY=AUTO_PEAK
##$CSTHRESHOLD=0.93
##MAXX=4000.433
##MAXY=125.69257715821128
##MINX=249.7859
##MINY=64.98699028383142
##NPOINTS=100
##PEAKTABLE= (XY..XY)
450.38620773977846, 98.27195587254025
500.53628467472345, 98.26017219343167
480.28336898945736, 98.21303747699734
388.6630361275388, 98.17768643967159
558.401758061198, 98.1737585466354
840.9781530984828, 98.14626329538204
391.55630979686293, 98.07163332769434
838.0848794291592, 98.06377754162196
458.1016041913085, 98.06377754162196
560.3306071740803, 98.05592175554958
591.1921929802002, 97.91058971321038
452.3150568526612, 97.91058971321038
488.96318999742834, 97.84774342463129
384.80533790177424, 97.80060870819696
412.77365003856994, 97.76132977783502
595.0498912059652, 97.74954609872643
345.263931087683, 97.72597874050926
1102.3372078940602, 97.71812295443688
408.91595181280536, 97.7063392753283
377.08994145024417, 97.68277191711114
1488.1070304705577, 97.6356372006768
2982.965092954487, 97.60421405638725
419.52462193365864, 97.59243037727867
446.5285095140139, 97.49423305137381
810.116567292363, 97.39210783243277
486.0699163281047, 97.33711732992604
715.6029607611208, 97.31354997170888
1068.5823484186167, 97.28212682741933
440.7419621753661, 97.27427104134695
339.47738374903565, 97.26248736223836
831.3339075340705, 97.21928053884022
357.801450321419, 97.21535264580403
406.02267814348124, 97.13679478508016
443.63523584468976, 97.09358796168202
425.3111692723064, 97.06216481739247
723.3183572126509, 96.94040013327044
342.3706574183593, 96.93647224023425
1340.5500733350473, 96.92861645416187
353.9437520956544, 96.71258233717118
1186.2421443044482, 96.61438501126634
1076.2977448701463, 96.52404347143387
663.5240347132935, 96.41799035945664
1405.166518616611, 96.3080093544432
311.5090716122395, 96.18231677728498
1417.704037850347, 96.01341737672864
867.9820406788376, 96.00556159065626
1550.7946266392387, 95.94664319511334
1424.4550097454357, 95.94664319511334
1378.1626310362558, 95.86415744135326
437.84868850604244, 95.82487851099133
1419.6328869632293, 95.6991859338331
900.7724755978397, 95.56563757060252
435.91983939316015, 95.49100760291482
613.373957778349, 95.110001978404
267.1455420159423, 95.09036251322303
327.90428907174055, 94.96074204302862
322.1177417330932, 94.5797364185178
350.0860538698894, 94.42654859010622
971.1754682180508, 94.42262069707003
297.04270326562073, 94.41869280403384
400.2361308048339, 94.20658658007935
330.7975627410642, 94.0416150725592
1512.2176443815888, 93.94734563969054
1289.4355718436614, 93.78237413217039
748.3933956801234, 93.73916730877225
1508.3599461558238, 93.57026790821591
1464.960841115968, 93.49563794052823
753.2155184623293, 93.27174803746516
800.4723217279507, 93.13427178119836
257.5012964515299, 92.98501184582298
253.6435982257649, 92.9732281667144
2880.736089971715, 92.87503084080956
325.0110154024169, 92.87503084080956
334.65526096682925, 92.76504983579612
397.34285713551026, 92.56865518398641
271.0032402417073, 92.01875015891923
301.86482604782714, 91.9716154424849
316.3311943944459, 91.91662493997819
771.5395850347131, 91.68487925084274
1014.5745732579066, 91.02499322076213
2869.1629952944204, 91.00142586254496
291.2561559269734, 90.16478464583562
2952.103507148367, 89.9841015661707
288.36288225764974, 88.70360843637141
2854.6966269478016, 88.28725177453484
285.4696085883256, 88.05550608539939
1451.4588973257905, 87.9808761177117
1591.3004580097709, 87.33277376673968
571.9037018513754, 86.66110405755047
1576.8340896631526, 85.26277413666539
1573.9408159938284, 84.68930175338105
1222.8902774492158, 83.27133236731497
1148.6295866032397, 83.01994721299855
2923.17077045513, 82.38362854113511
515.9670775777831, 79.13918889323878
278.71863669323693, 77.69765214895554
1271.111505271278, 77.26951180801038
1258.5739860375415, 72.21431347042858
1028.076517048084, 71.51122061694983
636.5201471329387, 64.98699028383142
##END=

##END=

