##TITLE=X7592
##JCAMP-DX=5.0
##DATA TYPE=LINK
##BLOCKS=1


$$ === CHEMSPECTRA SPECTRUM ORIG ===
##TITLE=X7592
##JCAMP-DX=5.00
##DATA TYPE=INFRARED SPECTRUM
##DATA CLASS=XYDATA
##ORIGIN=ComPlat
##OWNER=
##XUNITS=1/CM
##YUNITS=TRANSMITTANCE
##XFACTOR=1
##YFACTOR=7.3422901e-010
##FIRSTX=3997.453
##LASTX=373.96442
##MAXX=3997.453
##MAXY=0.7883723956968852
##MINX=373.96442
##MINY=0.193632855467069
##NPOINTS=2559
##XYDATA= (X++(Y..Y))
2559I32794017I33203813I33256905I32781921I32199130I31903392I31996343I32518573
2551I33420645I34328317I34807603I34870842I34873275I34991638I35072656I34855905
2543I34218723I33412605I33029033I33456526I34401866I35160655I35294439I34906886
2535I34440427I34391069I35012826I36092435I37049062I37307944I36722150I35778271
2527I35243783I35497227I36269491I36961063I37110353I36713139I36241890I36153485
2519I36254473I36089272I35738897I35473844I35192802I34914842I35256285I36500529
2511I37749888I38075416I37655719I37286919I37398622I37697362I37753619I37627306
2503I37741361I38308812I39072958I39762257I40441083I41175193I41630856I41358984
2495I40457400I39615321I39360091I39471146I39709165I40485570I41900941I43176763
2487I43665303I43543617I43420386I43527137I43389778I42787426I42256672I42142289
2479I41787046I40679671I39770375I40371837I42146024I43688036I44399091I44252317
2471I43376386I42556226I42989402I44644822I46121485I46710364I46740482I46633081
2463I46508385I46309985I45909687I45263982I44695397I44878296I46081869I47485389
2455I48566377I49408541I49822477I49644206I49140322I48615251I47936830I46993357
2447I46346840I46829698I48395902I50129337I51213251I51336807I50806621I50334479
2439I50371740I50599044I50283819I49441662I49188218I50221963I51452082I52287586
2431I53566657I55269324I56160758I55862506I54989335I54295165I54449245I55309589
2423I55561491I54579214I53476628I53748581I55314785I57256771I59020323I59989446
2415I59890896I59282612I58781492I58487377I58340441I58461724I58796672I58857801
2407I58350914I57744175I57835665I58773455I59925804I60776245I61179059I61109001
2399I60703832I60313032I60230391I60535790I61148860I61761363I62071632I62150212
2391I62245763I62364773I62327917I62005877I61292062I60373186I60146288I61070035
2383I61959766I62053529I61847410I61938335I62157521I62105647I61600951I60492034
2375I59187310I59035828I60642622I62636320I63921479I64629774I65043710I65262003
2367I65359743I65408045I65606609I66268390I67361396I68464631I69285441I69754661
2359I69846882I69761886I70073127I71036733I72074946I72559752I72299489I71564730
2351I71048991I71325249I72127794I72824317I73238091I73500465I73734425I74007758
2343I74373473I74898948I75480199I75729827I75517623I75119842I74775801I74457170
2335I73935264I73074595I72345681I72965895I74934102I76014444I75551962I75285530
2327I76830383I79253360I80710618I80680422I79578567I78145577I76911807I75968253
2319I75457144I75652463I76035632I75534262I73979020I72454949I72310936I73159993
2311I73861959I74539730I75446994I76366765I77079038I77561084I77652736I76956293
2303I75211978I72558615I69471668I66806694I66054400I67935988I70512151I71986135
2295I72240553I71824911I71539889I71993522I72798502I73018418I72479546I71719215
2287I71260630I71187730I71469019I72273674I73372119I73958969I73656655I72875215
2279I72158723I71578368I70853350I69838842I68721725I67827366I67145945I66335442
2271I65403986I65079267I66072584I67799768I68975984I68993275I68174089I67388835
2263I67071422I66740370I65993434I65217354I64753654I64275829I63564366I63213184
2255I63873339I64822089I64874937I64161366I63555358I63612671I64272663I65052072
2247I65300969I64558173I63078831I61751378I61081237I60793130I60529701I60293549
2239I60273981I60646357I61402142I62084699I62009530I61012640I59670655I58581140
2231I57889243I57593586I57679231I57842078I57604708I56903395I56254848I56238044
2223I56840967I57356541I57085156I56153455I55372420I55132698I54901336I54150990
2215I53299818I53129906I53532886I53612605I52922169I51978453I51493968I51414659
2207I51167385I50575989I50075190I50059198I50300221I50264502I49870130I49598096
2199I49785621I50084688I49894240I49112721I48164864I47415733I46834163I46335800
2191I46149248I46487282I46970948I46907144I46133175I44989999I43650368I42246768
2183I41362150I41462164I42077589I42356767I42154710I41943967I42005339I42153411
2175I42028394I41507297I40890008I40539959I40326132I39720852I38556086I37343579
2167I36717685I36765497I36905211I36441187I35264159I33916164I32965388I32483257
2159I32180297I31886425I31747527I31919384I32143522I31816932I30638853I29065424
2151I27883444I27429567I27464475I27570901I27396121I26774445I25905171I25293318
2143I25350793I25992439I26603968I26526522I25686469I24617086I23812921I23277540
2135I22713420I21904625I20904732I20018491I19581175I19639624I19907761I20078970
2127I20104136I20137744I20349624I20834187I21473397I21861843I21721158I21342698
2119I21123593I20870880I20184582I19282027I18837729I19233075I20258540I21307547
2111I21918425I22376118I23380313I24898131I26004779I26075973I25418416I24582585
2103I23883223I23678241I24272480I25359317I26174363I26280466I25783966I24956015
2095I24084143I23477648I23267717I23371302I23734985I24406752I25402586I26580669
2087I27547437I27851459I27528685I27214197I27444017I28046859I28393903I28176098
2079I27829784I28019907I28766032I29460526I29644561I29276894I28509422I27752988
2071I27651513I28533533I30083985I31583868I32334376I32103095I31271975I30338406
2063I29516621I29067453I29457928I30770689I32385032I33545743I33953022I33721900
2055I33142441I32634336I32623537I33150559I33698686I33708833I33220374I32773397
2047I32816747I33445323I34497821I35603410I36277200I36331675I36214289I36609310
2039I37606037I38586528I39056560I39207960I39480725I39898720I40043136I39604118
2031I38918716I38783958I39539986I40581118I41116419I41175271I41373840I41837134
2023I41905487I41081995I39918203I39513440I40242273I41347863I41737851I40918827
2015I39277207I37702641I36835153I36527887I36155758I35421323I34558056I33742929
2007I32799781I31640126I30537865I29747822I29222831I28843559I28642311I28753693
1999I29256765I29972609I30509371I30752991I31107748I31960460I33135216I34095331
1991I34453091I34197049I33577971I32789792I31891864I31201102I31365737I32687103
1983I34698903I36664350I38208554I39386231I40394811I41353464I42330545I43491418
1975I45044468I47021686I49241797I51502658I53768223I56135108I58524233I60519716
1967I61728972I62093226I61662567I60559251I59372884I58893682I59177163I59449034
1959I59008796I57754566I55869650I53369714I50044504I45901566I41585152I37901126
1951I34817994I31375073I26655354I20574979I13809040I07204729I01186616H95568807
1943H89960329H84273840H78801908H74041600H70475366H68230742H66988770H66406142
1935H66384954H66824787H67618077H69098230H71984014H76564020H82199288H87790879
1927H92602087H96495232H99413974I00931471I00571925H98419683H95149429H91608932
1919H88533512H86400754H85343710H85261800H85875357H86517572H86238475H84538081
1911H81904523H79362374H77559856H76502731H76038947H76197332H76989242H78287877
1903H80104196H82700086H86344090H91164391H97121941I03833328I10556970I16518013
1895I21012458I23118182I21579418I15012451I02205264H82707393H57790437H30924190
1887H06855399G89589650G80711412G79295553G83155252G90003102G97970504H06066252
1879H14365514H23222083H32330063H40886588H48330055H54490961H59326605H62827245
1871H65070895H66357596H67216074H67953996H68368748H68424031H68946830H71018619
1863H74880107H79880137H85134591H89853660H93457720H95813889H97178442H97800605
1855H97798251H97388292H96986046H96990024H97458107H98004772H98064440H97142074
1847H94688573H89980138H82404510H71783580H58403427H42871924H25762284H07151790
1839G86771898G64811190G42367786G21223180G03574018F91701051F87077205F89487515
1831F97226480G08208417G20818657G33905511G46459091G57643653G67052730G74729424
1823G81021113G86461385G91475462G95997508G99625519H02254287H04220058H05707515
1815H06410698H05937744H04152838H00882509G95592257G87488067G75522067G58337823
1807G35237755G07911785F80714730F58677753F45114173F40500841F42885826F49377742
1799F57615677F66119759F73868990F80209223F85100556F89040298F92673829F96426208
1791G00287612G03943143G07192369G10118824G12841030G15294368G17271342G18579881
1783G19216575G19410595G19461170G19551199G19664039G19551036G18889095G17653131
1775G16261867G15230154G14796248G14985475G15838517G17347895G19218767G20906657
1767G21999260G22555911G23073432G24076735G25639124G27314433G28589932G29270869
1759G29369503G28975455G28431875G28268622G28675817G29282072G29651116G29823136
1751G30242349G31273496G32893117G34833479G36928732G39205261G41636355G43927252
1743G45626186G46515024G46896164G47405081G48495408G50182733G52250141G54487297
1735G56705214G58769294G60725162G62726896G64742509G66454921G67497271G67654838
1727G66845477G65173334G63079704G61155983G59655535G58373704G57035613G55556843
1719G53868138G51718819G48817611G45122870G40907035G36527947G32213884G28091569
1711G24292592G20948224G18169595G16097075G14924756G14818978G15757255G17439953
1703G19451672G21503978G23424695G25026053G26207383G27105314G27941873G28779322
1695G29531944G30178704G30907131G31993724G33513494G35264301G36991566G38502486
1687G39573980G40019333G39891393G39411620G38677835G37548622G35815756G33467708
1679G30761495G27991149G25264235G22588058G20047370G17744293G15609021G13394839
1671G10923317G08335461G05997157G04095680G02457064G00849133F99277893F97856355
1663F96562509F95252103F93777308F92015460F89913712F87544396F85014911F82347174
1655F79571798F76852758F74371697F72188404F70340303F68922699F67947971F67311237
1647F67020450F67292444F68321237F70075981F72401298F75214182F78507042F82149747
1639F85751781F88809503F91026770F92464871F93372704F93921808F94144806F94086032
1631F93899565F93722430F93519721F93135905F92445795F91402471F90050014F88575137
1623F87227550F86076419F84931458F83558787F81875197F79897857F77657616F75258709
1615F72924503F70845039F68987115F67184637F65444505F64015048F63082900F62584658
1607F62435896F62754487F63670074F65028539F66428811F67460527F67852788F67534847
1599F66653639F65445601F64120298F62964743F62344934F62305724F62370627F62100704
1591F61678325F61574537F61874456F62343148F62933204F63750239F64619311F65145763
1583F65225644F65080413F64728782F63880249F62468896F60810999F59062303F56964817
1575F54314130F51311975F48286968F45301943F42226685F39127602F36353643F34112753
1567F32198815F30351445F28623936F27147192F25763805F24104935F21907435F19236819
1559F16454459F13834661F11263004F08502521F05540835F02481002E99488020
1552E96994336E95430242E94651565E94137736E93589569E92709782E90735162
1545E86989115E81744527E75972351E70491936E65738487E61916862E58951441
1538E56554198E54515040E52699451E50869291E48902221E47069990E45687090
1531E44617220E43506395E42342640E41393607E40677600E39841487E38624682
1524E37261387E36306224E36112163E36589867E37414046E38259981E38853609
1517E39138104E39525332E40644316E42606962E44766307E46414259E47516155
1510E48578475E49977530E51544748E52639622E52615349E51335832E49162362
1503E46480380E43564154E40844709E38863472E37889963E37746031E37892033
1496E37669681E36718009E35150381E33219520E31025714E28615077E26012652
1489E23116031E19903052E16771943E14398364E13166662E12848762E12938100
1482E13233351E13896266E14987162E16229093E17240798E17862473E18332870
1475E19095637E20233533E21307830E21991689E22482260E23051855E23700973
1468E24477904E25625302E27175835E28773418E30085123E31175897E32335836
1461E33695519E35175104E36692681E38210745E39678235E41124211E42682703
1454E44364020E45914353E46993234E47443336E47437613E47378190E47546597
1447E47873549E48143960E48331688E48609161E49125181E49895984E50892224
1440E52131273E53622345E55250287E56830129E58297496E59760399E61325060
1433E62955478E64530611E65967212E67244375E68414502E69672141E71287946
1426E73355598E75704092E78074911E80176131E81625030E82244190E82418280
1419E82725789E83192614E83304967E82753675E81758531E80657285E79632875
1412E78897832E78691838E78944023E79190567E79023904E78719723E79297440
1405E81467947E84532205E87114659E88990402E91111106E93859736E96561160
1398E98599546E99950137F00784666F01273044F01646959F02145891F02916735
1391F04017128F05385537F06784064F08116064F09803754F12377725F15647733
1384F18724696F20985110F22654331F24209738F25620239F26620254F27387322
1377F28508498F30391385F32930855F35673153F38137653F40108823F41732421
1370F43267736F44847903F46571393F48605153F51020661F53637333F56063557
1363F57892825F59029059F59860342F60919293F62344853F63762741F64651823
1356F64862851F64912776F65588396F67138039F69156700F71257757F73321878
1349F75229241F77087246F79440327F82439072F85242702F87032556F88119718
1342F89414050F91290930F93408589F95298782F96959154F98942948G01682607
1335G04728072G07066378G08309973G09163904G10461728G12083215G13298072
1328G13940043G14498805G15222442G16083680G17525760G20151280G23458550
1321G25796288G26148281G25497302G25763410G27575021G29783845G31221619
1314G32109243G33412019G35505405G37976440G40386509G42696646G44899704
1307G46808246G48545902G50492350G52210363G52499607G51309510G50494626
1300G51804870G55057018G58864843G62356469G65555850G68579965G71153533
1293G72905233G73782298G74100932G74457312G75504938G77302911G79012397
1286G79684239G79138551G77850145G76430227G75445596G75405899G76769234
1279G79818189G84090526G88043013G90176502G90625589G90886421G92017013
1272G93802402G95698684G97541712G98810067G98337031G95879388G93290073
1265G92995637G95812093H00617781H04841815H05456994H01869981G97084994
1258G94317327G94485045G96655711G99078366H00449654H01164934H02542232
1251H04585855H05911604H05858107H05220601H05019112H05711577H07363507
1244H09597416H11643149H13109664H14399613H16066074H18094841H19955972
1237H21276526H22428306H24194700H26599979H28564127H29319503H29590160
1230H30545401H32197740H33681384H34627370H35509637H36909422H38887367
1223H40995123H42835555H44485778H46093630H47313111H47720638H47654232
1216H48052663H49434833H51435347H53372464H54925273H56191031H57437954
1209H58902115H60463935H61599155H62132101H62693947H63699929H64488023
1202H64501580H64600132H65884236H67905779H69404847H70302047H71674312
1195H74056780H76796031H78933014H79933313H79778259H79172738H79506956
1188H81726333H84952342H86816395H85836635H83356994H82526930H85095787
1181H89870464H94482376H97589209H99143808H99435244H98519940H96805908
1174H95661839H96175543H97493664H98001769H97538394H96666843H95194973
1167H93424440H93268980H96106867I00663902I04533180I06630463I07198803
1160I07101631I07813822I09934485I11458475I10159191I07410926I06290722
1153I06506985I04931854I00492284H95406528H92184173H90929294H89409200
1146H85711536H80447344H75789565H73127270H72140853H71413562H69586852
1139H66723231H64716379H65630387H69855473H76322917H83825971H91441458
1132H98210969I03518431I07587168I10771125I12778542I13572238I14607928
1125I17586666I21968189I25527278I27131634I27479493I27416741I26506958
1118I23351494I17016052I08307396H99676183H93407635H89776133H87270513
1111H84672352H82510125H82382835H85041640H89439074H94180225H98977632
1104I04095376I09547335I15275636I21377037I27867127I34518359I40761338
1097I45771843I49136263I51334290I53255900I55516189I58485347I62261106
1090I66191185I69236328I71027644I72140782I73603239I75960865I78650356
1083I80847652I82594482I84325319I85966858I87264600I88371569I89512228
1076I90560991I91276589I91604395I91625990I91386428I90918183I90549058
1069I90936205I92295075I93801937I94347222I94015602I94042229I95176637
1062I96881983I98111125I98156752I96779372I93940429I89438354I83003710
1055I74998559I66151491I56593774I46195521I35396401I25134368I16353543
1048I09909563I06422561I05955452I08082041I12312244I18380115I26086446
1041I35277473I46308523I59340659I72490181I83607851I93225884A002889459
1034A012775873A021703309A028733652A034157200A039123787A044671622A050700692
1027A056273692A060720157A063384725A063461118A060807753A056016271A049784576
1020A042648294A035068364A027475850A020112832A013216761A007755302A005586905
1013A008307163A016028752A027351401A040347493A053202494A063954611A070917168
1006A073741823A072976784A068737812A060204342A046712079A029767884A011518965
999I91677783I68653537I42620192I16399815H93030717H74333279H61284339
992H53523946H49600112H48673365H51476751H59183809H71062134H85558675
985I02035761I18945536I34483452I49281575I64876885I80103882I92823719
978A003391963A012561068A019674704A024302609A026788906A027148452A024981435
971A020130124A012187806A000128122I83421949I62282210I36546152I07488372
964H79422529H53330656H22413450G80631450G37078915G02175126F74448534
957F53720299F43554870F46555036F63460792F91271365G23944087G57986882
950G91162351H13826321H15197855G99324585G74726098G45199342G12699939
943F78513861F42741691F07616808E78529884E56413879E35685766E12632133
936D91550441D74983204D60729636D49401667D42088862D37528052D34737371
929D33626911D33924598D35953406D40907532D47229292D51835809D54859760
922D57316305D59788436D62795543D66161505D69055529D71810044D75930655
915D81591574D86752627D90482763D93854286D98191850E03411151E07973056
908E10890053E12250587E12633716E13339210E16095755E19364789E21034659
901E22805883E27252553E34614110E41600209E46707522E50968533E55124701
894E59329618E64214619E71177704E79658812E86692443E91811891E96529865
887F01969812F08144193F14497130F21149905F28518443F35658378F41213195
880F45703012F50850305F56886113F61521161F64020568F66405918F70987753
873F78480253F86606037F90543912F85129456F67479036F39990260F10810101
866E88457091E75856832E69997510E64844818E53838811E32001943D98179998
859D56335814D14074649C78805063C54838278C42965960C41263820C46222492
852C54679733C66031891C81699492C99479922D13766125D24455529D35402722
845D48531177D61392632D71700654D80235017D87463963D92799516D97051313
838E04067368E15822585E25380423E30879347E35298416E39688950E44025459
831E48290530E52068684E54894719E57055038E59071709E61107904E64163638
824E69780029E75647591E79168892E81287160E83800611E87364896E90748840
817E92858057E93885389E94186891E93639779E92336801E91383708E92227370
810E94918849E98646874F03318007F08374014F12443400F14872831F15710445
803F14832728F12039976F08465381F07395471F09346346F12607668F16977298
796F22955589F30956519F40744097F50137018F56158903F57484084F52683510
789F38105222F11944955E81204356E56264832E42798506E42076817E52058333
782E67714082E83684849E97251311F08084364F17003276F25415950F33633061
775F40242973F44810317F48337665F51967057F56116690F59942617F62369410
768F63357207F63987406F66450608F71586130F76547116F79799467F81971720
761F83742822F85577731F87872362F90602768F93340073F95894967F98272564
754G00225020G01604512G03028895G05354781G08045083G09982847G11393105
747G13217055G15742237G18222527G20041525G21385865G22552339G23367304
740G23681795G24058793G25297113G27176915G28989905G30581519G32190586
733G34093440G36302511G38599253G41032702G43899489G46926282G49318654
726G50818209G51784331G52511947G53081180G53829737G55281643G57408881
719G59772353G62372302G65736397G70068401G74650844G78725508G82237838
712G85492175G88782481G92207786G95627003G98903424H02048496H05060108
705H08090635H11753310H16675573H22810176H29648691H36475593H40738922
698H35664690H11119133G58156467F76363771E82542282E07831397D76311754
691D88036690E25350062E69017060F07865421F39049222F63606226F83094681
684F98829540G12056182G24001075G35660540G47461826G59209533G70398235
677G80605147G89766950G98212989H06374330H14411545H22222596H29771841
670H37273839H45122150H53678837H63010711H72926431H83369902H94539283
663I06514862I18927430I30952613I41439028I49076187I52444829I49729688
656I38429364I15555707H78493344H26615241G63055025F94879244F30823465
649E78218843E41034629E19581255E11500888E13206115E21015863E31771271
642E43079186E53409086E62092129E69088945E74629798E79024067E82676757
635E86145818E90132401E95308756F02013608F10120437F19221557F28868328
628F38608456F47942725F56498154F64320325F71798537F79192891F86369316
621F93062922F99251756G05170502G11054179G16949545G22765517G28472221
614G34198652G40104734G46217581G52408036G58385719G63615897G67483308
607G69991115G72378213G76566203G83661733G93138919H03310681H11906822
600H15842180H10694075G91253435G54402299G02989766F45976345E92943986
593E48813937E14847573D92915156D85901334D94175515E13884333E39204753
586E65387831E89781906F11297911F29782617F45654953F59559489F72048856
579F83468190F94040980G04012552G13683758G23249428G32600950G41355473
572G49034199G55123180G59100183G60538042G58909492G52900717G39932873
565G16762019F81312049F35055739E84287691E38359345E05357479D88788295
558D87703528D98863817E18467345E42857402E68858556E94081925F17156137
551F37750100F56180781F72748708F87381955F99792739G09443569G14786587
544G12780632G00112669F75180046F38516763E92373169E41969659D96507408
537D65448218D52192107D52658567D60265490D70907202D83445479D97745929
530E13456190E29832979E45842834E60432731E72922098E83202275E91635284
523E98801197F05203289F11076939F16511853F21763706F27226830F32978467
516F38555486F43391089F47395532F51021717F54834940F59061085F63490748
509F67761460F71701609F75385634F78935997F82388335F85758600F89119692
502F92528274F95936937F99260361G02487587G05700445G09018186G12460702
495G15814650G18795411G21480439G24380997G27850461G31548940G34695879
488G36763288G37783800G38237431G38919588G40584345G43205563G45794228
481G47491456G48776453G51212175G56043922G63228425G71666752G80174975
474G88271372G96190148H04342640H12851756H21385794H29154224H35043096
467H37768711H35712099H26562637H07599494G77172942G36742100F91877130
460F50758897F20431625F03497699E98009450F00223185F07249794F17530742
453F30005862F43744303F58110428F72595399F86400327F98429485G07711028
446G13771835G16668581G16560206G12953139G04432902F89930517F70949436
439F52167246F38894575F33584394F34847797F39348654F43962718F46249434
432F43766871F33847051F14656364E87008435E55472354E27340755E09491972
425E05232747E13454567E30286896E51409665E73447575E94324937F13071286
418F29421529F43441746F55339270F65493497F74535640F83144766F91577248
411F99511532G06492111G12414670G17517155G22136941G26634552G31329835
404G36273689G41199120G45870943G50345904G54756409G59091497G63364726
397G67704036G72080283G76245218G80082917G83724810G87212377G90349091
390G92979482G95149989G96927258G98300825G99374754H00486351H02015212
383H04171919H07030263H10636194H14925415H19491785H23392886H25129486
376H23007849H15990658H04491362G90154746G74371748G56698395G34794513
369G06255878F71010362F32544479E96957642E70012204E53909763E46266187
362E42110344E36967434E28449105E15966151D99907913D81103926D60631368
355D39894731D20556662D04035777C91099514C81997422C76885686C76128318
348C79975880C87400920C95504663D01286578D04295311D06618355D10304167
341D15893891D23218510D32137422D42225406D52739544D63198395D73539298
334D83711709D93451350E02483751E10798522E18629867E26186377E33554428
327E40845926E48140185E55266035E61990573E68402771E74735413E80841319
320E86237267E90747217E94815548E99021398F03459098F07826820F12026298
313F16316981F20840041F25324866F29372861F32787938F35542940F37614570
306F38984197F39714532F39928036F39711772F39018942F37624190F35406396
299F32996611F31877870F33256671F36864874F41299124F45453424F49237666
292F53043381F56979348F60744553F64048373F66906474F69419925F71484249
285F72975362F74020837F74836858F75545234F76313926F77362000F78796814
278F80731128F83347881F86419810F88345560F84895495F69744117F40254663
271F04923705E80932322E79728140E96871186F18948549F36967201F49880449
264F59519914F67083365F73323746F78884975F83906318F88167533F91854643
257F95803396G00630272G05938951G10913575G15384721G19795388G24442045
250G29154214G33525346G37281703G40423203G43031838G45214279G47377561
243G50136541G53698066G57653557G61569189G65518998G69765194G74234878
236G78810665G83763533G89132447G94040016G97529373G99848033H02244867
229H05675858H10014758H14447022H18608467H23230282H29467010H37729256
222H47360199H57361239H67244568H77046393H86691943H95752436I03735506
215I10122335I14153324I15027631I12456988I06455926H95990131H78458517
208H52302756H16790199G66946790F97695862F13059150E27696645D56961546
201D09602285C87791598C87860154D03034709D26217012D49072850D62438148
194D63660312D61691171D67220416D79404709D90321458D99009129E11252440
187E28675800E46973345E62339525E73874541E82088811E88233846E93744257
180E99429286F05481695F11542019F16770249F20667371F23651991F26714828
173F30735872F35742846F40836723F45177453F48457690F50466527F51368639
166F52211002F54025982F56687668F59174696F60465984F59932145F57402945
159F53426874F49601352F48023337F49628385F53348373F57544644F61773265
152F66551271F72043051F77457548F81715191F84589853F86376785F86315169
145F83028601F77412818F73461589F74598838F80243968F87092142F92599956
138F96787619G01129850G06206114G11044681G14564560G16911956G19010700
131G21267179G23533398G26208516G30281884G35844250G41320078G44995499
124G47270239G50526851G56476124G64564890G73339708G82150407G90897705
117G99328482H07260977H14860065H22601138H31181043H40909156H51073774
110H60326335H67445245H71686408H72566155H68130079H52601011H16534563
103G51444512F57444915E46661574D37917714C49862923B96690184B83100180
96C01770159C36771060C69321058C83111779C69488167C34056018B95675598
89B70876089B63722698B69655407B82119283B97248154C14862875C35571951
82C58353936C81228689D02600843D21805371D39105297D54830901D68460115
75D79060627D86565061D92252401D97996288E05267492E14260237E23738519
68E32253033E39009353E43911483E47511852E50379005E52477871E53833535
61E55536283E59086971E64467656E70347517E75901684E80571883E83490666
54E84482523E84875433E86880739E92022837E99482256F06222421F09904985
47F11020032F11326121F11939476F13222078F15065552F16814208F17653324
40F17496890F16932203F16355703F16021445F16624815F18940999F23174897
33F28751835F34187155F38367758F41162335F42474852F42904050F44289629
26F47554442F50919471F52525250F53703373F57073029F62020580F62805305
19F48927316F11930505E62365909E24972413E13364782E26561875E54575032
12E83174836F02194031F11792702F19538808F31394444F45750299F56565168
5F59167228F53143232F43502712F39580139F46074126
##END=


$$ === CHEMSPECTRA PEAK TABLE EDIT ===
##TITLE=X7592
##JCAMP-DX=5.00
##DATA TYPE=INFRAREDPEAKTABLE
##DATA CLASS=PEAKTABLE
##$CSTHRESHOLD=0.93
##MAXX=3997.453
##MAXY=0.7883723956968852
##MINX=373.96442
##MINY=0.193632855467069
##$CSSOLVENTNAME=- - -
##$CSSOLVENTVALUE=0
##$CSSOLVENTX=0
##NPOINTS=44
##PEAKTABLE= (XY..XY)
393.7958664894445, 0.3769273156567258
497.2026946129786, 0.193632855467069
509.9514816419073, 0.2078603648922218
575.1119486786833, 0.49447503576449686
594.9433951681281, 0.47579753318240636
645.9385432838153, 0.3389870514090707
655.8542665285377, 0.28472784108585797
753.5949670836858, 0.4256532183013414
793.2578600625752, 0.4649554186242257
866.9175184519154, 0.2761643225581052
974.573942251759, 0.37095653964939046
991.5723249570224, 0.46519604235806994
1019.9029627990863, 0.43907588644414447
1131.808982275215, 0.33201256305242405
1162.9726839014852, 0.3580860785369473
1208.3017044487879, 0.35676285542049935
1287.6274904065672, 0.3755587928130479
1352.787957443315, 0.34972190759078353
1483.1088915168098, 0.39800852468986114
1507.189933682585, 0.4467529343109028
1582.2661239640343, 0.2505657967074182
1688.5060158717747, 0.3183814575728881
1725.3358450664768, 0.47471946399279435
1774.9144612900886, 0.6231206045973187
1811.7442904847717, 0.7439331393444366
1855.6567791399707, 0.6655217396046946
1944.898288342472, 0.6479645353937262
1984.5611813213613, 0.6348998523524128
2368.441324081327, 0.42525851660974867
2425.1025997654415, 0.40190094653929187
2474.6812159890537, 0.3765484388029856
2494.512662478499, 0.3948287359725593
2528.5094278889756, 0.39362910268844864
2650.3311706098625, 0.48648887748452857
2705.575914401887, 0.4897457646532545
2791.984359820182, 0.5257792464411457
2885.4754646989927, 0.5251427278935675
2925.138357677882, 0.4702742983915974
2969.050846333081, 0.504472016020717
3041.293972830344, 0.5721814023765925
3072.4576744566143, 0.6433294996390013
3112.1205674355037, 0.6364479052024709
3187.196757716973, 0.6842220407317746
3207.0282042064177, 0.6818361261181001
##END=


$$ === CHEMSPECTRA PEAK TABLE AUTO ===
##TITLE=X7592
##JCAMP-DX=5.00
##DATA TYPE=INFRAREDPEAKTABLE
##DATA CLASS=PEAKTABLE
##$CSTHRESHOLD=0.93
##MAXX=3997.453
##MAXY=0.7883723956968852
##MINX=373.96442
##MINY=0.193632855467069
##NPOINTS=130
##PEAKTABLE= (XY..XY)
3990.370340539484, 0.6842305049238019
3971.9554259421425, 0.6850569832008473
3962.0397026974197, 0.6860570295447117
3952.1239794526973, 0.6866831169007448
3942.208256207975, 0.6873510464995999
3933.709064855356, 0.6864415988759665
3925.2098735027366, 0.6881832466233202
3919.543745934324, 0.688433168633347
3903.9618951211883, 0.68970542964844
3892.6296399843627, 0.6926866160265979
3881.297384847537, 0.6900066720635788
3871.381661602815, 0.6920521246853163
3855.799810789679, 0.6936227660908669
3838.801428084441, 0.6948353034498284
3828.8857048397185, 0.6977631436850358
3821.8030453792026, 0.6969215256058042
3809.054258350274, 0.7006711942457367
3801.9715988897574, 0.7000702006345783
3787.8062799687254, 0.7036413532383934
3780.7236205082095, 0.7032035574435167
3767.9748334792807, 0.7050290093558429
3750.976450774042, 0.7049672584934149
3745.310323205629, 0.706216272349593
3735.394599960907, 0.7041519265469702
3712.7300896872557, 0.7120273094935129
3702.8143664425334, 0.7129723400576579
3677.3167923846754, 0.7139244067384058
3670.2341329241594, 0.7160829291592253
3657.4853458952307, 0.7162089331365474
3648.9861545426115, 0.7138988959514534
3629.1547080531664, 0.709305165718144
3620.655516700547, 0.7133327708759799
3610.739793455825, 0.7130742055220473
3588.0752831821737, 0.7085891947809356
3568.2438366927286, 0.7072190625072678
3561.1611772322126, 0.7074702965845355
3544.1627945269743, 0.7050610151326178
3531.414007498045, 0.7030929906311298
3522.914816145426, 0.7020977123704565
3508.749497224394, 0.699815628018002
3494.584178303362, 0.697561024388934
3488.9180507349492, 0.697222469923965
3476.1692637060205, 0.6946902256712845
3464.8370085691945, 0.6911753994459715
3457.7543491086785, 0.6916025863658827
3442.1724982955434, 0.6877652985070418
3428.007179374511, 0.6841160643191583
3418.0914561297886, 0.6809456928231387
3409.5922647771695, 0.6793771968347552
3391.177350179828, 0.6751831757348867
3368.512839906177, 0.6746373161143183
3350.097925308835, 0.6781913611822004
3337.349138279906, 0.6778899418178702
3324.6003512509774, 0.680787561921255
3317.517691790461, 0.6812395437548339
3306.1854366536354, 0.6811086520149922
3293.4366496247067, 0.6821482762394115
3280.687862595778, 0.6847592562742084
3273.605203135262, 0.684869287833647
3263.6894798905396, 0.6873956905603239
3248.107629077404, 0.6892824160862215
3233.942310156372, 0.6898180229328944
3207.028204206411, 0.6818361253838711
3185.780225824863, 0.683714863966598
3151.7834604143864, 0.7040475588301148
3113.5370993275997, 0.6361249670543155
3086.6229933776385, 0.649984895004818
3073.87420634871, 0.6432132095114814
3041.2939728303363, 0.5721814023765925
2997.381484175137, 0.6585931765383944
2969.0508463330725, 0.504472016020717
2925.1383576778735, 0.4702742983915974
2884.05893280688, 0.5248241415207545
2859.9778906411257, 0.5347159493451242
2789.1512960359655, 0.5248408305461518
2705.5759144018766, 0.4897457646532545
2648.914638717748, 0.48637965210854295
2630.4997241204064, 0.48628407604985324
2624.8335965519937, 0.48574721734271836
2528.5094278889756, 0.39362910268844864
2494.512662478499, 0.3948287359725593
2474.6812159890537, 0.3765484388029856
2425.1025997654415, 0.40190094653929187
2371.27438786552, 0.4248923353098204
2365.608260297107, 0.42491280928576425
2240.953453792025, 0.532681165805131
2215.455879734167, 0.5510349262583003
2187.125241892103, 0.56932550557093
2164.460731618452, 0.5822404014888294
2154.5450083737296, 0.5832108246290563
2138.963157560594, 0.5910683856348391
2096.4672007974978, 0.6223723275836703
2058.2208397107115, 0.6455141290407294
2048.305116465989, 0.6479768741122393
2035.55632943706, 0.6576209053437494
2024.2240743002344, 0.6558639988491098
2015.7248829476152, 0.6660203324985153
2007.2256915949959, 0.6654249403204742
1984.5611813213445, 0.6348998516181837
1943.4817564503514, 0.6478710753830433
1888.2370126583264, 0.7272898542117726
1881.1543531978105, 0.729835091381014
1854.2402472478498, 0.6651787746260626
1774.91446129007, 0.6231206045973187
1726.7523769585614, 0.47251665508077867
1688.5060158717747, 0.3183814575728881
1582.2661239640343, 0.2505657967074182
1522.7717844956996, 0.4342110744549691
1505.7734017904609, 0.4459673753508137
1483.1088915168098, 0.39800852468986114
1352.787957443315, 0.34972190759078353
1287.6274904065672, 0.37555879134458986
1208.3017044487879, 0.35676285542049935
1162.9726839014852, 0.3580860785369473
1131.808982275215, 0.33201256305242405
1019.9029627990617, 0.43907588644414447
991.5723249569974, 0.46519604235806994
974.573942251759, 0.37095653964939046
866.9175184519154, 0.2761643225581052
794.6743919546516, 0.4639430629310087
753.594967083659, 0.4256532183013414
655.8542665285377, 0.28472784108585797
645.9385432838153, 0.3389870514090707
594.9433951680999, 0.47579753318240636
575.1119486786547, 0.49447503576449686
509.9514816419073, 0.2078603648922218
497.2026946129786, 0.193632855467069
424.95956811571523, 0.45230081570111946
393.7958664894445, 0.3769273156567258
375.380951892103, 0.46959829227363237
##END=

##END=

