##TITLE=X8244
##JCAMP-DX=4.24
##DATA TYPE=INFRARED SPECTRUM
##DATE=31/10/2018
##SAMPLING PROCEDURE=Diamant-ATR
##ORIGIN=ComPlat
##XUNITS=1/CM
##YUNITS=TRANSMITTANCE
##RESOLUTION=4
##FIRSTX=3997.453
##LASTX=373.96442
##DELTAX=-1.4165319
##MAXY=0.9906258
##MINY=0.59410238
##XFACTOR=1
##YFACTOR=9.2259217e-010
##NPOINTS=2559
##FIRSTY=0.97552371
##XYDATA=(X++(Y..Y))
3997+1057372631+1057982702+1058587734+1058749377+1058454323+1057872355
3989+1057202783+1056818508+1057058454+1057713361+1058130520+1058021336
3980+1057800966+1057936380+1058290741+1058343395+1057888378+1057309188
3972+1057119829+1057402543+1057803809+1057946781+1057765627+1057523097
3963+1057545968+1057885018+1058294036+1058586635+1058757259+1058654342
3955+1057983283+1056935961+1056400962+1057083392+1058599233+1059852712
3946+1060291448+1060255076+1060237115+1060330083+1060226261+1059698240
3938+1059033835+1058746082+1058927430+1059221902+1059329858+1059162853
3929+1058747116+1058353409+1058340940+1058627143+1058712229+1058413169
3921+1058048793+1057816795+1057526780+1056975952+1056324663+1055958672
3912+1056197455+1057177005+1058668168+1060060290+1060894090+1061333408
3904+1061807096+1062235109+1062297259+1062205907+1062229165+1062235496
3895+1062204227+1062305852+1062406766+1062122437+1061660894+1061710705
3887+1062263471+1062422400+1061646681+1060694200+1060327886+1060378085
3878+1060577070+1061213565+1062301330+1063036348+1062739033+1061982436
3870+1061931656+1062914308+1064324196+1065439612+1065416936+1063666576
3861+1061080994+1059383610+1059424570+1060950878+1063263113+1065341606
3853+1065558681+1063740872+1061835717+1060915410+1061007602+1061733188
3844+1062436614+1062609369+1062499087+1062779153+1063518435+1064113711
3836+1064325295+1064334533+1063881648+1062655821+1061250519+1060692714
3827+1061174866+1062088583+1063176736+1064824373+1066788190+1067539231
3819+1066545208+1065114194+1063907361+1062636956+1061322425+1060261471
3810+1059515600+1059209886+1059835074+1061599131+1063607461+1064720293
3802+1064430537+1063206842+1062422465+1062689416+1063284498+1063174345
3793+1062189562+1060978400+1060081997+1059726278+1060055509+1060863661
3785+1061339481+1060916056+1060117401+1059772730+1059928882+1059922550
3776+1059345687+1058585279+1058448444+1059402863+1060857329+1061419980
3768+1060641417+1059675369+1059653726+1060598261+1061818273+1062591861
3759+1062405151+1061413648+1060677079+1061048562+1062425566+1063985663
3751+1064523892+1063633950+1062532941+1062158099+1062075662+1061131580
3742+1059296328+1057709355+1056801323+1056581147+1057239479+1058273363
3734+1057880431+1055682742+1053833858+1053863447+1055384974+1057181269
3725+1058271360+1058440368+1058038521+1057386327+1056728577+1056421765
3717+1056697438+1057457975+1058520285+1059748503+1060612151+1060265994
3708+1058846221+1057342137+1056476163+1056448318+1056969233+1057296332
3700+1056960964+1056448512+1056445540+1057151615+1058631859+1061111811
3691+1064347325+1066754143+1066340667+1063656691+1060959212+1059204846
3683+1058328342+1058221613+1058891315+1060324139+1062352626+1064392161
3674+1065544403+1065760186+1065455441+1064362895+1062543536+1061088294
3666+1060437974+1060018102+1059358414+1058623525+1058287705+1058569902
3657+1059381155+1060483650+1061570963+1062557555+1063718196+1065173179
3649+1065784090+1064043097+1061268221+1059620261+1059336319+1059412618
3640+1059181911+1059022013+1059428511+1059951429+1059699080+1058576040
3632+1057444149+1057082681+1057367075+1057375021+1056699053+1055914353
3623+1055769378+1056873100+1059189793+1061501576+1062490882+1062476475
3615+1062355275+1062232848+1062042713+1062103184+1062624228+1063248900
3606+1063303621+1062512138+1061291479+1060255011+1059604432+1059132424
3598+1058800997+1058737619+1058691296+1058291904+1057828230+1057994912
3589+1058984800+1060088199+1060329437+1059899680+1059660510+1059682024
3581+1059592157+1059422826+1059436781+1059511013+1059394658+1059284505
3572+1059591447+1060504841+1062093364+1064208875+1065804311+1065484966
3564+1063537558+1061452928+1060165015+1059671881+1059553717+1059625817
3555+1059950331+1060365293+1060494181+1060375113+1060596322+1061491369
3547+1062492498+1062516918+1061325591+1060138204+1060311024+1061878227
3538+1063546668+1063991154+1063144950+1061992321+1061297681+1061110131
3530+1061158068+1061175253+1061070592+1060983956+1061052374+1061228876
3521+1061394719+1061390003+1061011220+1060320327+1059783390+1059733514
3513+1059942578+1059989934+1059805485+1059694363+1059988448+1060703826
3504+1061463782+1061762842+1061411645+1060682700+1060002145+1059653403
3496+1059666195+1059840243+1059986381+1060139948+1060459617+1060981501
3488+1061548609+1061988251+1062272774+1062408575+1062251842+1061620192
3479+1060591800+1059574391+1059108132+1059484137+1060347074+1060906559
3471+1060747500+1060116432+1059395756+1058790401+1058506718+1058632828
3462+1058825030+1058655053+1058239251+1058056288+1058278079+1058627078
3454+1058816954+1058961477+1059483426+1060526355+1061522379+1061669099
3445+1060868958+1059795665+1059161044+1059231787+1059685512+1059814917
3437+1059237731+1058389330+1058015457+1058317294+1058853715+1059161496
3428+1059276236+1059544414+1059970294+1060071983+1059574843+1058848999
3420+1058374535+1058234535+1058370142+1058790143+1059313449+1059528068
3411+1059184883+1058462592+1057832881+1057704639+1058140533+1058872838
3403+1059547450+1059913053+1059866537+1059439753+1058788076+1058160690
3394+1057782166+1057664390+1057599978+1057453646+1057385746+1057607731
3386+1057968618+1058030445+1057736167+1057682609+1058325241+1059224487
3377+1059607210+1059380703+1059030217+1058893060+1059021496+1059348594
3369+1059654243+1059738101+1059648816+1059418626+1058948814+1058561051
3360+1058962705+1060108356+1060873997+1060498703+1059607792+1059156780
3352+1059156005+1059094371+1058915478+1058928916+1059202650+1059464238
3343+1059388649+1058908888+1058361872+1058120376+1058035808+1057681187
3335+1057164859+1057162533+1058049116+1059395691+1060374854+1060495925
3326+1059987479+1059537888+1059622780+1060073275+1060313737+1060007248
3318+1059408613+1059021883+1059043268+1059314030+1059593902+1059558885
3309+1058851131+1057579627+1056463824+1056071021+1056146933+1055828363
3301+1054255409+1050766253+1044093332+1031191524+1008799602+979122297+953379733
3291+945267850+958698455+984279376+1008668129+1024757837+1032783277+1035768251
3281+1036268880+1035567909+1033730654+1030316376+1025509265+1020528301
3272+1016924599+1015600571+1016431141+1018529209+1020779035+1022468343
3264+1023679246+1024777477+1025384964+1024349013+1020828006+1014708949
3255+1005798735+993392000+977023518+957284044+935819019+914777936+896277792
3245+882333959+875163833+876932606+888344156+907241948+929141188+949840636
3235+967574881+982537867+995117551+1005233759+1012837195+1018347796+1022579852
3225+1026349462+1030025069+1033369961+1035948242+1037742922+1039206433
3217+1040592159+1041618032+1042147992+1042756965+1044030729+1045660988
3208+1046846630+1047348874+1047601353+1047948156+1048253805+1048292181
3200+1048208840+1048401752+1049074555+1050062117+1050979969+1051440995
3191+1051342019+1051000901+1050750296+1050541813+1050315112+1050416156
3183+1051140901+1052195911+1053047413+1053495260+1053632482+1053541130
3174+1053283741+1052990237+1052795322+1052809923+1053179338+1053935870
3166+1054785822+1055357581+1055641459+1055808270+1055737463+1055226884
3157+1054457560+1053784305+1053373090+1053347184+1053781850+1054349863
3149+1054520809+1054162894+1053520391+1052813929+1052205602+1051785020
3140+1051401391+1050918206+1050602026+1050770194+1051192974+1051336398
3132+1051087473+1050857864+1051031589+1051591784+1052254250+1052802300
3123+1053225983+1053608255+1053993434+1054359166+1054576499+1054456656
3115+1053991172+1053472518+1053181406+1053021184+1052663527+1052067282
3106+1051616980+1051653224+1052089312+1052639623+1053153431+1053510054
3098+1053521037+1053233671+1053038304+1053170552+1053329029+1053029776
3089+1052171813+1051104335+1050178084+1049289886+1047954617+1045895571
3081+1043479191+1041470538+1040434134+1040471993+1041456841+1043262375
3072+1045613502+1047917985+1049562069+1050335657+1050373903+1049897695
3064+1049183997+1048510419+1047964501+1047552124+1047406502+1047542368
3055+1047642894+1047538621+1047636563+1048407179+1049649028+1050647961
3047+1050990500+1050919563+1050833831+1050745321+1050495750+1050266335
3038+1050415768+1050924602+1051474202+1051972182+1052532442+1053064599
3030+1053281221+1053047284+1052532700+1052099714+1051994148+1052100489
3021+1052219428+1052440896+1052790089+1052791640+1052074259+1051143744
3013+1050888358+1051536159+1052570042+1053391761+1053750193+1053727711
3004+1053514706+1053196006+1052799134+1052400000+1051980516+1051418899
2996+1050839387+1050619017+1050850628+1051172106+1051280385+1051290270
2987+1051513611+1052043830+1052545040+1052473522+1051592366+1050108956
2979+1048267372+1046201349+1044213176+1042654952+1041416333+1040016071
2970+1038287871+1036582670+1035250760+1034194264+1032974316+1031187906
2962+1028653880+1025411775+1021875393+1019014462+1017965783+1019148583
2953+1021739656+1024016552+1024273683+1021826486+1017588486+1013661498
2945+1011982462+1012999549+1015523238+1017853757+1019016594+1019066663
2936+1018690206+1018669726+1019319142+1020250755+1020924527+1021374893
2928+1022139759+1023613219+1025665546+1027854514+1029930616+1032004004
2919+1034080752+1035673604+1036210993+1035721024+1034934516+1034774552
2911+1035649829+1037131688+1038512310+1039660934+1040968100+1042556752
2902+1044050628+1045078051+1045638828+1045997066+1046416809+1046973645
2894+1047525894+1047882840+1047999711+1047960431+1047780569+1047352880
2885+1046608817+1045602326+1044439295+1043297972+1042450023+1042032348
2877+1041931822+1042064005+1042542086+1043439717+1044616185+1045810743
2868+1046721037+1047080115+1046842301+1046282365+1045880195+1046065031
2860+1046872472+1047811321+1048251221+1048005913+1047490942+1047326133
2851+1047786448+1048596796+1049268824+1049554123+1049523564+1049378848
2843+1049286462+1049285815+1049352230+1049554704+1049993053+1050607001
2834+1051272503+1051991951+1052764958+1053444803+1053935547+1054354385
2826+1054829430+1055259381+1055418634+1055262482+1054985582+1054757460
2817+1054577469+1054475198+1054598272+1054976408+1055435367+1055836568
2809+1056211345+1056603178+1056940032+1057125127+1057168736+1057124028
2800+1056931310+1056515314+1056059974+1055936642+1056275950+1056799837
2792+1057100189+1057001601+1056709648+1056623658+1056923493+1057385294
2783+1057656508+1057583504+1057233987+1056744147+1056226463+1055777389
2775+1055497711+1055416502+1055439631+1055490927+1055614583+1055874749
2766+1056329250+1057069760+1057987612+1058610604+1058551361+1058015134
2758+1057544546+1057405386+1057443826+1057381934+1057093793+1056686971
2749+1056358387+1056175101+1056083103+1056105004+1056322789+1056633543
2741+1056773672+1056693432+1056691300+1057025182+1057582728+1058062684
2732+1058301595+1058284281+1058012679+1057565220+1057167056+1057022662
2724+1057105939+1057241352+1057352086+1057517089+1057803809+1058159140
2715+1058469441+1058660738+1058740913+1058781486+1058854167+1058986350
2707+1059162788+1059335802+1059424312+1059362484+1059161884+1058891638
2698+1058614545+1058415172+1058435587+1058709515+1059006120+1059093208
2690+1059098376+1059254722+1059398082+1059192313+1058754287+1058539538
2681+1058647752+1058727088+1058558273+1058322398+1058215928+1058128258
2673+1057866799+1057500292+1057269779+1057282894+1057449189+1057605599
2664+1057618262+1057473868+1057272751+1057081066+1056916451+1056876072
2656+1057070793+1057479812+1058047307+1058703959+1059168474+1059115949
2647+1058696723+1058474609+1058742852+1059245290+1059575101+1059584146
2639+1059390975+1059157103+1058882529+1058463949+1058000210+1057852392
2630+1058206948+1058745565+1059025243+1059046757+1059085391+1059114269
2622+1058905012+1058614803+1058671075+1059063231+1059355830+1059438267
2614+1059658313+1060154808+1060658150+1061036222+1061475476+1062036511
2605+1062555100+1063007857+1063427341+1063465071+1062667191+1061286569
2597+1060260567+1060180908+1060711256+1061190888+1061380699+1061369006
2588+1061137201+1060606142+1059951364+1059583629+1059783971+1060371624
2580+1060819535+1060844731+1060746466+1060883624+1061132678+1061303173
2571+1061617931+1062171860+1062471565+1062275552+1062297647+1063208845
2563+1064410703+1064655688+1063585625+1061929653+1060515501+1059741332
2554+1059665872+1059994844+1060184849+1059885467+1059145151+1058241124
2546+1057604694+1057703283+1058593742+1059748890+1060560919+1060819535
2537+1060688385+1060510526+1060590508+1060929235+1061280108+1061495374
2529+1061580202+1061524835+1061431221+1061580072+1061934240+1061881781
2520+1061010380+1059909242+1059610441+1060305856+1061142628+1061357829
2512+1061136038+1061145341+1061655596+1062396364+1063002882+1063310017
2503+1063303040+1062932010+1062091038+1060910112+1059910469+1059544220
2495+1059691521+1059894512+1059900455+1059743205+1059581950+1059649139
2486+1060097373+1060823217+1061562112+1062001236+1061810133+1061019812
2478+1060370526+1060634504+1061534138+1061994582+1061583238+1061061612
2469+1061306144+1062175155+1062742263+1062461875+1061831001+1061743912
2461+1062303914+1062685668+1062287762+1061473667+1060860301+1060522607
2452+1060351919+1060562728+1061293999+1062161652+1062633402+1062539466
2444+1062052598+1061483487+1061132743+1061068848+1061023107+1060689548
2435+1060133811+1059750764+1059808909+1060185108+1060570932+1060743688
2427+1060638898+1060403927+1060339192+1060535916+1060750407+1060838594
2418+1060954108+1061148507+1061242443+1061198576+1061164529+1061201354
2410+1061328304+1061636344+1062093881+1062539207+1062888659+1063017741
2401+1062646388+1061764457+1060843827+1060253719+1059869961+1059548807
2393+1059500417+1059930368+1060657116+1061131903+1060568477+1058313676
2384+1054451488+1049736375+1044658373+1038978117+1032362824+1024969550
2376+1017171199+1009176898+1001104684+993082733+985232244+977664212+970422115
2366+963670504+958140909+954775408+953613605+953840306+955278686+958845369
2356+965109918+973465299+982822519+991817044+998511672+1001007905+998459665
2346+991969771+984773157+980066637+978515133+979060792+980709334+982902566
2336+985220034+987162402+988411875+989373271+990887046+993081763+995137579
2326+996463674+997503308+999222205+1002191738+1006292193+1010982496+1015483829
2316+1019003156+1021278178+1022846351+1024551293+1026874188+1029836873
2308+1033257870+1036817640+1040046177+1042579105+1044467011+1046097851
2299+1047816490+1049673837+1051418447+1052623213+1053013948+1052875886
2291+1052942688+1053673119+1054841770+1055988132+1056922265+1057545516
2282+1057626854+1057121573+1056388235+1055825520+1055535376+1055387946
2274+1055187733+1054859149+1054604732+1054660034+1054913805+1055109690
2265+1055348860+1055893033+1056483205+1056452905+1055749673+1055249367
2257+1055629183+1056549426+1057450675+1058306311+1059050374+1059457971
2248+1060062357+1061702758+1063780282+1064584815+1063735704+1062753246
2240+1062853578+1063472565+1063388448+1062454316+1061647391+1061781125
2231+1062677076+1063504997+1063696876+1063644674+1064371940+1066206094
2223+1068193492+1069228668+1069071353+1067979647+1066318055+1064794461
2214+1064202802+1064762352+1066101949+1067725424+1069234418+1070274568
2206+1070447582+1069455304+1067468617+1065113806+1063004239+1061551452
2197+1060976462+1061188110+1061836427+1062393134+1062099760+1060530812
2189+1058297783+1056461433+1055547328+1055810919+1057509853+1060136137
2180+1062620740+1064652457+1066333690+1066665569+1064262110+1059843990
2172+1056319107+1055798063+1057602433+1059567542+1060370267+1060190535
2163+1060385579+1062758221+1067226152+1070332132+1069109470+1065482834
2155+1063524443+1065111157+1069133116+1072752452+1073741823+1072309645
2146+1070062016+1067866264+1065815617+1063920540+1061879713+1059678147
2138+1058729414+1060681537+1065007724+1069256448+1071493160+1071405684
2129+1069690404+1067388893+1065286174+1063361249+1061200320+1058999788
2121+1057498353+1056921813+1056816247+1056983705+1057636674+1058503294
2112+1058799059+1058346884+1057860080+1057933537+1058436104+1058953854
2104+1059354990+1059833072+1060513175+1061130546+1061411322+1061686736
2095+1062474473+1063514817+1064062608+1063973000+1063657014+1063266021
2087+1062726112+1062162750+1061526514+1060399921+1058991389+1058569902
2078+1059933533+1062123987+1063644674+1064303781+1064754664+1064959399
2070+1064437838+1063531679+1063234881+1063947933+1065034277+1065475662
2061+1064699684+1062953653+1061120468+1060166695+1060449022+1061046430
2053+1060012223+1056341331+1051847493+1050077751+1052769415+1058218900
2044+1063592731+1067726135+1070899886+1072626601+1071308129+1066912233
2036+1062460970+1061115945+1062870053+1065695321+1068211323+1069472619
2027+1068533705+1066149757+1064716159+1065152440+1065755792+1065026266
2019+1063790231+1063616635+1064831544+1066897245+1068959198+1069579153
2010+1067950639+1065562945+1064534229+1064535586+1063665283+1061746949
2002+1060547804+1061336186+1063425209+1064753113+1063787194+1060996554
1993+1058131101+1056310837+1055548362+1055626793+1056151326+1056172323
1985+1055045084+1053365661+1052421191+1053249823+1056249850+1060487010
1976+1063397752+1062962956+1060008863+1056835047+1054446190+1052689886
1968+1052186802+1053952086+1057278630+1060244157+1062186138+1063950000
1959+1065901801+1066978454+1065853088+1062447790+1058413169+1056165087
1951+1057025376+1060186141+1063574319+1065719419+1066665956+1067081112
1942+1067005330+1066163648+1065086478+1064744908+1065264790+1065744422
1934+1065342058+1064089549+1062632498+1061550354+1060871219+1060115140
1925+1058951592+1057701086+1056917549+1056689168+1056905661+1057861437
1917+1059770856+1061884042+1063091650+1063240178+1063184876+1063440456
1908+1063419265+1062649941+1061749533+1061376888+1061266864+1060940477
1900+1060538630+1060402893+1060471117+1060509751+1060541472+1060718685
1891+1060908820+1060762747+1060497282+1061108064+1063002559+1065001974
1883+1065477213+1064287953+1062683149+1061573612+1060935050+1060611117
1874+1060838529+1061980240+1064025072+1066088899+1066662015+1065484320
1866+1064148081+1063865561+1064391903+1064855707+1064733602+1064134708
1857+1063532002+1063341480+1063581942+1063876932+1063856839+1063561785
1849+1063488006+1064198538+1065633882+1066710599+1066367608+1065162131
1840+1064334146+1064290601+1064556001+1064448045+1063892178+1063437872
1832+1063423077+1063529612+1063448402+1063455380+1063581619+1063168531
1823+1061885205+1060383059+1059539762+1059778157+1060929817+1062407606
1815+1063780023+1064983044+1065805280+1065763028+1064887234+1063940245
1806+1063550738+1063774919+1064373426+1065009856+1065317572+1065211619
1798+1065028527+1065145592+1065626516+1066078433+1065788418+1064653943
1789+1063552870+1063098757+1063034410+1062793754+1062307790+1061895477
1781+1061507649+1060925876+1060484361+1060775086+1061917766+1063354466
1772+1064046521+1063487489+1062327882+1061246836+1060406511+1059917317
1764+1059887017+1060005827+1059717104+1058986609+1058085231+1057074734
1755+1056244164+1056241128+1057361713+1058966775+1059771567+1059335285
1747+1058409357+1057676923+1057339294+1057383743+1057600107+1057630860
1738+1057569355+1058060681+1059365844+1060438620+1059919126+1058322463
1730+1056637548+1055218550+1054240938+1053710590+1053479237+1053576921
1721+1054309678+1056017851+1058597424+1060648782+1060540826+1058940286
1713+1057494606+1057064656+1057654957+1058818376+1060095823+1061206781
1704+1062138394+1063181904+1064565821+1065742677+1065679945+1064225867
1696+1061873640+1059580011+1058329828+1058247003+1058774961+1059331538
1687+1059952850+1060993259+1061885075+1061137653+1058857850+1056200168
1679+1053788634+1051709560+1049638368+1047440743+1045531518+1043933627
1670+1041754544+1038212153+1033947148+1029691704+1024771275+1017702515
1662+1007830000+995895274+982720184+968905627+953112782+926087086+876020504
1652+825429001+796182551+774984799+748473622+719276272+702307087+702803323
1642+718128101+745088545+779775952+820430657+866167241+906755015+932367463
1632+948000216+960600122+972222674+981663236+987098572+987014908+980109858
1622+968405322+957755407+952822574+956231231+967562283+980553634+990444626
1612+997953997+1004520448+1010352010+1015005683+1017674864+1016919172
1604+1011632752+1003730321+998728554+1001086917+1009748141+1019666009
1595+1026238211+1027522183+1023245226+1012908584+995385019+970691456+942761669
1585+920032505+911141027+917872610+932886505+946664107+955488783+962529504
1575+972381281+984209990+995695126+1007046463+1018114699+1026868762+1032565556
1565+1036421414+1039311417+1041659832+1044338640+1048386053+1052054554
1557+1052312008+1050794744+1049383693+1048615920+1048374424+1048210003
1548+1047992798+1048234230+1049453079+1051523561+1053761435+1055180368
1540+1054533730+1052436438+1050835963+1050020058+1049109184+1047232778
1531+1044711220+1042494989+1040820605+1039271750+1037360715+1034421353
1523+1028509228+1017328384+1001615650+983131980+962582739+944180085+933295394
1513+929146033+926761892+922257071+913969202+903875542+900984828+908711790
1503+921864591+937435064+953624911+967724701+976832932+980405752+981530019
1493+983955250+989973135+1000091797+1011654201+1020614743+1026143176+1029627809
1483+1032132763+1034026936+1035257802+1035554536+1034364629+1030114354
1475+1019222879+999347799+978773878+970758129+976339926+988908498+1002273658
1465+1011355788+1014475335+1014608940+1015077912+1017426003+1021356093
1456+1023688614+1021968425+1016774326+1007780319+993148049+972562112+951906854
1446+941249316+943142261+949378706+950401155+943303645+931255601+918303659
1436+907151048+898322301+889631100+878823290+866228164+856129336+854193170
1426+862602561+879066271+897523970+911304220+917785715+918651301+918598648
1417+922399784+930949047+942530962+954730313+965062756+971959406+975329623
1407+975756343+973487846+968722083+961870979+952569578+940053078+925377199
1397+911432915+900525030+893919363+891788540+892634099+894084818+893487862
1387+888569888+879703541+870520433+865556330+868052240+878202623+893052227
1377+909127721+924439707+937612859+946910965+951178942+950138727+944222596
1367+935673398+928211513+924691411+925448330+927940040+928981741+927518682
1357+924143878+919094367+910903601+896881983+875385753+847829839+818697159
1347+793604334+777226033+772347403+779742422+798467716+825391723+854592691
1337+880338162+900907172+917226554+929369439+935002985+931102421+918721851
1327+905027784+897106876+893960388+887937334+874189451+856049613+840965233
1317+832571540+827451028+819454660+805887802+789047635+772194094+755694980
1307+738624236+722937860+714174882+717766632+735079066+762520112+793826061
1298+823266909+847398144+865001433+876318271+882369622+884446563+883945999
1288+882695815+882977754+886473694+892986975+900387226+906086605+909066217
1278+910749387+913593068+918274909+922054855+920506840+911990720+900462104
1268+892482082+891081949+893770383+896864152+900228361+906657008+917725438
1258+931767406+945515225+956459289+963858830+968496092+971633212+973949583
1248+975464455+976451177+978055981+981522460+986744081+991979850+995083569
1238+994600771+989545833+978543818+960066803+934815952+908512288+890749165
1228+888479634+899972006+916257469+928819064+935302820+938385671+941210488
1218+945117384+950620749+958344158+968039395+977595795+983955056+984948303
1208+980571659+973665705+969320331+971816886+981162348+993228224+1003437464
1198+1009685280+1012005591+1010715352+1005378928+994904417+978370158+956456834
1188+932490020+911493127+897610283+892479433+895813213+906433085+922220181
1179+939903645+955830547+967105521+972058124+969730383+958634625+936295162
1169+901987249+861819153+829615316+818503472+829474218+850028691+865558398
1159+870389413+867160940+859427518+848713967+837213972+829231688+828866214
1149+837761633+855285522+879330056+906410086+932295557+953720527+969497350
1139+979910937+985464631+986339456+982380681+972451830+953187466+919738291
1129+870466810+811722917+756118599+714961585+692807153+688104639+696120259
1119+710273930+722420369+724152382+710464775+684465727+657856026+643949084
1109+648865766+669533687+698746736+730304258+760286244+786102716+805548751
1099+816758732+819541361+816919665+814015383+814325296+817935782+823983450
1089+833280070+847147151+864720463+882836914+898397696+910227826+918839368
1079+924969473+928615750+929060237+924968116+914458525+896398346+872641759
1069+848186914+827705639+812117464+799733405+790125386+784845491+784715892
1060+788979153+797363865+810638835+828512240+848567700+867602261+882737615
1050+890917721+888752270+874820260+853117615+833237366+825078709+832256007
1040+850620608+872771939+893235448+909991176+923030271+932034551+934594613
1030+927670957+913000570+899764493+898090109+909520136+926441319+940381727
1020+947964618+949726672+947412499+943662142+941495075+942052364+943914879
1010+945787602+948691819+954141821+961030912+965932477+966536798+963931705
1000+961406788+961589816+964965395+970578526+977205835+983602180+988427380
990+990758351+990881490+990456062+991491238+994723715+999101393+1003027477
980+1005646524+1006752249+1006348141+1004998013+1004055094+1004745792
972+1007023205+1009694066+1011646965+1012686534+1013258423+1013821138
963+1014619406+1015716409+1017011429+1018337201+1019625373+1020932280
955+1022291065+1023568512+1024475446+1024687353+1023990516+1022435976
946+1020263418+1017310101+1012635948+1005640774+997909613+992940665+993181515
936+997751329+1003306314+1006147864+1003394824+994299579+982147390+973564533
926+973794917+982491803+994802857+1005900360+1013722356+1018503237+1021333868
916+1023292194+1025007796+1026446305+1027031697+1026045298+1023187727
908+1019107558+1015278512+1012880545+1011534552+1009087807+1002875072+992102084
898+979908482+972405960+974085900+983860538+996270439+1006313900+1012396843
888+1015280709+1015825916+1014250895+1010775500+1006399373+1002946267
880+1002010132+1003572813+1005947069+1007232915+1006249036+1001655447+990836395
870+970849223+941604582+908732529+882559562+872332427+880171544+900509525
860+924989824+947320500+964318757+974803152+979356427+980535545+981116285
850+981374901+979645150+976253678+974953942+979145490+988120116+998208284
840+1006430836+1012118393+1016095580+1019322437+1022054415+1023963447
832+1024978724+1025570059+1025865759+1024761520+1020115794+1009423498+989966739
822+959195337+916953659+868685504+825812952+800960008+800859287+822716727
812+856925600+893295337+925444260+951077511+970133199+983323407+991663605
802+996285815+997748357+995230482+987348660+974888690+962328323+955448728
792+957051723+965045054+974376561+980589232+982010556+979647799+975930003
782+973564016+974570959+979231480+985633768+990793626+992794656+992025849
772+990300168+988544187+985249817+977738186+965444381+951088236+937315479
762+922575059+902251034+875390857+849884556+838831632+850031922+879089077
752+913506755+942771424+963530052+977167718+985737008+990566989+992611887
742+992370068+989137719+980530505+963139640+935523513+902644805+874910256
732+857456400+842157788+818435571+791684772+780962499+796372879+827739944
722+857508601+876395087+884874446+887076271+886960174+887198634+888770876
713+891207865+893069735+892138251+885828994+872069094+849877966+819412473
703+782678683+745420166+717240032+706552258+713908449+731694636+750850333
693+766830470+779662117+790795540+801106275+810797635+819898695+828339678
683+835417418+839567296+839637781+837025582+836000355+840602084+850447853
673+860379546+865703631+867603683+874077554+890384919+907799365+918441010
663+923464356+926729266+930648437+933040396+924692250+893629736+839817707
653+785559448+761164428+775905752+809320622+831194795+823030905+784042895
643+729656006+685325305+671009538+687049500+717897846+748850014+775444145
633+799344802+821196557+838505890+847843794+848531585+845249490+846038002
623+855624701+871406628+887330429+900211305+910881829+920920768+930477361
613+938743910+944748809+947345309+944652029+933798672+913340008+888056532
603+869454182+867649811+882500513+904731632+925115740+940208907+950475064
594+956667965+958531579+955393684+947677123+937852869+929730262+926333686
584+927528825+929922076+929747576+925570112+918341711+910637232+906551701
574+909684816+919750437+932519545+943336853+950310642+954080768+954998750
564+952076056+945608063+939591406+939244539+945786310+955375400+963674510
554+969832524+974930361+978215169+977156347+970881784+961251024+950534824
544+940543887+933835432+932802712+936684347+941119846+941345449+934903816
534+921739127+903896475+885969641+874364532+874473070+887567209+909133213
524+931333063+948841187+960487385+966912802+969999853+972902067+977362246
514+981330452+980927119+974719294+965767280+959213168+957921250+960305650
504+961363502+955601649+941765515+925639563+914728512+911905376+915873259
494+924443260+935873546+948165800+959283072+968615096+976686148+983425807
484+988137624+991198445+994167849+997660558+1000417474+1001066373+1000094833
475+999265103+999694149+1001351154+1003821415+1006463914+1008148248+1007952816
465+1005657184+1001006677+993986694+986540573+982510280+984374217+989884431
455+994811127+997767416+999482824+1000291234+999929378+998901438+998690049
445+1000179079+1002610447+1004491182+1004693979+1002629635+998695799+994871533
435+993022972+991912531+988286540+981387370+974328042+970147929+968591450
425+968068532+968708128+971609761+976643185+982481143+987540216+990919995
415+992205324+991069686+987984573+984157594+979998543+974324166+965709393
405+954986798+946592524+945985037+954278785+965191192+969532044+966594749
395+962043476+956922382+951534661+947710137+943426008+933541154+918113524
385+905151116+901041229+901247063+898076218+890684947+882968903+877843028
375+874514611+872127950
##END=
