##TITLE=LL- 164
##JCAMP-DX=4.24
##DATA TYPE=INFRARED SPECTRUM
##DATE=13/6/2019
##SAMPLING PROCEDURE=Diamant-ATR
##ORIGIN=Rieke
##XUNITS=1/CM
##YUNITS=TRANSMITTANCE
##RESOLUTION=4
##FIRSTX=3997.453
##LASTX=373.96442
##DELTAX=-1.4165319
##MAXY=1.0035177
##MINY=0.47998497
##XFACTOR=1
##YFACTOR=9.3459873e-010
##NPOINTS=2559
##FIRSTY=0.99828023
##XYDATA=(X++(Y..Y))
3997+1068137793+1068066364+1068107946+1068140088+1067996147+1067716172
3989+1067566809+1067817766+1068405140+1068941685+1069125741+1068988815
3980+1068719618+1068450357+1068240089+1068092257+1067950292+1067783455
3972+1067719297+1067965790+1068475421+1068838559+1068718406+1068254693
3963+1067879948+1067915279+1068396020+1069057693+1069476635+1069451125
3955+1069256864+1069336456+1069728166+1069977911+1069681992+1069007884
3946+1068430905+1068098060+1067870062+1067758710+1067946466+1068473635
3938+1069122489+1069486329+1069207438+1068404502+1067767320+1067850037
3929+1068324273+1068477462+1068133838+1067710241+1067615916+1067739577
3921+1067761708+1067734220+1067863111+1067920254+1067535049+1066924971
3912+1066604498+1066739511+1067165278+1067690215+1068077078+1067987154
3904+1067464003+1067284347+1067967065+1068947998+1069370640+1068974402
3895+1068018468+1066933644+1066187661+1066013362+1066169166+1066397036
3887+1066724397+1067138683+1067518850+1067937920+1068500166+1068861264
3878+1068543342+1067646848+1066642700+1065980581+1065859152+1066078413
3870+1066317508+1066524651+1066887726+1067414385+1067667447+1067045061
3861+1065615529+1064049582+1062700535+1061440775+1060251168+1059935606
3853+1061486885+1063594287+1064836892+1065704305+1066610876+1067355648
3844+1067807180+1068231925+1068701824+1068787603+1068343660+1067925866
3836+1067823060+1067583327+1066858772+1065868974+1065193334+1065267569
3827+1066048566+1067090660+1067959029+1068582309+1069017386+1069049657
3819+1068442002+1067350929+1066282814+1065918846+1066382113+1067098122
3810+1067539896+1067526822+1067150864+1066635366+1066185173+1066053094
3802+1066559473+1067470061+1067867894+1067436707+1066647674+1066052839
3793+1065864254+1065954242+1066069165+1066071015+1066152520+1066613618
3785+1067318339+1067781797+1067966109+1068390535+1069264453+1069977911
3776+1069929314+1069274530+1068488367+1067901440+1067702715+1067942065
3768+1068350931+1068455395+1068047359+1067421720+1067063237+1067159793
3759+1067487026+1067643786+1067503480+1067328862+1067441107+1067912218
3751+1068422806+1068685051+1068996659+1069514645+1069806929+1069561903
3742+1069208139+1069017004+1068744554+1068306352+1068005267+1068093851
3734+1068271849+1068154183+1067811006+1067445891+1067168403+1067066617
3725+1067223951+1067575419+1067843404+1067786197+1067476949+1067143594
3717+1066840149+1066581986+1066667828+1067452077+1068534605+1068893151
3708+1068656161+1068759159+1069345257+1069781929+1069429568+1068345829
3700+1067349398+1066959665+1066899652+1066831603+1066830073+1066980583
3691+1066966106+1066514447+1066113553+1066400161+1067253543+1068289068
3683+1069076889+1069148445+1068519043+1067852907+1067739641+1068190854
3674+1068848062+1069397170+1069574084+1069053611+1067964897+1066991043
3666+1066392508+1065955135+1065580389+1065436001+1065649522+1066057622
3657+1066421845+1066745443+1067234092+1068009667+1068965983+1069629760
3649+1069292642+1068150739+1067119742+1066409409+1065923502+1065609598
3640+1065281026+1064819482+1064521458+1064770884+1065470248+1066062533
3632+1066041423+1065385682+1064899775+1065669802+1067119678+1067970190
3623+1067912601+1067235877+1066339893+1065635045+1065502072+1065949203
3615+1066574843+1066931221+1066904690+1066821208+1066952841+1067135941
3606+1067104882+1066937471+1066885813+1067014321+1067081795+1066774588
3598+1066148439+1065599840+1065364827+1065315401+1065272289+1065217314
3589+1065151306+1065047735+1064959469+1064919801+1064835936+1064681088
3581+1064551496+1064453473+1064204748+1063722668+1063273113+1063212335
3572+1063576367+1064076049+1064365718+1064218396+1063769479+1063551558
3564+1063746074+1063954684+1063815206+1063388228+1063036824+1062983253
3555+1063043138+1062853214+1062358252+1061958123+1061949960+1062127320
3547+1062141414+1061937077+1061694092+1061546834+1061577255+1061819475
3538+1062113034+1062194986+1062027256+1061802702+1061607548+1061379487
3530+1061189371+1061288032+1061794730+1062506976+1063084274+1063289057
3521+1063072922+1062566607+1062001172+1061594219+1061454997+1061600278
3513+1062006911+1062511058+1062740969+1062446198+1061863608+1061412203
3504+1061185609+1061038542+1060958376+1061036374+1061232803+1061431528
3496+1061573365+1061595814+1061373874+1060841730+1060191984+1059858055
3488+1060059139+1060356461+1060146257+1059628717+1059639177+1060323744
3479+1060789115+1060443260+1059816600+1059750338+1060362201+1061079358
3471+1061379869+1061206846+1060786692+1060294280+1059860223+1059782608
3462+1060350722+1061368071+1062174004+1062268774+1061719028+1060930952
3454+1060232992+1059764942+1059627952+1059880823+1060344153+1060662521
3445+1060700340+1060607036+1060472150+1060231206+1059878399+1059536179
3437+1059371319+1059523806+1059992366+1060580952+1061048045+1061237713
3428+1061080506+1060675531+1060335798+1060311244+1060510671+1060654931
3420+1060631079+1060545173+1060499829+1060479548+1060438477+1060383885
3411+1060331844+1060242048+1060057545+1059797850+1059568194+1059473743
3403+1059547021+1059758373+1060035032+1060232290+1060207354+1060024573
3394+1059950402+1060139305+1060437329+1060550403+1060334459+1059910032
3386+1059495171+1059101165+1058560794+1057944466+1057608879+1057707795
3377+1058007349+1058232031+1058251482+1058010474+1057633560+1057437896
3369+1057539873+1057668636+1057573483+1057308559+1056967678+1056524246
3360+1056083365+1055888977+1055935724+1055936490+1055782854+1055708428
3352+1055910214+1056285215+1056613596+1056826288+1057007666+1057146696
3343+1057026798+1056499374+1055708364+1054857980+1053993692+1053198282
3335+1052691138+1052550002+1052550130+1052341201+1051713393+1050866580
3326+1050430036+1050946810+1052273407+1053636421+1054303195+1054114993
3318+1053232593+1051371747+1047548588+1040469810+1028393252+1008057237
3309+974430312+923852902+860729228+801984453+770866207+780856344+824582654
3299+880525892+929744561+964990941+987803237+1002271892+1011905013+1018967784
3289+1024478766+1028649439+1031640772+1033928022+1035901878+1037456219
3281+1038400353+1039070763+1040055076+1041492516+1042994751+1044096157
3272+1044619054+1044767204+1044934233+1045335063+1045854834+1046270907
3264+1046524287+1046743038+1047055921+1047377351+1047408154+1046994378
3255+1046476519+1046443866+1047056750+1047859303+1048377608+1048631754
3247+1048900249+1049264791+1049619129+1049950316+1050339092+1050717090
3238+1050835139+1050569577+1050154015+1049951655+1050051655+1050301018
3230+1050689093+1051381951+1052302999+1053012759+1053157338+1052793243
3221+1052233994+1051819580+1051753126+1051901787+1051924427+1051765626
3213+1051717156+1051877743+1051992667+1051944006+1051950001+1052157591
3204+1052402043+1052478064+1052433484+1052497834+1052772069+1053090501
3196+1053229660+1053160080+1053007593+1052883613+1052869519+1053101662
3187+1053711548+1054577494+1055270544+1055483172+1055421693+1055521565
3179+1055891273+1056263978+1056347460+1056030112+1055391527+1054666461
3170+1054143182+1054019394+1054266716+1054591716+1054661168+1054431703
3162+1054153514+1054082978+1054293501+1054613081+1054727877+1054551219
3153+1054365632+1054339739+1054194777+1053687696+1053105425+1052941521
3145+1053312249+1053912187+1054384509+1054642354+1054877049+1055243121
3136+1055598479+1055676285+1055409830+1054957023+1054544522+1054369331
3128+1054439484+1054470798+1054211103+1053857403+1053813526+1054073539
3119+1054255555+1054184700+1054025516+1053862378+1053524494+1052839990
3111+1051783036+1050350699+1048463641+1046023138+1043104509+1040143916
3102+1037812980+1036527262+1036143205+1036242887+1036547990+1036950988
3094+1037310491+1037338425+1036719801+1035506852+1034393329+1034271454
3085+1035427132+1037413553+1039630076+1041685055+1043333591+1044431362
3077+1044895266+1044588250+1043449153+1041807376+1040293470+1039341236
3068+1038845507+1038207432+1036718271+1034266097+1031813604+1030838984
3060+1032113222+1035128790+1038646400+1041611649+1043628554+1044847944
3051+1045559107+1045876518+1045767334+1045249667+1044378683+1043039650
3043+1040951252+1037993082+1034486123+1031134074+1028771186+1028100330
3034+1029403650+1032331207+1036051113+1039719298+1042813373+1045127856
3026+1046714913+1047813959+1048569573+1048851142+1048524547+1047714979
3017+1046601584+1045232958+1043731743+1042262224+1040490664+1037446461
3009+1032258503+1024873282+1016165163+1007784787+1001681266+999014806+999275266
2999+1000633241+1001115384+999395419+994614350+985883718+972851737+957403041
2989+943897399+935844383+931688698+924791744+908375572+881103572+848873716
2979+821417405+806046324+803367938+808096393+813423190+814992900+812143149
2969+806587780+800164806+793649995+787292328+781734918+777987078+776768963
2959+778181211+781816551+786961906+792885517+799244715+806231465+814223447
2949+823370789+833489753+844093667+854409507+863583826+871066368+876778881
2939+880913903+883686613+885295035+886016402+886291147+886715000+887808370
2929+889598871+891420368+892168775+890706272+886222652+878775123+869731416
2919+861330504+855503961+853082080+853840373+856915507+861254994+866011446
2910+870685564+875065102+879220723+883514483+888394404+894087848+900495771
2900+907327036+914276797+921060677+927319109+932536404+936093045+937383354
2890+935809434+930685826+921638803+909776085+898245766+890387968+886657921
2880+884186232+880187753+875240740+872405593+873615609+877999419+883571881
2870+889362455+895456538+901841373+908075954+913885023+919461885+925135431
2860+931049475+937197193+943532666+949935295+956163944+961982197+967345602
2850+972399950+977305063+982133135+986878745+991453628+995674811+999368506
2840+1002521191+1005299004+1007905770+1010399206+1012647936+1014485121
2832+1015881043+1016959744+1017904453+1018829327+1019688959+1020350759
2823+1020841641+1021432586+1022340560+1023402998+1024208357+1024558422
2815+1024658231+1024791330+1024947071+1024907912+1024618498+1024277299
2806+1024105423+1024202554+1024614736+1025347518+1026275517+1027206642
2798+1028085789+1029000396+1029966661+1030851229+1031560861+1032149638
2789+1032683440+1033129742+1033458187+1033731912+1034027512+1034368648
2781+1034822986+1035522987+1036441931+1037281282+1037773375+1037994995
2772+1038211322+1038571527+1039100929+1039762920+1040364452+1040649019
2764+1040640282+1040647935+1040826826+1040998382+1041006418+1040954186
2755+1040935882+1040829185+1040548955+1040299401+1040345957+1040703866
2747+1041200423+1041672873+1041995323+1042102339+1042085502+1042145196
2738+1042390413+1042714585+1042870453+1042701894+1042342773+1042097874
2730+1042104061+1042268283+1042501447+1042774088+1042984228+1043047175
2721+1043046346+1043058718+1042984101+1042768475+1042574661+1042496217
2713+1042359227+1042021025+1041616049+1041343217+1041252209+1041344812
2704+1041644111+1042074788+1042451766+1042631996+1042608654+1042486970
2696+1042409036+1042470579+1042672366+1042919241+1043061971+1043042583
2687+1043010504+1043153872+1043421283+1043596092+1043622878+1043670136
2679+1043892904+1044269691+1044654385+1044918161+1045048264+1045068608
2670+1044899411+1044459614+1043900429+1043531742+1043478107+1043591309
2662+1043716501+1043870136+1044093925+1044321030+1044508211+1044752664
2653+1045114590+1045444566+1045578877+1045580153+1045607449+1045674923
2645+1045696671+1045660000+1045652155+1045778559+1046052284+1046340040
2636+1046506239+1046629007+1046929837+1047484813+1048125248+1048637047
2628+1048969574+1049195148+1049314664+1049209115+1048843999+1048398271
2619+1048093998+1047981370+1047963257+1047926013+1047805987+1047642083
2611+1047577989+1047706816+1047900311+1047881625+1047504137+1046924416
2602+1046472055+1046322948+1046309491+1046122692+1045711020+1045327282
2594+1045155662+1045148136+1045310764+1045778878+1046471609+1047066125
2585+1047415552+1047629264+1047765872+1047833283+1047945592+1048154776
2577+1048352863+1048534879+1048825122+1049158987+1049336539+1049431628
2568+1049767917+1050413582+1050963711+1050961542+1050445980+1049909244
2560+1049695277+1049664154+1049545149+1049365557+1049369702+1049677483
2551+1050152867+1050572001+1050864922+1051109438+1051280421+1051250829
2543+1051162372+1051453571+1052319900+1053449431+1054458106+1055238656
2534+1055764168+1055901094+1055593377+1054978643+1054226728+1053455362
2526+1052833166+1052553446+1052628510+1052824557+1052861738+1052657528
2517+1052370410+1052222196+1052306762+1052557145+1052813205+1052885462
2509+1052691584+1052409760+1052355423+1052598600+1052841967+1052760590
2500+1052367094+1051990371+1051969389+1052390755+1053036101+1053554341
2492+1053750962+1053763653+1053923475+1054381512+1054909255+1055135085
2483+1054956704+1054633362+1054437252+1054331639+1054114802+1053813016
2475+1053727556+1054054215+1054645543+1055179728+1055407152+1055254728
2466+1054852878+1054425389+1054079598+1053772135+1053474558+1053254532
2458+1053220412+1053463589+1054007914+1054778834+1055633428+1056409003
2449+1056989872+1057400077+1057699950+1057734134+1057231263+1056250840
2441+1055285340+1054823987+1054956194+1055370417+1055585341+1055216016
2432+1054215567+1053002236+1052280550+1052491903+1053389354+1054308999
2424+1054806576+1054884765+1054797457+1054843375+1055187508+1055725010
2415+1056192932+1056392167+1056263531+1055888020+1055458300+1055105876
2407+1054781831+1054423667+1054112889+1053899113+1053598410+1053013396
2398+1052311418+1051887437+1051787246+1051573597+1050913264+1050013645
2390+1049290620+1048819446+1048303309+1047517785+1046626392+1045973967
2381+1045649604+1045409298+1045000942+1044432510+1044008465+1044213823
2373+1045374859+1047261024+1049132329+1050256184+1050426656+1050101783
2364+1049970086+1050267663+1050711605+1051051530+1051264094+1051313456
2356+1051134757+1050792027+1050461159+1050281375+1050247383+1050235584
2347+1050098020+1049717917+1049115939+1048548527+1048262748+1048161281
2339+1048022888+1047957581+1048271230+1048946168+1049558988+1049681692
2330+1049215811+1048372889+1047445463+1046672821+1046215996+1046028304
2322+1045808725+1045356364+1044886592+1044798199+1045294246+1046253305
2313+1047263894+1047896995+1048121612+1048287302+1048654267+1049144319
2305+1049541960+1049749231+1049812624+1049786731+1049688644+1049614664
2296+1049712560+1049926846+1049987178+1049739282+1049291704+1048870594
2288+1048726780+1049049740+1049759499+1050477804+1050870343+1050989348
2279+1051176530+1051599681+1052088586+1052547707+1053168244+1053988845
2271+1054702813+1055049243+1054888145+1054043182+1052731189+1051766965
2262+1051646238+1051958547+1052217157+1052529275+1052975577+1053135973
2254+1052748026+1052279084+1052360971+1053053511+1054025835+1055125837
2245+1056304858+1057242232+1057645550+1057740639+1057859644+1057768956
2237+1057080370+1056091209+1055579601+1055947714+1056969336+1058150334
2228+1059069150+1059508181+1059391089+1058694850+1057589300+1056547333
2220+1056063148+1056279029+1056807410+1056790382+1055564104+1053693946
2211+1052757465+1053589099+1055349307+1056730943+1057361684+1057671698
2203+1058127502+1058918639+1059816856+1060132290+1059259839+1057530179
2194+1056186108+1056120993+1056798992+1056933750+1056158812+1055432471
2186+1055807280+1057318317+1059050336+1059969790+1059792812+1059145681
2177+1058855055+1059386051+1060897534+1063125664+1065075286+1065674904
2169+1065099967+1064724966+1065434917+1066643848+1067395572+1067635304
2160+1067748761+1067864323+1068317576+1069355525+1069977911+1068972169
2152+1066981030+1066024905+1066442189+1066375161+1064730515+1062748750
2143+1061961822+1062081083+1061624832+1059942111+1058132732+1057832030
2135+1059240961+1061009779+1062099131+1062669158+1062984847+1062757487
2126+1061884016+1060755378+1059573233+1058261304+1057131390+1056744782
2118+1057057857+1057434580+1057438279+1057015127+1056154220+1054995671
2109+1054050899+1053768054+1053998156+1054226537+1054224432+1054251346
2101+1054658043+1055397968+1055999245+1056037765+1055584639+1055130238
2092+1055042227+1055103325+1054704089+1053656510+1052596750+1052280359
2084+1052725003+1053360208+1053803768+1054110338+1054358106+1054376282
2075+1054091205+1053931383+1054406639+1055263593+1055636999+1055146756
2067+1054242034+1053344456+1052276277+1050767345+1049132903+1048153564
2058+1048322314+1049301271+1050245405+1050626784+1050698723+1051235076
2050+1052725449+1054616908+1055781834+1056093442+1056615126+1057937387
2041+1059434839+1060383949+1060757164+1060737585+1060350211+1059658501
2033+1058971318+1058954290+1060131014+1061744794+1061832613+1059375783
2024+1055743696+1053164226+1052504339+1053170858+1054351154+1055627879
2016+1056861556+1058029096+1059098040+1060092877+1061375660+1063275537
2007+1065141357+1065587723+1064218141+1062285739+1061270303+1061515839
1999+1062363035+1063081978+1063403917+1063343394+1062894605+1062130509
1990+1061343326+1060780761+1060485543+1060412775+1060299446+1059615197
1982+1058313408+1057438151+1058195678+1060341793+1062234718+1062694796
1973+1062045878+1061297407+1060918580+1060546066+1059797850+1059167109
1965+1059630120+1061455443+1063965015+1066128796+1067043275+1066190722
1956+1063582553+1059714240+1055457662+1052070218+1050795407+1051770409
1948+1053632084+1054888592+1055438593+1056266082+1058007923+1060267558
1939+1062236695+1063508318+1064272159+1064942186+1065553731+1065714637
1931+1065173564+1064152197+1063212590+1062946136+1063546838+1064580450
1922+1065387786+1065738999+1065756984+1065430644+1064737721+1064104174
1914+1064181916+1065114189+1066194995+1066498376+1065964063+1065394802
1905+1065407621+1065940275+1066561258+1066828032+1066486322+1065587022
1897+1064452516+1063531086+1063151621+1063304044+1063713165+1064114250
1888+1064395182+1064516292+1064411254+1064077197+1063722604+1063639696
1880+1063921712+1064457108+1065087339+1065564381+1065580835+1065101561
1871+1064430960+1063853982+1063496392+1063497348+1063895564+1064425731
1863+1064744736+1064725986+1064455514+1064062847+1063676303+1063475282
1854+1063637145+1064165271+1064781854+1065098500+1064975222+1064662147
1846+1064494863+1064424710+1063984913+1062975983+1061728595+1060620365
1837+1059699317+1058708052+1057540830+1056499055+1055977497+1056037319
1829+1056301605+1056465828+1056658111+1057036747+1057447271+1057703394
1820+1057871124+1058021954+1057972591+1057502565+1056728264+1056064934
1812+1055928518+1056480751+1057541149+1058790450+1060007162+1061065009
1803+1061854041+1062311249+1062533124+1062692436+1062773941+1062634017
1795+1062290458+1061971388+1061885929+1061988863+1062136121+1062335292
1786+1062678597+1063192820+1063778089+1064307491+1064695119+1064815974
1778+1064566292+1064053345+1063558318+1063295499+1063260868+1063335486
1769+1063431978+1063433892+1063261889+1063010294+1062852577+1062908827
1761+1063191991+1063555384+1063756660+1063649709+1063340588+1063005447
1752+1062611824+1061973876+1061072024+1060166282+1059422977+1058756458
1744+1058060665+1057420358+1057050523+1056986620+1056974757+1056801288
1735+1056441529+1055912127+1055270481+1054654471+1054173986+1053847263
1727+1053573283+1053205234+1052695411+1052145027+1051697386+1051440625
1718+1051412819+1051524873+1051579720+1051591582+1051732080+1052070282
1710+1052528191+1052973855+1053282530+1053345986+1053187440+1053012057
1701+1053063396+1053457658+1054087123+1054841972+1055568568+1055952434
1693+1055952880+1055772204+1055521948+1055292100+1055379537+1056285916
1684+1058149887+1059914942+1060882547+1061488160+1061955827+1062206593
1676+1062258506+1062304297+1062437716+1062582806+1062739247+1063021582
1667+1063403088+1063694415+1063752515+1063563803+1063342820+1063378407
1659+1063689760+1064077898+1064359978+1064491483+1064559149+1064596586
1650+1064581216+1064628537+1064897607+1065262276+1065322544+1065074648
1642+1064792249+1064639379+1064620183+1064700285+1064837849+1064878920
1633+1064769226+1064659341+1064634405+1064697415+1064882683+1065240592
1625+1065713680+1066140658+1066388681+1066450735+1066380327+1066231219
1616+1066050415+1065818145+1065458131+1064915974+1064165335+1063246710
1608+1062287461+1061376106+1060415454+1059120298+1057051671+1053597773
1599+1047917785+1038722548+1023898471+1000970231+969570607+934416765+905188447
1589+891870560+898101697+918865072+945218958+970154665+990328115+1005052830
1579+1015459039+1023814861+1031819025+1038179690+1040929951+1041010818
1571+1040204184+1039932053+1041029824+1043279063+1046024797+1048601971
1562+1050611669+1052425576+1055011743+1057896124+1059073678+1059167109
1554+1059236370+1059532352+1060020555+1060568707+1061031909+1061441477
1545+1061970049+1062693648+1063546328+1064509723+1065352200+1065576817
1537+1065328284+1065065656+1065181345+1065808196+1066537151+1066992509
1528+1067205329+1067284921+1067278033+1067279372+1067423186+1067690343
1520+1067786835+1067429564+1066636131+1065686256+1064767058+1063721329
1511+1062363098+1060669153+1058373804+1054863528+1051212308+1049326653
1503+1048663514+1047978117+1046008406+1041124212+1031906206+1019489916
1494+1007398179+997651219+990675182+987498326+989055026+993105226+995814288
1485+994770536+988498583+976621707+961704582+948919540+942790381+945114749
1475+954930970+968347454+978289504+980192123+975867050+968418117+960281109
1465+954894107+955164133+960249604+968100451+978503344+991429521+1001864302
1455+1005007294+1003285798+1000130752+997851921+998247074+1002031586+1007960744
1445+1014008462+1019389341+1024339735+1029010919+1033463926+1037963299
1436+1042265668+1045336530+1046973268+1047888002+1048633221+1049374039
1428+1050004652+1050417600+1050670598+1050830292+1050857716+1050771236
1419+1050666452+1050498722+1050142089+1049572891+1048736410+1047490552
1411+1045636020+1042906805+1038862536+1032445812+1022014666+1006865461
1402+987565099+964177164+937798916+914173034+900960377+900909165+910059632
1392+921571775+931911658+942113275+954419872+968808297+982418978+993029269
1383+1000558751+1005295368+1006965079+1005355573+1000975333+995339734+991108984
1373+990256368+991293870+990602032+986451767+981045314+977875792+977553661
1363+977774898+977730128+980815339+990488639+1006078661+1023162883+1036883832
1353+1045390293+1049952165+1052461035+1053974049+1054988018+1055824882
1344+1056612129+1057393700+1058284454+1059362326+1060557929+1061780317
1336+1062988993+1064099391+1064994354+1065651244+1066189255+1066740978
1327+1067327523+1067919297+1068520383+1069109223+1069603867+1069921725
1319+1069977911+1069762541+1069323956+1068868789+1068498189+1068099017
1310+1067291426+1065491996+1062516543+1059353717+1057748484+1058531904
1302+1060691602+1062419030+1062848623+1062498686+1062287716+1062594477
1293+1063235932+1063917694+1064479111+1064835936+1064877517+1064516228
1285+1063769033+1062649069+1061013414+1058622784+1055191590+1050118875
1276+1042168602+1029603969+1011134093+987722497+964018426+947021960+941898479
1266+948602639+962323652+976934080+988293034+995099682+997880301+997876347
1256+996383295+994334438+992143362+989836852+987311272+984532886+981578160
1247+978570500+975684205+973214174+971496759+970711872+970744717+971134195
1237+971108557+969648668+965426593+956805591+942006961+918912521+885029792
1227+839623632+787197366+736991259+696483706+666115398+642259222+623984755
1217+614139197+614106863+620079580+625113138+623882012+616128105+607126745
1207+604718066+614530907+637141991+669044678+704959554+738054973+758713820
1197+757268536+733397054+703112101+690571193+708981693+751206150+799503070
1187+840458009+869891939+889052123+900373130+905706433+906055732+902149856
1177+895117506+886539490+878099228+871340285+867670570+868396273+874351133
1167+885213020+899330271+914419718+928500043+940385146+949632106+956141240
1157+959574284+958566501+949989441+929873898+897487410+859634455+828560533
1147+812702334+810103094+812896531+816945520+824450766+838292506+857248926
1137+877206752+894753730+908616516+918644281+924321845+924030326+915241914
1128+896272611+869740536+844318732+830227373+830748612+838585364+841347615
1118+831153205+810848312+792607200+788891184+802135601+823344386+841407054
1108+852061670+857003135+857466848+851739858+837595311+814288435+782447483
1098+744656199+707131753+678900376+666984405+671653166+686160724+700315156
1088+704667143+694448434+672930656+650871104+639877329+644438883+659881200
1078+676914274+687362066+687603393+679990429+671755908+670565408+679634178
1068+696792253+717502567+738051784+756597425+772730497+786799470+799438274
1058+811231604+822468619+833138604+843176573+852616518+861448936+869452079
1048+876309237+881934887+886630242+890823300+894691357+898188814+901386844
1038+904595780+908114538+911951728+915753203+918952700+921087144+921954110
1028+921230830+918107609+912125835+904716699+898953229+896839640+897295828
1018+897619680+896661387+895937980+897852334+903392971+911497836+920033953
1009+926995894+931052472+931653621+929029062+923978285+917504036+910625449
999+904317846+899220449+895232558+891523493+887015447+880765114+871941944
989+859767236+843798131+824512310+803742301+784252972+768372133+756869173
979+749115520+743856261+739561481+734605411+727738623+718478271+707248080
969+695476816+685285977+678535324+676058533+677690743+682640244+689841472
959+698368276+707632137+717162451+726560942+735963897+746168639+757709864
949+769812442+780606599+788234486+791397503+789441695+783175227+775752634
939+771632918+773846571+782199013+794004269+806323047+817688889+828178070
929+838243016+847742400+856101284+863066478+868979310+874364016+879458351
919+884124114+888049825+891012586+893006468+894108512+894298372+893618651
909+892477003+891505700+891044984+890874512+890300531+888276930+883769011
899+876890999+870234542+868418977+874968099+889144470+906422506+922091419
890+933771356+940814739+942523352+937070662+921023304+890047023+842838180
880+787110631+740339289+720031654+731149983+764241384+805171003+844235632
870+877347377+903439145+922925477+937003187+946952572+953793276+958179319
860+960016376+957811843+949079362+933252477+914666083+900391753+892700345
850+883002428+854908806+798180427+723556662+660367490+633687710+644806422
840+676723458+713540441+749155189+782552203+813028610+840053799+863649132
830+883959509+901207954+915732285+927759671+937459884+945295361+952030963
820+958212737+963790620+968513271+972496506+976076935+979346713+982199717
810+984652848+986850110+988820076+990393868+991466957+992288898+993293683
800+994670982+996330680+998151283+1000045612+1001987134+1004126935+1006645754
790+1009400033+1011900485+1013586140+1013660821+1010209346+999741912+978992184
781+948678660+915669529+890405697+880986671+888695936+908336541+932383024
771+955133904+974138283+989149095+1000599822+1008991423+1015026002+1019582900
761+1023201085+1025735848+1026708554+1025752047+1022434756+1015113503+998876030
751+965796874+912460594+850383095+804338667+794383862+819965361+863667691
741+907229268+941001283+962808219+974612902+980793719+985954828+992423082
731+999875713+1007174263+1013966179+1020452673+1026384765+1031091791+1034357615
721+1036703921+1038811961+1040946915+1042962481+1044719500+1046394504
713+1048328947+1050608990+1052892478+1054675773+1055621948+1055595609
704+1054636933+1053179468+1052029721+1051734184+1052184122+1053203256
696+1055109001+1058108114+1061483250+1064056023+1065361893+1065912150
687+1066385748+1067039384+1067886198+1068864899+1069684416+1069977911
679+1070418856+1070557250+1070535693+1070460438+1070641688+1071370517
670+1072558019+1073559042+1073657639+1073318225+1073356873+1073714910
662+1073741823+1072870137+1070827531+1067026438+1060532418+1051232780
653+1040427207+1029709007+1019714087+1010451375+1002316726+996258613+993372191
643+994414923+999025839+1005191542+1009877777+1010365788+1004829806+992239854
633+972652629+946973299+915382348+876666508+830272208+778743266+727435051
623+682310715+648392845+628770863+623618938+630337129+644872557+663372471
613+683451151+704183149+725259791+746577632+768015116+788935635+808404174
603+826256382+843281548+859939111+875417526+888452377+898727463+906985007
594+914161809+920875982+927381418+933371738+937306185+935508413+922590527
584+894540719+851703697+797429915+733886787+662308565+590318289+535321354
574+513573315+527146368+565401460+614700423+664930765+710906379+750995882
564+785418536+814630974+837758768+851831376+851567600+830603522+787615288
554+734418039+693911698+684747391+708257776+751461572+799796374+844000810
544+878824166+901703363+912498285+911770732+901017775+886266083+878155734
534+884524051+903427793+925226949+940278194+943115318+930716821+901028234
524+855427940+799927369+743076923+694204747+660930437+645728681+646345519
514+660241469+686421630+722749581+763959431+803888475+838739063+867684728
504+891460036+910655424+925008198+934350694+939674430+942658621+944485729
494+945020233+943260153+938997324+933269888+926415727+916678971+901684804
484+881024490+856863147+832095490+809529495+793270275+788120327+796085588
475+815237735+840847678+865145883+880103251+882250258+872081804+852199936
465+827128514+802345742+782921464+772265764+771107215+776810799+784668215
455+792693552+802309071+813720704+824280421+832047148+838103093+844321538
445+850697381+855163590+855602558+852523087+849579394+851292536+859812070
435+872404381+883903769+892318202+899373638+906849931+914981326+923494738
425+931601772+937527614+940823157+944466278+951671715+959127025+961616763
415+961443994+962877161+966451021+968338525+963858923+952330581+938248088
405+927728485+923769867+925263429+930173197+938197003+948614246+956277848
395+957332697+955121340+954375292+956727020+961642719+969629982+983650549
385+1004896324+1026547712+1040138112+1046949926+1052829850+1060380760
377+1068001759+1069977911+1069977911
##END=
