##TITLE=CZ-194
##JCAMP-DX=5.0
##DATA TYPE=LINK
##BLOCKS=1


$$ === CHEMSPECTRA SPECTRUM ORIG ===
##TITLE=CZ-194
##JCAMP-DX=5.00
##DATA TYPE=INFRARED SPECTRUM
##DATA CLASS=XYDATA
##$CSCATEGORY=SPECTRUM
##ORIGIN=Angelika Moesle
##OWNER=
##XUNITS=1/CM
##YUNITS=TRANSMITTANCE
##XFACTOR=1.0
##YFACTOR=8.4738538e-10
##FIRSTX=3997.453
##LASTX=373.96442
##MAXX=3997.453
##MAXY=0.9098731227047477
##MINX=373.96442
##MINY=0.6254451837259312
##NPOINTS=2559
##XYDATA= (X++(Y..Y))
2559I71443322I71789463I72405356I73000006I73154683I72876631I72511428I72203834
2551I71793544I71303699I71130735I71498680I72012932I72085101I71604612I70984710
2543I70683165I70801687I71123490I71470474I71846931I72170845I72182591I71868174
2535I71671575I71948642I72476188I72861719I73078997I73196182I73055785I72678836
2527I72538017I73031026I73961969I74697368I74707567I74043422I73366264I73279957
2519I73562652I73528115I72946478I72058794I71155283I70605932I70855848I71810144
2511I72613632I72650208I72262637I72149813I72365615I72324185I71813872I71411951
2503I71831808I73011612I73951066I73812427I72947392I72359987I72307514I72110071
2495I71487215I71182293I71871761I73158833I74422059I75621137I76465210I76173090
2487I74542129I72516211I71664330I72543081I73464528I72927416I72042897I72667019
2479I74112636I74265976I73520448I73672663I74326398I73910832I72659493I71739664
2471I71487426I72089462I73975896I75776376I75443881I73898523I73799977I75526600
2463I76688256I75774195I73153909I69575810I66405329I66847764I72901601I79140080
2455I80677842I79169904I77074772I75359403I74113339I73114941I72160786I71553405
2447I71957153I73224037I74138732I74148509I73944595I74166024I74477346I74249376
2439I73618431I73005563I72272063I71643580I72460643I74725856I75831943I75302850
2431I75585826I77202157I77707054I76087347I73607247I71822383I71818022I73226851
2423I74097091I73932356I74593547I76718854I77971882I77357326I76461553I76416746
2415I76840964I77219953I77423797I77265814I76772734I76435597I76443124I76193911
2407I75340904I74695680I75227587I76523029I77326095I77151864I76258272I75222523
2399I74971481I75916844I77075335I77477466I77309917I76830202I75976140I75301584
2391I75646248I76497074I76290698I74658048I72757757I72255814I73987291I75979868
2383I75500082I73336792I72851731I75910583I79213725I79266128I76895125I74483888
2375I73966892I75982119I79266339I81759030I82430631I81524658I79931891I78651643
2367I78172490I78105808I77904567I77676737I77786678I78107145I78013452I77087152
2359I75909388I76057171I78411855I81199831I82095885I81006608I79021136I77324126
2351I77057539I78367049I79707156I79736348I78848101I77980534I77267291I76350346
2343I75644138I76698034I80160565I83689567I84826112I83769684I81969063I80416108
2335I79051030I77408321I76160922I77177186I80016650I81328622I80578030I80238783
2327I81445597I82340245I81690378I80494115I80049851I80411535I80470832I79641389
2319I78987936I79685563I80700983I80394233I79366925I79839606I82843172I86075411
2311I86995309I85774359I83765745I82175088I81518047I81453475I81442854I81425480
2303I81456007I81109867I80115266I79534614I81155798I84247781I85689740I84847144
2295I83033370I81215939I80202276I80807548I82421416I83338151I83319300I83342090
2287I83627879I83735850I83986681I84944423I85908707I85692202I84279363I82639399
2279I81672864I81546675I81835489I82249014I82806314I83193252I82717124I81443838
2271I80655896I81565455I83390765I84070666I83250649I82168265I81805102I82234947
2263I82881225I83079794I82615553I81723860I80559812I79068826I77622154I77329682
2255I78826506I80674184I80913901I79559725I77928552I76912147I76428845I76144673
2247I76106690I76445656I76841876I76617355I75446835I73841337I72793841I72840265
2239I73452570I73712615I73306264I72521346I71772160I71313547I71059832I70560068
2231I69412763I67807546I66475457I65916962I65795134I65449415I64831131I64335871
2223I63898289I62984368I61440909I59699655I58117087I56608517I55042267I53623731
2215I52705238I52388781I52434009I52486272I52222498I51353595I49776373I47841052
2207I46224300I45374528I45107168I44846490I44242907I43394331I42611031I42206790
2199I42314902I42650913I42704864I42373002I42184492I42699940I43803004I44807803
2191I45168222I44942855I44588344I44390549I44258733I44045112I43816157I43753344
2183I43946356I44325485I44718120I44998563I45188973I45349910I45461960I45553261
2175I45727492I45889482I45766249I45410331I45284212I45587094I45948076I46013281
2167I45828921I45553683I45298280I45195514I45246933I45247777I45065105I44737956
2159I44274349I43754892I43585866I44135639I45130169I45873095I46081018I46148685
2151I46557146I47358101I48320627I49262613I50063147I50529427I50492780I50118223
2143I49934144I50321082I51089822I51782524I52177270I52298606I52244937I52226015
2135I52460316I52929270I53458011I53925769I54226892I54306165I54328392I54513947
2127I54805855I54988528I55069418I55259335I55641278I56100384I56515598I56832266
2119I57002980I57088935I57322601I57806257I58290263I58501000I58473357I58381282
2111I58344565I58470403I58760834I59040223I59221769I59426597I59706900I59952174
2103I60143638I60382511I60658382I60804548I60736037I60624268I60734982I61084710
2095I61380909I61367404I61122904I60997278I61325341I62145922I63128845I63809521
2087I63896249I63408726I62664112I62089650I61850918I61700813I61348202I60901122
2079I60769026I61153572I61760883I62084164I61987798I61952488I62552554I63668490
2071I64516221I64620042I64355918I64261522I64271229I64019414I63459582I62821462
2063I62325850I62163788I62411312I62851427I63178294I63387484I63755500I64423655
2055I65148151I65559215I65642708I65769388I66162095I66579770I66677402I66448798
2047I66175036I66108285I66292574I66560779I66705678I66733603I66856416I67154655
2039I67424688I67480256I67393598I67337256I67409565I67691416I68192866I68702968
2031I68961606I68986717I68981793I68988475I68864678I68546322I68151295I67866491
2023I67817112I68010124I68369558I68833307I69388848I69991305I70501196I70761241
2015I70725509I70477773I70181292I70041809I70172851I70398852I70376203I70034494
2007I69678013I69559210I69630042I69829806I70293625I71038870I71689793I71838912
1999I71548973I71184826I70878849I70509074I70109265I69908094I69968164I70091891
1991I70093298I69989899I69933768I70030625I70242206I70484807I70765883I71109211
1983I71403159I71490521I71427567I71521119I71968970I72507138I72663924I72394524
1975I72146366I72231125I72497993I72691497I72772599I72818319I72876701I72976232
1967I73175503I73571302I74172847I74722057I74831084I74432821I73957327I73907034
1959I74306209I74708130I74771928I74653687I74716288I75061797I75475956I75682965
1951I75572110I75296731I75145641I75258677I75573376I76012013I76524577I76990013
1943I77267151I77318498I77193083I76922135I76507343I76071731I75956163I76424695
1935I77243587I77860886I78009372I77786256I77210949I76127581I74523137I72612013
1927I70655451I68915041I67704006I67314466I67803888I68807844I69686806I70100543
1919I70365371I70988649I71988314I72970745I73720494I74324710I74808434I75024235
1911I74865339I74336034I73464106I72275369I70777419I68995439I67172592I65811170
1903I65264633I65359803I65609297I65739565I65878767I66264509I66894540I67526188
1895I67957932I68238727I68611878I69331310I70481853I71827799I72796373I72738414
1887I71329725I68800528I65858650I63352525I61838819I61317463I61391179I61713334
1879I62228500I62961789I63740166I64253996I64332354I64083915I63799321I63720541
1871I63883236I64193644I64579808I65000649I65440201I65958320I66565421I67038032
1863I67092616I66765045I66407017I66329784I66598129I67122440I67795307I68507634
1855I69111781I69494568I69716348I69941293I70171023I70197611I69934753I69654098
1847I69718597I70107014I70399204I70300025I70010227I69939395I70194516I70523846
1839I70677467I70652567I70603400I70651934I70845156I71183700I71563393I71739241
1831I71486512I70799717I69889806I69073446I68657880I68758536I69187818I69677240
1823I70187412I70815684I71452327I71795161I71767659I71684799I71862054I72217339
1815I72463808I72585214I72855388I73358316I73756015I73702557I73321598I73059302
1807I73143499I73422254I73677446I73831419I73848089I73708958I73529663I73492945
1799I73651139I73920047I74151886I74123046I73704526I73175855I73063945I73522840
1791I74190783I74739924I75197834I75604536I75753445I75477503I74954600I74532140
1783I74357488I74344404I74418753I74604168I74888973I75227376I75672484I76299139
1775I76993811I77491463I77629258I77486539I77303586I77270035I77330736I77250480
1767I76934656I76574166I76382210I76320241I76193769I75930912I75661088I75562544
1759I75692461I75932670I76068918I75987465I75802331I75734241I75873725I76119351
1751I76322773I76425820I76447977I76399373I76302234I76282328I76469712I76768444
1743I76915524I76835688I76759933I76928466I77316740I77700371I77917509I78025832
1735I78209911I78538959I78853306I78901699I78580600I78057626I77658660I77604358
1727I77827545I78026184I77913852I77493222I77057187I76828514I76718081I76575503
1719I76493627I76654634I77017727I77339460I77422601I77282625I77118452I77099391
1711I77159250I77078641I76791445I76547507I76716252I77380468I78155890I78536426
1703I78411222I78087590I77845763I77678285I77458544I77193716I77038688I77121196
1695I77418803I77816221I78214905I78535301I78695042I78669016I78532628I78407213
1687I78383438I78475583I78598466I78612674I78429651I78070638I77619411I77157773
1679I76798268I76722653I77039040I77588532I78061987I78333989I78499850I78584820
1671I78464118I78111857I77724498I77555261I77728226I78171083I78628571I78801817
1663I78586508I78160603I77830429I77805318I78099056I78584750I79118908I79604320
1655I79945467I80014470I79743030I79246011I78798230I78647282I78821442I79120526
1647I79315225I79367276I79432481I79646243I79956792I80189545I80216555I80038454
1639I79752174I79490159I79356866I79380852I79497193I79588494I79581108I79528987
1631I79547275I79637943I79658130I79518999I79361087I79442610I79846429I80356320
1623I80658287I80624806I80361666I80064411I79910086I79975712I80142488I80168654
1615I79951938I79622116I79349973I79192905I79157946I79253467I79439163I79647790
1607I79866476I80067295I80090788I79805984I79367909I79095133I79104207I79294123
1599I79620217I80091632I80559671I80794464I80748181I80570785I80440375I80454092
1591I80587174I80740303I80897934I81153407I81522830I81885148I82112837I82086319
1583I81680460I81020043I80611230I80822037I81318423I81448622I81124638I80859669
1575I80962857I81220722I81444401I81821421I82521369I83328655I83896506I84117372
1567I84075379I83845369I83504785I83193463I83020287I82994332I83082255I83230954
1559I83330414I83279628I83122420I83060169I83274072I83687808I83963750
1552I83892496I83708277I83762509I83988510I84039576I83872590I83804291
1545I84003140I84234065I84147688I83698430I83246710I83196628I83539955
1538I83932308I84187148I84380090I84454509I84136434I83379299I82593537
1531I82242825I82385332I82764110I83212314I83752521I84339644I84776030
1524I84955255I84986205I85045149I85277973I85779423I86446804I86913436
1517I86854773I86355925I85832107I85587747I85545404I85470633I85373564
1510I85488850I85841744I86079773I85849341I85185055I84456338I84039717
1503I84007783I84088884I84056106I84135027I84729044I85748685I86582981
1496I86763894I86325890I85584653I84948644I84811622I85187798I85597877
1489I85651476I85521910I85549272I85717806I85854686I85977288I86128307
1482I86183031I86062188I85879727I85738837I85579378I85268336I84732420
1475I84078122I83681408I83990198I85070472I86381037I87141899I87024784
1468I86431329I85992270I85923197I86036514I86171073I86342771I86624621
1461I87072122I87600934I87875821I87586796I86908794I86457636I86682019
1454I87379083I87896712I87815681I87299952I86703754I86107697I85441512
1447I84810004I84455423I84525200I84970730I85546810I85919750I85903010
1440I85610538I85371806I85508686I86111988I86954092I87637933I87890944
1433I87717276I87282437I86745114I86266594I86050652I86173043I86447718
1426I86664505I86825651I86951560I86876295I86492665I86008448I85726669
1419I85701346I85782518I85897453I86065423I86134918I85816633I85202639
1412I84948433I85535626I86592547I87307619I87344336I87141336I87372472
1405I88075937I88482429I88060603I87333996I87131770I87609375I88434035
1398I89152904I89183150I88180180I86427672I84702385I83902062I84491296
1391I86047135I87651157I88553823I88411667I87466375I86425280I85837594
1384I85739822I85932200I86275809I86647834I86854914I86681316I86044814
1377I85194832I84655680I84738188I85231760I85750021I86132316I86394472
1370I86539723I86553790I86503779I86552665I86805534I87113341I87138593
1363I86749405I86298669I86305773I86839650I87426563I87666631I87674017
1356I87684568I87506117I86793156I85748403I85048174I85015255I85300833
1349I85482802I85544349I85585355I85471758I85085032I84693239I84766324
1342I85449039I86449477I87463561I88423695I89243642I89694096I89666664
1335I89235694I88481584I87612048I86982087I86634751I86288400I85989457
1328I86112832I86654517I87287642I87950732I88587586I88696753I87981541
1321I87091465I86995593I87872796I89001956I89485118I88951663I87810546
1314I86893741I86682793I86952826I87169190I86986449I86378223I85640221
1307I85287961I85665614I86599511I87510337I87946864I88119899I88744021
1300I90082511I91459969I92027257I91520813I90124574I88344000I87034068
1293I86825441I87662690I89189692I90949304I92198393I92440853I92090773
1286I91901208I92051243I92223996I92101535I91501118I90300985I88537293
1279I86824316I86378364I87723747I89491097I89777519I88697034I88226463
1272I89428917I91134156I91830869I91657482I91615349I91730846I91181495
1265I89785678I88410823I88187425I89750087I92702445I95892761I98535136
1258A000096109I99715924I97477441I95354103I95117200I96087533I96364952
1251I95299801I93468794I91439430I89851305I89584859I90725484I92186013
1244I93062443I93434328I93498407I93144670I92634498I92584556I93115268
1237I93761617I94188930I94386513I94240981I93452968I91996800I90372591
1230I89205378I88734033I88879495I89562632I90643187I91768689I92588566
1223I92962913I92924859I92633372I92302355I92099917I92184325I92599609
1216I93079395I93386708I93671231I93905461I93505089I92269084I90992774
1209I90409801I90311536I90244714I90197586I90235992I90268911I90329965
1202I90443845I90419437I90329192I90706563I91745757I92882726I93518594
1195I93593576I93298432I92764485I92025920I90956970I89573394I88515136
1188I88476520I89020948I89037196I88541021I88771242I90133718I91361845
1181I91533544I91358399I91623508I92075650I92419399I92811962I93072361
1174I92924859I93026570I94154815I95459683I95272931I93644783I92370373
1167I92343362I92707018I93127718I94827542I97958352I99910343I98373073
1160I94896826I93152970I94457978I96778337I97533078I96149783I93907361
1153I92001302I90529378I89210090I88194388I87979853I88838979I90281923
1146I91261049I91169678I90190552I88651103I87047292I86652195I88423906
1139I91049257I91681187I89201228I85687487I84229915I85874803I88795228
1132I90379273I89938948I88766108I88171458I88423625I89150654I90030460
1125I91091812I92494874I94057958I95097504I94851950I93300190I91457929
1118I90492520I90581710I90883889I90631651I89959136I89532597I89656746
1111I90074211I90546470I91181495I91908242I92124325I91491200I90625671
1104I90494067I91325550I92422987I93027062I93030509I92727416I92262894
1097I91692089I91295375I91328293I91605572I91824257I92084583I92497969
1090I92650676I92175251I91472982I91240791I91661562I92380994I93046335
1083I93512264I93690645I93563119I93235619I92828705I92452248I92330139
1076I92707229I93485535I94099247I93986000I93199183I92439094I92315297
1069I92623032I92710816I92315508I91759263I91508925I91669370I91898676
1062I91807094I91366839I90807430I90308441I90112757I90672800I92018957
1055I93160215I93167319I92361791I91796402I92152109I93188140I94067313
1048I94182036I93682696I93201574I93147835I93402886I93623893I93652521
1041I93662087I93993878I94675257I95171853I95120856I94804892I94579525
1034I94488787I94381167I94128367I93867619I94094253I95075699I96119115
1027I96441481I96408632I96764691I97394229I97661801I97398661I96923306
1020I96578573I96430367I96242983I95812998I95307116I95081678I95187539
1013I95346225I95341723I95194221I95117621I95349250I95800126I95988565
1006I95616891I94966955I94641634I95134363I96302631I97202625I97186094
999I96563801I95939679I95623855I95612108I95815600I96084649I96159771
992I95871661I95286859I94670825I94465575I94966603I95805683I96408070
985I96612054I96421083I96001578I95851192I96255152I96653484I96453087
978I95992152I95746457I95530585I95100178I94774717I94965337I95444771
971I95648333I95541980I95457010I95542894I95790419I96222444I96611281
964I96449851I95793936I95560127I96433884I97492071I97784613I97731296
957I97665458I97396761I96977538I96705395I96471235I95998553I95662612
950I96383803I98207987I99604155I99706640I99100665I98418442I97795446
943I97245110I97006377I97152261I97205860I96953834I97012427I97752117
936I98377364I98655064I99164111I99444414I98764935I97568249I96574423
929I95725707I94730755I94171837I94920882I96028377I95894310I94674835
922I93070180I91537764I90382720I89556723I88758300I88232090I88682052
915I89838080I90267222I89635574I89050209I89514590I90690033I91363534
908I90997839I89843919I88633307I88987958I92224981I95163905I95086602
901I93912284I93942319I95544442I96829474I96816742I96175387I95485497
894I94889440I94769230I95827277I97510641I98068503I97259388I95984696
887I94891269I93989799I92969876I91768056I90476271I88861910I86618643
880I83925908I81311600I79099072I77148910I75661019I75511688I77455942
873I81321940I85872975I89224018I89306456I84841728I76759159I68147567
866I61998912I59435530I60191116I63559323I68457764I73546966I77886419
859I81219385I83708840I85664488I87355309I88868030I90102206I90877558
852I91221448I91759896I93447833I95869621I97227384I97242859I97146704
845I97850381I98862212I99301414I99046433I98044166I96037170I93292523
838I91445127I92396820I94410288I95556821I96133464I96435221I96519769
831I96592992I96745066I96910856I97208674I97785879I98701066A000563585
824A003674982A005955316A006135597A005450350A005422214A006388046A007244359
817A007293878A007073504A007247172A007680252A007926088A008298888A009365021
810A010669891A011556591A012315061A013235313A013963396A014196924A014044428
803A013826375A014317556A016682439A019990575A021566179A021494715A021141259
796A021294247A022195085A023751275A025426551A026565839A027244123A028246882
789A030252683A032813532A034651573A035183902A034385197A032068989A028213401
782A023338242A017972604A012311685A007104805A004386817A006033746A010464218
775A013301221A012442585A008262382A001390778I92644626I83223005I73490694
768I62639283I49927251I37100214I29661955I29927065I34970335I42295980
761I49943921I55236334I55085175I47730057I34819457I21078359I11729750
754I09502379I14056791I24213108I37627760I49488051I57318101I62776937
747I67537231I71173923I72347397I70411091I64952115I55318561I41143327
740I22654385I02419054H87148213H81399508H82786391H87716415H94563892
733I02516474I10643075I18176011I25039737I31425507I36931048I41102390
726I44429658I47700585I50936411I53768068I56279891I58533075I60133579
719I61007407I61751598I63024462I64823253I66475316I67519013I68130545
712I68713448I69447863I70225114I70964241I71832371I72954637I74072894
705I74910004I75580621I76232105I76727436I77039602I77553503I78547610
698I79637028I80298079I80619319I81035095I81748408I82608731I83380073
691I83994348I84531249I85062664I85581488I86025049I86344179I86629054
684I87147948I88100978I89279093I90213131I90709939I90959996I91239173
677I91717411I92431709I93299698I94168672I94847026I95090893I94703463
670I93778710I92734450I91920059I91214555I90189638I88576472I86248305
663I82859280I78097297I72550678I67896033I65811874I66767224I69954518
656I74091956I78154202I81677154I84658071I87232848I89458740I91329489
649I92857896I94128508I95301419I96520332I97790029I99008731A000127832
642A001238704A002512833A004090899A005994356A008046651A009772430A010379881
635A008959657A004894457I98339873I90370059I82165803I73492031I62503316
628I48378376I34182111I25485479I25418867I32179757I41485951I50071377
621I56761083I61598540I64717955I65788873I64350571I60755802I56509338
614I53312268I51893450I51976803I53073606I54937462I57411793I60217776
607I63006877I65531220I67721310I69585376I71046468I71962640I72358159
600I72497782I72627418I72791590I73002116I73389124I74040538I74859712
593I75716869I76618410I77644663I78801184I79967202I80972494I81749463
586I82388005I82988423I83511327I83858804I84070174I84351743I84874717
579I85585708I86279676I86838665I87304594I87754556I88224704I88727632
572I89240547I89714213I90135688I90512215I90767758I90709095I90127739
565I88970725I87460115I86038272I85159803I85058584I85546037I86005916
558I85731874I84277464I81442291I77314981I72757194I69494568I69044888
551I71473499I75464068I79494309I82750957I85157974I86942626I88299194
544I89331496I90145465I90859903I91512864I92081489I92625705I93259675
537I93955614I94523042I94760719I94407404I92920427I89598575I84271906
530I78045527I73167836I71657929I73756646I77869749I82060223I85318559
523I87493948I88688383I89102682I89110349I89031358I88881675I88569157
516I88291598I88514573I89495106I90966608I92387043I93414914I94086304
509I94624823I95195347I95826503I96482137I97128416I97712515I98166627
502I98512205I98874383I99301695I99710368A000120447A000739856A001637036
495A002510301A002951681A002759935A001865569A000244033I98225642I96698430
488I96533977I97733055I99408611A000623726A001024801A000826585A000605648
481A001060956A002568894A004854997A007252448A009265563A010765975A011656754
474A011536544A009975007A007188579A004140066A001824702A000762435A001256781
467A003554631A007400653A011940996A016497516A021086605A025729573A028946549
460A026522299A012562726I84588927I49304254I21018570I11147128I19078115
453I34287690I46323056I51574813I52102359I50961170I49751473I49246928
446I50292805I53301647I57681756I62443809I66959604I70842976I73653741
439I75160413I75669038I75877172I76420123I77550126I79127559I80753386
432I81914621I82272508I81890002I81002880I79733464I78343134I77420842
425I77397419I78195069I79590886I81413381I83177707I84068626I83518572
418I81627002I79229763I77708179I78220532I80751206I84181521I87357489
411I89804178I91564423I92831729I93804172I94665339I95596563I96688865
404I97770897I98521771I98880924I99134920I99531072A000084152A000787195
397A001669322A002580148A003246263A003618007A003890924A004178824A004415586
390A004579336A004754904A005005383A005384794A005990768A006805792A007607029
383A008220882A008690960A009031896A009031052A008390400A006800165A003957605
376A000095758I96574845I95273142I96990551A000702716A004534741A007207430
369A008421279A008165102A006116324A001871759I95619283I88594409I82991096
362I81035447I83490647I88946528I94801797I99010559A001038166A001563672
355A001567400A001718982A002432365A003991228A006266570A008607959A010404711
348A011685875A012995525A014677482A016408045A017653616A018488335A019465632
341A020711625A021781840A022450558A023071655A024067944A025414452A026674725
334A027436572A027731575A028017435A028679892A029604083A030399903A031039289
327A031944136A033300492A034748782A036005889A037264333A038712974A040181241
320A041469860A042642560A043860699A045125473A046234797A047036315A047767915
313A048947087A050746652A052634282A053797627A053720816A051892834A047078308
306A037899991A024837317A011012726A000189520I94295070I93372499I97169354
299A005474195A016893880A028703736A038737804A046703539A053222180A058594006
292A062930786A066522601A069593904A072075410A073630616A073741823A071830559
285A066904755A056526447A036554889A003391162I57781076I06242708H57516301
278H17235978G86481800G64342450G49661616G41060927G38088240G42274986
271G55077685G75018857G98106665H20463294H39476969H53348969H61664572
264H66739073H72428130H80727836H90980026I02518655I15879146I30984549
257I45746695I56147301I56592127I42247165I14351372H82730120H59284425
250H47871141H43294925H40872996H42921634H53503926H70662046H87859837
243I00934469I10027675I16723220I22237061I27303402I32070238I36143597
236I39139778I41232166I43141602I45479827I48152375I50640001I52721909
229I54653642I56797800I59219729I61470733I62888706I63423075I63941337
222I65298115I67339789I69261815I70672543I71867189I73255620I74935327
215I76816908I78878487I81043818I82890651I83871746I83791207I83018880
208I82380620I82060294I81029961I77304642I68042199I51432657I29728778
201I09659659H98876687I00848795I12429768I25564048I32151973I29953090
194I24488275I23327674I28533429I36338438I42889153I47540773I51052050
187I53521809I54815070I55427517I56179446I57468135I59089320I60677515
180I62057012I63117310I63746004I64111910I64645998I65587773I66796697
173I67972914I68830352I69169811I69050445I68917784I69353467I70476155
166I71620157I71874082I71107874I70317962I70678170I72249906I73929613
159I74676970I74322318I73232689I71944632I71153665I71353007I72248288
152I72908565I72749105I72265381I72308640I72518603I71571271I69410020
145I67710689I67504946I67910382I67895752I67789891I68221635I68814526
138I68802287I68299571I67989936I67814439I66955876I65098772I62916772
131I61247124I60323637I59823382I59486316I59596608I60447505I61443019
124I61716921I61658961I62577594I64673149I66431003I66364250I64876641
117I63998171I65019571I66822582I67352450I66201274I64542950I63168306
110I61988080I60996645I60476906I60476836I60962249I62063132I63349360
103I63503825I61921679I60004366I59412811I60022653I60634397I60619344
96I60132384I59531825I59157268I59004912I58422220I56690392I53833273
89I50495524I47660772I46695504I48433100I51596477I53007206I50318761
82I44412355I38819241I37258056I41117794I48200768I54308275I56668727
75I55637267I53510203I52330259I52697149I54002650I55320390I56325048
68I57363681I58711596I60253719I61831223I63462114I65136475I66615784
61I67289355I66238976I63417589I60693060I60462135I63416182I67944145
54I71830401I73544434I72031291I67747687I63832240I63678267I67237445
47I71704845I74791201I75777220I75064892I73139138I68741021I58697740
40I40946307I17612662H94973831H80850508H79513707H87932920H99347540
33I08540276I13864905I17163334I20806356I25668220I31338566I36718412
26I40703354I42546389I42036146I39490068I35135351I28429186I18834318
19I08499480I03531543I07455501I15266419I21304147I24466962I25025740
12I23478482I21745810I21763675I23133045I24577466I26687158I29951051
5I33174849I36224840I41289282I48213500I50274728
$$ === CHEMSPECTRA INTEGRALS AND MULTIPLETS ===
##$OBSERVEDINTEGRALS= (X Y Z)

##$OBSERVEDMULTIPLETS=
##$OBSERVEDMULTIPLETSPEAKS=
$$ === CHEMSPECTRA SIMULATION ===
##$CSSIMULATIONPEAKS=
##END=


$$ === CHEMSPECTRA PEAK TABLE EDIT ===
##TITLE=CZ-194
##JCAMP-DX=5.00
##DATA TYPE=INFRAREDPEAKTABLE
##DATA CLASS=PEAKTABLE
##$CSCATEGORY=EDIT_PEAK
##$CSTHRESHOLD=0.93
##MAXX=3997.453
##MAXY=0.9098731227047477
##MINX=373.96442
##MINY=0.6254451837259312
##$CSSOLVENTNAME=- - -
##$CSSOLVENTVALUE=0
##$CSSOLVENTX=0
##NPOINTS=35
##PEAKTABLE= (XY..XY)
388.12973892103173, 0.7810739234702578
398.0454621657541, 0.7656394199070413
423.54303622361203, 0.7452870568214036
475.95471623143067, 0.8069907384082134
485.870439476153, 0.7942187739416213
495.7861627208754, 0.8022159294013316
645.9385432838153, 0.7824143718970061
655.8542665285377, 0.7616949629866361
723.8477973494914, 0.7125434832471985
759.2610946520717, 0.6254451837259312
801.7570514151944, 0.8475459764772176
879.66630548087, 0.8465469421622275
961.8251552228553, 0.828495616791023
973.1574103596809, 0.8289082002586913
1005.7376438780293, 0.8043779687971127
1017.0698990148553, 0.7720927552961886
1121.8932590305162, 0.8246481965126377
1154.4734925488897, 0.8211544706549374
1240.8819379671618, 0.806620592847761
1257.8803206724, 0.7841864182719644
1304.6258731118282, 0.8192244114807852
1416.5318925879592, 0.746885057018393
1440.6129347537135, 0.7706990198872044
1456.194785566849, 0.7877819490092179
1596.4314428850862, 0.8136519137042841
1619.0959531587373, 0.833764429442425
3398.260009640344, 0.8069024035666607
3408.1757328850663, 0.8049603055884147
3428.007179374511, 0.799580867623039
3437.922902619234, 0.8009448598051854
3447.838625863956, 0.8010200211936206
3466.2535404612977, 0.7997227860317108
3481.8353912744333, 0.798393363783527
3488.9180507349492, 0.7984122587827303
3508.749497224394, 0.8070403290954218
##END=


$$ === CHEMSPECTRA PEAK TABLE AUTO ===
##TITLE=CZ-194
##JCAMP-DX=5.00
##DATA TYPE=INFRAREDPEAKTABLE
##DATA CLASS=PEAKTABLE
##$CSCATEGORY=AUTO_PEAK
##$CSTHRESHOLD=0.93
##MAXX=3997.453
##MAXY=0.9098731227047477
##MINX=373.96442
##MINY=0.6254451837259312
##NPOINTS=100
##PEAKTABLE= (XY..XY)
3143.284269061767, 0.825907284926896
2896.807719835809, 0.8256452038817989
3736.81113185301, 0.8253253057322243
3833.135300516028, 0.8253064107330211
3803.3881307818606, 0.8252960395833553
3148.95039663018, 0.8252745820907629
3864.299002142299, 0.8251838635541363
3881.297384847537, 0.8249469947662502
2922.305293893667, 0.8249236891261441
3942.208256207975, 0.8247432062088287
2912.3895706489443, 0.8245601607981241
2933.6375490304927, 0.8245562263878048
3745.310323205629, 0.8243803337570927
3546.9958583111807, 0.8243312786174446
3952.1239794526973, 0.8241144970999915
585.0276719233775, 0.8238834693395298
3752.392982666145, 0.8238753632509846
3925.2098735027366, 0.823785538705934
3170.198375011728, 0.8237826177685291
3886.96351241595, 0.8236949396506459
3807.6377264581706, 0.8235043838633184
2947.8028679515246, 0.8233914926408387
3963.456234589523, 0.8233802868165735
3892.6296399843627, 0.8233741475094954
1120.476727138389, 0.823368723395678
3823.2195772713058, 0.8233565642628604
3840.217959976544, 0.8232801512862189
3872.798193494918, 0.8232242416462319
3178.697566364347, 0.8231735180047705
3919.543745934324, 0.8231602860820617
3905.3784270132915, 0.8229656764030764
592.1103313838935, 0.8229414174544177
3983.287681078968, 0.8229219869076543
3974.788489726349, 0.8225427226331277
3933.709064855356, 0.8224772765180741
2974.7169739014853, 0.822475130938292
603.442586520719, 0.8222332549501956
3222.6100550195465, 0.8219992469353524
2981.7996333620013, 0.8219124628090451
3190.0298215011726, 0.8219076945715118
3197.1124809616886, 0.8218859387992657
2990.2988247146204, 0.8216707063022872
3214.1108636669273, 0.8215902995983498
1154.473492548866, 0.8211544706549374
3246.691097185301, 0.8211010048743863
611.9417778733382, 0.8210467645835979
2960.5516549804533, 0.8208265257337944
3238.1919058326816, 0.8201140712226226
572.2788848944483, 0.8200910045451936
576.5284805707583, 0.8198495463180895
3256.6068204300236, 0.8197074482637173
3097.955248514464, 0.8196881363509071
3855.799810789679, 0.81891774694869
3007.297207419859, 0.8188537312201579
3270.7721393510556, 0.8186660362058733
1306.0424050039092, 0.8184148618580022
3068.208078780297, 0.8179511378352655
3301.935840977326, 0.8171011162393483
538.2821194839717, 0.81687795645214
3024.2955901250975, 0.8166426968490906
441.95795082095356, 0.8166068744795365
3293.4366496247067, 0.8153235271166195
3310.435032329945, 0.8151444745858254
546.7813108365908, 0.8148957440973902
3038.46090904613, 0.8146063636848909
3335.932606387803, 0.8143350435969956
3317.517691790461, 0.8141416261892399
3344.431797740422, 0.8140189603764019
524.1168005629397, 0.8138940286550577
453.2902059577791, 0.8138815712425863
553.8639702971068, 0.8130546764884601
1597.8479747771694, 0.8130116411745514
514.2010773182169, 0.8129923894261032
3362.846712337764, 0.8120871733834597
3508.749497224394, 0.8070403290954218
475.95471623143067, 0.8069907384082134
3398.260009640344, 0.8069024035666607
1240.8819379671618, 0.806620592847761
3408.1757328850663, 0.8049603055884147
1005.7376438780293, 0.8043779687971127
495.7861627208754, 0.8022159294013316
3447.838625863956, 0.8010200211936206
3437.922902619234, 0.8009448598051854
3466.2535404612977, 0.7997227860317108
3428.007179374511, 0.799580867623039
3488.9180507349492, 0.7984122587827303
3481.8353912744333, 0.798393363783527
485.870439476153, 0.7942187739416213
1456.194785566849, 0.7877819490092179
1257.8803206724, 0.7841864182719644
645.9385432838153, 0.7824143718970061
388.12973892103173, 0.7810739234702578
1017.0698990148553, 0.7720927552961886
1440.6129347537135, 0.7706990198872044
398.0454621657541, 0.7656394199070413
655.8542665285377, 0.7616949629866361
1416.5318925879592, 0.746885057018393
423.54303622361203, 0.7452870568214036
723.8477973494914, 0.7125434832471985
759.2610946520717, 0.6254451837259312
##END=

##END=

