##TITLE=X9370
##JCAMP-DX=4.24
##DATA TYPE=INFRARED SPECTRUM
##DATE=5/11/2018
##SAMPLING PROCEDURE=ATR platinum Diamond 1 Refl
##ORIGIN=ComPlat
##XUNITS=1/CM
##YUNITS=TRANSMITTANCE
##RESOLUTION=4
##FIRSTX=3997.453
##LASTX=373.96442
##DELTAX=-1.4165319
##MAXY=0.85106218
##MINY=0.34769702
##XFACTOR=1
##YFACTOR=7.9261342e-010
##NPOINTS=2559
##FIRSTY=0.84399754
##XYDATA=(X++(Y..Y))
3997+1064828726+1063908577+1063262532+1063363225+1064180200+1065170962
3989+1065778880+1065805876+1065399119+1064832260+1064301121+1063850973
3980+1063482643+1063231249+1063092580+1062970831+1062778168+1062534896
3972+1062350279+1062307340+1062394497+1062548808+1062615209+1062306137
3963+1061549924+1060821836+1060608494+1060723249+1060760924+1060762052
3955+1060771979+1060263701+1058640581+1056197103+1054377861+1054526832
3946+1056016848+1056846005+1056387434+1056147320+1057363908+1059267149
3938+1060448092+1060184966+1058317446+1055278984+1052529366+1051823763
3929+1053212258+1054845756+1055171598+1054448323+1054016073+1054134513
3921+1053648720+1052111704+1051031078+1052416942+1056094981+1059817238
3912+1061974279+1062600997+1062029701+1059673004+1054705658+1047741974
3904+1041463514+1038526723+1038987549+1041612410+1045591551+1049537077
3895+1051423698+1050363602+1047963589+1047570443+1050002716+1052158629
3887+1051601772+1049028724+1046677291+1045214422+1044658693+1046512677
3878+1050626125+1053503584+1052636150+1048793272+1044405043+1041105411
3870+1039987636+1041503746+1043485044+1043458649+1042118432+1042513609
3861+1045440474+1048262209+1048628584+1046031396+1040707903+1033784827
3853+1030345774+1034873575+1042947288+1049625437+1053206393+1053320772
3844+1050395035+1045545528+1040012452+1034933585+1032065752+1033154951
3836+1037271858+1041632865+1044854063+1047064496+1048477958+1048999847
3827+1048842528+1048395163+1046964029+1042989626+1037008657+1033456879
3819+1034702795+1037860901+1041456896+1046295199+1051410688+1054512093
3810+1054329733+1050940537+1046320240+1043552950+1042528348+1040240308
3802+1036675746+1035885092+1039120052+1043405257+1047489302+1051675393
3793+1055220403+1057156205+1057717574+1057562436+1056696657+1055151069
3785+1053911018+1053551336+1052849568+1050891431+1049503312+1051179899
3776+1055011046+1057893693+1057905650+1054933740+1050418423+1046898078
3768+1045927996+1046986138+1049050532+1050903764+1050876843+1048415767
3759+1045405130+1044426174+1044931745+1043799983+1038916786+1030924214
3751+1024303668+1023785915+1026824978+1028788905+1029664310+1032266010
3742+1036673566+1039618253+1039067863+1034639176+1027688953+1022751387
3734+1024868722+1033049670+1041669412+1046682179+1047093523+1044130111
3725+1040645186+1039372424+1040888007+1044223510+1048136474+1051191856
3717+1052036730+1049903903+1044749460+1037981522+1033797536+1036117836
3708+1042826065+1049159196+1052530268+1052497857+1050387215+1049091215
3700+1050464219+1053154505+1054973521+1055005180+1052944771+1048242356
3691+1041050139+1034406732+1033510723+1038881743+1045647876+1050438050
3683+1052367234+1051338647+1047567435+1041188357+1032521164+1025047473
3674+1024608981+1029039322+1031512655+1031495133+1034164588+1041257315
3666+1048604745+1053017340+1054301081+1053754752+1052333244+1049934209
3657+1046706619+1044065965+1042488718+1039567718+1032551018+1021847330
3649+1014290919+1017456168+1027351455+1036273050+1041519237+1043766368
3640+1044662528+1045304963+1045631031+1045026873+1043230717+1040389355
3632+1036235525+1030327425+1025123876+1026332718+1033412060+1040025161
3623+1042596630+1040472301+1034843871+1029138511+1026776474+1026996811
3615+1027243618+1027332579+1028263181+1029492929+1030045801+1030994751
3606+1033810170+1037228167+1038882495+1038465134+1037696438+1037745694
3598+1037795025+1037042949+1036556328+1037840221+1040105926+1040535695
3589+1037224482+1031968518+1030115060+1033692256+1038838352+1042270336
3581+1043650334+1043800960+1043436691+1043141079+1043406535+1044145903
3572+1044226142+1041794846+1035574816+1026978236+1021493890+1023622355
3564+1030420824+1036641380+1040425902+1042557375+1044034757+1044689299
3555+1043803968+1041643994+1039768428+1039237289+1038970855+1037316602
3547+1034738215+1033771592+1035887423+1039632315+1042687096+1043975725
3538+1043849239+1043431577+1043562801+1043942562+1043587166+1042022251
3530+1039783543+1037927754+1037023021+1036768995+1036919921+1037918504
3521+1039988914+1042330572+1043933839+1044632599+1044890460+1044858876
3513+1044136804+1042618062+1041221370+1041064276+1041795673+1041796350
3504+1040264899+1038396626+1038124252+1039801064+1042002022+1043360062
3496+1043766067+1043880296+1043946322+1043549942+1042405170+1040918539
3488+1039911157+1039819864+1040248881+1040565173+1040852513+1041756193
3479+1043285538+1044550555+1044884369+1044509571+1043955271+1043401723
3471+1042868779+1042555119+1042662806+1043118444+1043607019+1043805923
3462+1043637475+1043383675+1043436390+1043879544+1044450389+1044903093
3454+1045170054+1045021835+1043961061+1041974499+1040141270+1039716013
3445+1040632252+1041827708+1042721612+1043373598+1043744560+1043721173
3437+1043525652+1043496174+1043667029+1043828935+1043812992+1043653493
3428+1043568291+1043657177+1043612208+1042989099+1041868467+1041026451
3420+1041201592+1042238828+1043210714+1043374049+1042855770+1042375316
3411+1042365615+1042598585+1042710332+1042632876+1042300792+1041471636
3403+1040215267+1039084332+1038509201+1038441747+1038619820+1038740141
3394+1038541763+1038162077+1038155911+1038814814+1039759629+1040429888
3386+1040689178+1040785885+1040950875+1041227987+1041578946+1041941637
3377+1042220629+1042379978+1042476159+1042477513+1042178066+1041456445
3369+1040562616+1040036366+1040273472+1041134664+1042038194+1042458638
3360+1042327940+1042087600+1042386220+1043422403+1044511677+1044698775
3352+1043860669+1042774629+1042128584+1041895313+1041703026+1041443060
3343+1041286643+1041239418+1041049086+1040648871+1040335286+1040336790
3335+1040581717+1040980278+1041472613+1041759427+1041552626+1041138499
3326+1041155645+1041752132+1042426753+1042760641+1042921645+1043338103
3318+1044105822+1044836692+1045007321+1044388875+1043169279+1041782438
3309+1040683914+1040159995+1040203084+1040644660+1041404181+1042387047
3301+1043192441+1043321935+1042760040+1042001646+1041449978+1041144289
3292+1041109021+1041512319+1042290791+1043010381+1043326974+1043319078
3284+1043238313+1043217106+1043249668+1043203269+1042921494+1042506615
3275+1042257928+1042236722+1042279887+1042370954+1042492703+1042353057
3267+1041866888+1041580826+1042020822+1042931947+1043635069+1043770730
3258+1043375628+1042631748+1041852148+1041447196+1041624818+1042139714
3250+1042439461+1042160018+1041537060+1041165947+1041246110+1041357331
3241+1041163691+1040907108+1040896054+1040964711+1040833262+1040656767
3233+1040786186+1041170158+1041340712+1040993964+1040382813+1039987711
3224+1039921385+1039894237+1039708267+1039432283+1039139228+1038875952
3216+1038851738+1039239470+1039812119+1040153076+1040183156+1040178268
3207+1040319043+1040448613+1040271667+1039688715+1038943407+1038455207
3199+1038467239+1038861664+1039292711+1039472440+1039355880+1039117570
3190+1038890466+1038561691+1038013858+1037487381+1037364128+1037606875
3182+1037795852+1037701176+1037549572+1037756297+1038505441+1039493571
3173+1040190451+1040465006+1040678575+1041003891+1041084204+1040607210
3165+1039815127+1039210292+1039018005+1039072901+1039099898+1039019735
3156+1038977172+1039110953+1039406489+1039774068+1040126380+1040369502
3148+1040441318+1040364840+1040169846+1039801064+1039241124+1038708331
3139+1038507998+1038643885+1038823763+1038903776+1039023871+1039246163
3131+1039406790+1039394758+1039273460+1039094108+1038809099+1038373916
3122+1037832400+1037305773+1036899392+1036608668+1036410139+1036404575
3114+1036684319+1037104387+1037430380+1037646054+1037867443+1038062362
3105+1038137261+1038199000+1038402793+1038589364+1038397604+1037788332
3097+1037179738+1036973915+1037174474+1037522500+1037747123+1037631014
3088+1037151613+1036583701+1036160475+1035750709+1035200319+1034717986
3080+1034552921+1034642485+1034874853+1035273564+1035711906+1035885242
3071+1035664530+1035140009+1034431398+1033812200+1033755950+1034394851
3063+1035148582+1035337184+1034986225+1034656472+1034651960+1034708135
3054+1034360635+1033439433+1032323162+1031690353+1031792700+1032100118
3046+1031937761+1031252462+1030547235+1030308324+1030552048+1030715383
3037+1030148975+1028848539+1027385069+1026166225+1025233367+1024593339
3029+1024177407+1023702894+1023023235+1022361399+1021919447+1021536904
3020+1020866946+1019656149+1017893081+1015913136+1014259636+1013285719
3012+1012957620+1013047109+1013289328+1013357460+1012939798+1011954526
3003+1010566556+1008993445+1007405443+1005905351+1004435338+1002814700
2995+1001019221+999301575+997950754+997053015+996476456+995962688+995296264
2985+994458008+993518232+992429485+991066933+989326651+987039664+983977966
2975+980054549+975366346+970097147+964537750+958955343+953155532+946391429
2965+938026992+928204574+917649332+906919323+896090653+885120531+874211020
2955+863714208+853951274+845247458+837933718+832235276+828319605+826429900
2945+826729197+828958956+832415907+836312553+840050226+843165617+845285134
2935+846299809+846381777+845695426+844339868+842686593+841395256+840882541
2925+841029633+841561298+842481522+844068395+846721908+850912962+857019289
2915+865029985+874439027+884405753+893953841+902237738+908931454+914361506
2905+919088136+923418010+927363310+930828608+933710278+936034188+938066923
2895+940107329+942163000+943989085+945407435+946449483+947233445+947826022
2885+948224884+948378367+948184125+947559588+946521751+945050610+942915227
2876+939901280+936207073+932277489+928269021+924067062+919803891+915937626
2866+912828701+910667449+909809265+910740845+913609128+918017361+923282198
2856+928715108+933707495+937820943+940973634+943554503+946222981+949391012
2846+952837285+955885071+957953000+958934813+959243209+959602214+960597338
2836+962265653+964225294+966178242+968093589+969997807+971910674+973938972
2826+976136771+978342016+980358508+982194369+983940591+985556116+986937016
2816+988114425+989250624+990435703+991580700+992585224+993516427+994482599
2806+995418164+996166932+996722886+997254627+997924058+998735167+999524994
2796+1000113360+1000491692+1000824603+1001253996+1001765056+1002238441
2788+1002573608+1002754615+1002844630+1002964047+1003267781+1003849755
2779+1004612811+1005331874+1005875195+1006259243+1006503944+1006619677
2771+1006727138+1006953941+1007204659+1007274520+1007199696+1007226091
2762+1007415069+1007589834+1007709553+1007969971+1008455012+1008976149
2754+1009355007+1009616102+1009824481+1009948411+1009971723+1009973679
2745+1010029928+1010158520+1010363140+1010612128+1010834043+1011050018
2737+1011371800+1011747575+1011923017+1011768405+1011427297+1011061148
2728+1010695224+1010353364+1010103925+1009941568+1009819067+1009808915
2720+1010071439+1010614083+1011183950+1011465198+1011349916+1010981736
2711+1010601976+1010402846+1010478648+1010814717+1011291185+1011716517
2703+1011910684+1011839018+1011668690+1011603416+1011658989+1011703733
2694+1011705989+1011783295+1011987914+1012182081+1012187947+1011953924
2686+1011549798+1011093108+1010727184+1010582800+1010683944+1010894128
2677+1011007756+1010935940+1010780727+1010729891+1010916839+1011351270
2669+1011882033+1012262094+1012361434+1012280593+1012185315+1012140044
2660+1012180051+1012415578+1012919118+1013538165+1013939283+1013913038
2652+1013586594+1013249773+1013031392+1012878284+1012772252+1012794662
2643+1012997476+1013327229+1013679767+1013990269+1014254597+1014499223
2635+1014781901+1015177228+1015627602+1015881477+1015802066+1015627075
2626+1015647605+1015796050+1015860045+1015922912+1016254921+1016925631
2618+1017774566+1018594022+1019148472+1019203519+1018723667+1017946097
2609+1017235305+1016924729+1017133635+1017586565+1017836155+1017810436
2601+1017860219+1018181774+1018556497+1018699076+1018485959+1017885110
2592+1017041891+1016371933+1016265299+1016751092+1017554756+1018327437
2584+1018810748+1018954080+1018873089+1018691481+1018555444+1018673207
2575+1019065000+1019415132+1019451153+1019271951+1019115610+1019081243
2567+1019224725+1019603132+1020120209+1020550278+1020738203+1020670598
2558+1020387921+1019870469+1019067256+1018222383+1017967604+1018602068
2550+1019439422+1019512667+1018830150+1018254192+1018279459+1018608761
2541+1018873841+1019118543+1019440926+1019615390+1019346625+1018746528
2533+1018288032+1018243213+1018393538+1018404818+1018237272+1017998211
2524+1017708089+1017501664+1017703878+1018346839+1018955584+1019154564
2516+1019108240+1019111699+1019213144+1019424006+1019764286+1019980261
2507+1019777973+1019405657+1019435135+1019905663+1020223910+1020043429
2499+1019802338+1020119457+1020926881+1021563149+1021661436+1021514720
2490+1021471856+1021460125+1021306566+1021082620+1020889882+1020703010
2482+1020617733+1020876271+1021476443+1022028187+1022141288+1021798901
2473+1021247534+1020648941+1020054784+1019681641+1019811211+1020266774
2465+1020376340+1019718189+1018669748+1018072885+1018502277+1019822717
2456+1021296865+1022171443+1022248598+1021891172+1021569992+1021439445
2448+1021253550+1020720531+1019978080+1019508155+1019505748+1019646147
2439+1019609825+1019485219+1019449950+1019393098+1019153360+1018875195
2431+1018825939+1019066579+1019523721+1020108252+1020586976+1020660597
2422+1020347614+1020038240+1020063282+1020328889+1020407548+1020004476
2414+1019320530+1018804808+1018601842+1018507090+1018400757+1018400231
2405+1018599962+1018881211+1018989950+1018749686+1018235843+1017737642
2397+1017525653+1017654847+1017926921+1018028291+1017829687+1017549416
2388+1017524149+1017828183+1018185835+1018248853+1017991744+1017869995
2380+1018494682+1020027036+1021968553+1023771401+1025588914+1028004267
2371+1030982794+1033692857+1035587751+1037010763+1038488671+1040053662
2363+1041405535+1042226419+1042295453+1041566914+1040132246+1038098683
2354+1035499014+1032368733+1029109108+1026550122+1025427685+1025991385
2346+1027894926+1030224401+1032050185+1033115847+1033621342+1033684736
2337+1033383634+1032933336+1032468900+1031838873+1030894660+1029776359
2329+1028670616+1027572543+1026539594+1025853844+1025746533+1026101478
2320+1026499663+1026532525+1026056508+1025156438+1023953987+1022596098
2312+1021355672+1020490193+1020028464+1019846029+1019793915+1019701870
2303+1019537332+1019560118+1019966048+1020453872+1020531328+1020164351
2295+1019764437+1019596214+1019509884+1019300076+1019075754+1019064323
2286+1019158324+1019000779+1018617033+1018623500+1019513870+1020880783
2278+1021724980+1021637146+1021333112+1021732124+1022790641+1023608142
2269+1023495642+1022593316+1021585032+1021126838+1021481181+1022343802
2261+1022922166+1022583615+1021640906+1021051111+1021239036+1021867634
2252+1022687090+1023606337+1024053552+1023402770+1021928547+1020534787
2244+1019824296+1019890698+1020551933+1021495619+1022532178+1023679131
2235+1024860299+1025780223+1026175625+1025916260+1024978514+1023701841
2227+1022898854+1023235751+1024537164+1026009057+1026911383+1026689693
2218+1025165612+1023404425+1023382917+1025614256+1028148576+1029075719
2210+1028738521+1028307850+1027710385+1026375733+1024867970+1024416017
2201+1025353537+1026850922+1027963885+1028487879+1028827408+1029421865
2193+1030326899+1031067094+1030950308+1029762146+1028058186+1026677511
2184+1026281657+1027193685+1028999616+1030433006+1030497754+1029534364
2176+1028511642+1027754903+1027134953+1026880251+1027287159+1028168429
2167+1029274623+1030797953+1032954016+1035410729+1037304269+1037649513
2159+1036307115+1034581798+1033727675+1033471017+1032847232+1031429859
2150+1029509172+1027929669+1027562993+1028171813+1028331388+1027220682
2142+1025720815+1025046345+1025071762+1024788709+1023905709+1023129267
2133+1023033387+1023421420+1023777869+1023646569+1022753116+1021447942
2125+1020706243+1021049156+1021894481+1022458407+1022610236+1022414039
2116+1021710692+1020647888+1019927019+1020094941+1020935153+1021691591
2108+1021754759+1021168724+1020495006+1020216089+1020409955+1020839498
2099+1021053894+1020718351+1020192025+1020323023+1021386729+1022830196
2091+1024179964+1025406403+1026257593+1026011012+1024334350+1022052777
2082+1020697144+1021224147+1023149872+1024985884+1025662083+1025458366
2074+1025378955+1025855649+1026491165+1026886793+1027092240+1027183909
2065+1027054038+1026776550+1026623818+1026601634+1026490037+1026374003
2057+1026615170+1027250611+1027834465+1027994717+1027940272+1028377260
2048+1029817267+1031681629+1032402348+1031002572+1028487954+1027175862
2040+1028364551+1030940607+1032600199+1032310829+1031338642+1031530026
2031+1032903331+1034006066+1034376276+1034978780+1036064595+1036488197
2023+1035688669+1034522390+1033511249+1031873615+1028938554+1025614707
2014+1023841112+1024783821+1027764604+1030876161+1032731724+1033375212
2006+1033189016+1031839475+1029324706+1027078704+1026756772+1028379817
1997+1030620856+1032462733+1033629539+1033934701+1033271210+1032138546
1989+1031585373+1032584031+1035038790+1037253058+1037389020+1035599933
1980+1033711808+1033130210+1033987416+1035619410+1036976246+1037092205
1972+1035697392+1033288055+1030887215+1029752821+1030444061+1032058232
1963+1033325956+1034098863+1034902602+1035519243+1035149334+1033859576
1955+1032756841+1032632084+1033169690+1033563438+1033372881+1032644041
1946+1031463098+1029762747+1027874998+1026873633+1027428384+1028781235
1938+1029755378+1030050012+1030181161+1030597845+1031246597+1032010705
1929+1032980938+1033770088+1033253914+1031050475+1028719420+1028114586
1921+1028861474+1029297935+1029245295+1030041213+1031933249+1033327309
1912+1032903481+1031254267+1030114910+1030245081+1031073260+1032163662
1904+1033552985+1034928546+1035707469+1035740633+1035262736+1034594808
1895+1034156917+1034003735+1033446276+1032129070+1031124998+1031732916
1887+1033576072+1035421709+1036746510+1037453391+1037349013+1036570842
1878+1035762967+1035459760+1035593842+1035463294+1034083372+1031054235
1870+1027585026+1026349939+1028699116+1032811812+1036257182+1038137637
1861+1038790450+1038891443+1039018456+1039554032+1040468917+1041304766
1853+1041511116+1040668047+1038655240+1035820345+1032717587+1030035122
1844+1029167463+1031049497+1034094426+1036179801+1036979781+1037400375
1836+1038094397+1038543192+1037446548+1034310777+1030949255+1029954733
1827+1031003399+1032142381+1033178714+1034917868+1037015425+1038489273
1819+1039041242+1039015599+1038610947+1037467829+1035269880+1032730295
1810+1031462647+1032272627+1034201511+1035631442+1035472619+1033614273
1802+1031101009+1029613926+1029907132+1031056716+1031557700+1030433984
1793+1028062998+1026993352+1029490372+1033804981+1036847879+1037697641
1785+1037325776+1036673641+1035929535+1035528342+1035882460+1036091742
1776+1034581497+1030640107+1025292023+1021686853+1022342072+1025894903
1768+1029748459+1032282403+1032366628+1029720334+1025909793+1023319824
1759+1022117600+1020944778+1019563126+1017967304+1014724673+1008186773
1751+999042736+991069189+986631478+983547821+978887517+971674094+961802872
1741+948880779+933743216+918738831+903766557+885716116+865170910+850314068
1731+844130135+842247724+841696583+840867952+837907473+831546443+821764859
1721+808041961+787176928+754952462+714365966+677427955+648542451+623680832
1711+600284826+578393612+558860374+543200282+533698105+530813502+532612214
1701+538204624+546997890+555037424+559036982+559266455+556439531+550304402
1691+539940055+525513471+509671658+494217802+477021146+457511521+443412095
1681+438671628+438780856+440700265+444800553+453216916+466113365+480667751
1672+497189938+520710325+552158387+583264100+609083995+632769371+658886081
1662+687109072+712342781+731456478+744308634+751768037+757707269+770819242
1652+788773954+799715575+804403101+809288328+819400491+831898906+841385329
1642+846806207+848819089+847870740+845310927+846034428+854558590+865858239
1632+874037909+878760779+881673055+884312505+887099122+889916345+893862247
1622+899682663+905135125+907897377+909010940+912352835+919044670+925689129
1612+930046828+932382469+934200432+936714975+939732531+942506213+944891261
1602+947183963+949497120+951509325+952816003+953602596+954575762+956076004
1592+957898781+959894141+961992526+963967508+965574685+966649897+967181938
1582+967282556+966609214+964227399+959930914+956280925+956996078+960202537
1572+961160286+958670109+955756178+955979071+958106484+959248398+958425407
1562+954758047+945979257+932101672+924770710+930686781+939178832+945246807
1553+948606750+949835069+949996749+949116457+945484214+937444867+925251164
1543+910844696+896717897+888222612+887654776+887468655+881212003+867393375
1533+850088167+834663339+819688809+800594364+776302160+750400823+725180800
1523+697851788+667727362+640653956+618887913+599511467+582858470+571007228
1513+562630909+555079123+547802869+544101180+553670060+579963189+606751775
1503+627068410+644440734+662061783+682221814+707097646+734863947+758877760
1493+775687098+787442309+799190527+815101449+833688519+850441457+863181866
1483+872299884+879283721+884923882+888535144+889266841+887271706+883962674
1473+882640656+886309596+892247324+895270671+893138596+886278839+877463201
1463+869810383+862854820+853922472+841865783+830564329+827624154+830825499
1453+832582626+830593356+825925458+821179877+819307168+821135208+824149155
1443+824521245+819480730+808011053+789023167+760164660+724253582+693442654
1434+674064704+663100748+659142814+663066382+672506858+682788297+691437968
1424+698312765+703841781+709273863+718433467+735292061+757532203+780151580
1414+801238453+820553234+837953721+852918249+864732869+873952482+882715630
1404+892086170+900522273+906533321+910608718+914289464+918726348+924602412
1394+931973756+939163943+943871246+945429769+945415857+946434143+949193537
1384+951849079+952746518+951825542+949815442+946929561+942766782+937622941
1374+933095291+930203770+927776836+924350642+920104315+916015232+912367950
1364+909563737+909548245+913884511+920828117+927290141+931803127+934476417
1354+935748127+935458832+932867209+927391059+919140325+908911075+898097444
1344+888427081+881320592+877918763+879575874+886419839+895194643+901082439
1334+901179823+895207202+884646920+871953136+859887799+850755643+845642635
1324+844070426+844357314+844530500+843196750+839803118+834258235+826493745
1315+816560934+804890322+791961312+777836243+762614154+747355969+734200155
1305+725506717+722795451+725856248+732178474+737301183+736394194+726424986
1295+707641569+683342071+658202662+636344085+620061599+609642694+604107287
1285+602242248+603350360+607404813+614575899+624459981+635641866+646084534
1275+654177875+659585367+663210240+666517467+670830346+676856434+684333810
1265+691791785+696736119+696526010+689663696+676746341+660330901+643678506
1255+629020531+616017711+601428093+580952147+552449562+518101143+483899102
1245+457166578+443931202+447161123+466008122+496252530+531970118+567694135
1235+599911457+627134060+648852276+664455329+672988139+673758188+667211263
1225+655392357+641426562+628116813+616851004+607800328+600807918+595908741
1215+593399914+593827540+597849920+605852005+617532919+631792371+646978589
1205+661242477+672716065+679600713+680467996+674749552+663002838+646762539
1196+628162798+609540309+593064860+580390514+572440693+569444456+571148304
1186+577125926+587194247+601617184+620664667+643756413+669066526+694096519
1176+716698449+735635726+750463089+761206934+768127979+771431146+770934223
1166+765963418+755594371+739185022+717055274+690913973+663654297+638664611
1156+618990035+606361637+600249858+597698204+594624586+588130978+578169290
1146+567240265+558564687+554349869+555170905+560263421+568121573+577093778
1136+585914943+594073594+601806689+609729738+618494767+628686078+640728028
1126+654728942+670469084+687504925+705187036+722643848+738877002+752968231
1116+764368649+773108109+779629089+784348575+787400122+788550083+786966142
1106+781179115+769946394+753894772+736738009+724612512+723146636+734060132
1096+754157296+777613951+799377249+816952952+830105307+839704531+846738452
1086+851890564+855670575+858610449+861115667+863254359+864898911+866005857
1077+866634681+866713566+865883807+863725789+860223191+855850604+851109385
1067+846222955+841394955+837052898+833674457+831570432+830908520+831792573
1057+834247632+838099158+842876623+847975419+852984125+857759559+862183358
1047+865962617+868662678+869867234+869312558+866879683+862533716+856447166
1037+849232013+841976402+836048224+832755060+832863348+836215921+841814647
1027+848275994+854229965+858542844+860492032+859837941+856626669+850865887
1017+842452043+831417324+818133369+803261863+787646252+772280606+758272474
1007+746740832+738618088+734368528+733823477+736338170+741145640+747593527
997+755125949+763201768+771431221+779862586+789021136+799563671+811827686
987+825510804+839625495+852835379+863887845+871693846+875259686+874005197
977+868253815+859374858+849569361+841402625+837012290+837328582+841843148
967+848938958+856489655+862609969+866372758+867998586+868359020+868253364
958+867934365+867056929+865134438+862249309+859271233+857173976+856039130
948+854660110+851103519+843951384+833446224+821637545+811408295+805240078
938+804514472+809430005+819232720+832486595+847322832+861825481+874589126
928+885117824+893738167+901066872+907467006+912968273+917609551+921641406
918+925341254+928797828+931915551+934580193+936841537+938853291+940594325
908+941901379+942792425+943355900+943311231+942123369+939594313+936141574
898+932669959+930259644+929662179+930858162+933007006+934792408+935163596
888+934155764+932832316+932215299+932442855+932854049+932386830+929806187
878+924006526+914514388+901937088+888006788+875129139+865715133+861481816
868+862760444+868287129+875885652+883431160+889296846+892443145+892480670
858+889565762+884250616+877553215+870933647+865896441+863626148+864952980
849+870300763+879357944+890889209+903216544+915095384+926061596+935913717
839+944124295+949995772+953295479+954495297+954281879+952971818+950516082
829+946862257+942051779+936122097+929211805+921787972+914762774+909500869
819+907564390+910022758+916709405+926098143+936062463+944970973+952206130
809+957824859+962056973+965220493+967714430+969708212+970912918+970966235
799+970103388+969161055+968707223+968413115+967430399+964949772+960088308
789+951671005+938595054+920404815+897553446+871466440+844675035+820913142
779+804658781+799762650+807717246+826747395+852432231+879412840+903202932
769+921445811+934104627+942371831+947209306+948957333+948136824+945926241
759+943478250+941221795+939195903+937673777+937116920+937774846+939559044
749+942089981+944716120+946677866+947372716+946339014+942977192+936553595
739+926699519+913913689+899635813+885814177+873966770+864298362+855791797
730+847128740+837537864+827469166+819132929+815942413+820557822+833110155
720+851150895+871264152+890875824+908789702+924566015+937891030+948495303
710+956378234+961934923+965713505+967976127+968733016+968259706+967182314
700+965942865+964455331+962304532+959138906+954878668+949535622+942917257
690+934905584+926208612+918450213+913310885+911773267+913830367+918273418
680+923289267+928038457+933215611+939633192+946861355+953792702+960131623
670+966543113+973059431+978017828+981077045+983958714+987434766+990965864
660+993833095+996079324+998276747+1000661494+1002875311+1004605065+1006117340
650+1007733692+1009163322+1010047149+1010788623+1012078305+1013849043
642+1015274462+1015696861+1015227010+1014493207+1014002000+1013776625
633+1013549069+1013197509+1012792782+1012214568+1011070999+1009181971
625+1006892127+1004829913+1003624906+1003728532+1005080555+1007020343
616+1008830185+1010254250+1011367438+1012246453+1012896859+1013312189
608+1013592009+1014059754+1015048711+1016469994+1017854428+1018871811
599+1019526729+1019917243+1020204884+1020711056+1021599095+1022663628
591+1023839533+1025418435+1027293927+1028710622+1029166485+1028939381
582+1028521870+1028223100+1028297472+1028637076+1028271754+1025835119
574+1020869428+1014245423+1006953641+998990547+990161674+981820850+976496830
564+975538930+978182516+982753407+987881380+992917684+998049342+1003674990
554+1009327108+1014012754+1017702750+1021304160+1024997765+1027783028
545+1029073688+1029859304+1031702309+1034887261+1037996562+1039498083
537+1039469357+1039162390+1039143815+1038681861+1036887435+1033871307
528+1030819836+1029161221+1029070906+1028563606+1025044615+1017407739
520+1005839024+990281994+969962990+944799066+916692410+889541547+868748181
510+859682577+865158351+883506435+908884980+935014775+958924962+980393250
500+999065973+1013661644+1023507825+1029642352+1033903117+1037149958+1039285868
490+1040713393+1042324932+1044288783+1045980260+1046885144+1047034416
482+1046535989+1045052817+1042117304+1037783971+1032450927+1026438750
473+1020690602+1017236358+1017387435+1020360699+1024215458+1026714660
465+1026008606+1021178199+1011696514+997367201+980701345+968860029+967975675
455+976344324+989458252+1004956400+1020328663+1031719004+1036609570+1035948486
445+1032769700+1028931711+1024837363+1021537581+1019779251+1017520013
436+1011416469+1001692789+993256987+990857576+995873501+1007138332+1022567973
426+1039621562+1054775594+1064493333+1067420273+1063768479+1055638516
418+1050587623+1053332052+1059019514+1062602350+1064011225+1066349949
409+1070662527+1073741823+1071438518+1062269665+1047793937+1031247198
401+1016158815+1005122066+998261707+992959495+988064567+985033099+984537981
391+985877371+987966732+989942014+991632664+993686380+996958714+1001918841
381+1008517428+1016242062+1024701326+1034118265+1043579646+1050342170
##END=
