##TITLE=X9299
##JCAMP-DX=4.24
##DATA TYPE=INFRARED SPECTRUM
##DATE=5/11/2018
##SAMPLING PROCEDURE=ATR platinum Diamond 1 Refl
##ORIGIN=ComPlat
##XUNITS=1/CM
##YUNITS=TRANSMITTANCE
##RESOLUTION=4
##FIRSTX=3997.453
##LASTX=373.96442
##DELTAX=-1.4165319
##MAXY=1.0534433
##MINY=0.64625585
##XFACTOR=1
##YFACTOR=9.8109554e-010
##NPOINTS=2559
##FIRSTY=1.0098367
##XYDATA=(X++(Y..Y))
3997+1029294940+1028905998+1028441358+1028105150+1028117422+1028539535
3989+1029162862+1029659945+1029848279+1029779750+1029609641+1029427989
3980+1029210493+1028878295+1028389961+1027814142+1027304059+1026993975
3972+1026991666+1027381945+1028102355+1028923616+1029615595+1029999190
3963+1029968692+1029657393+1029323008+1028981939+1028565780+1028282914
3955+1028202477+1027704058+1026050114+1023529830+1021681598+1021876251
3946+1023548542+1024794346+1024728247+1024283655+1024606133+1025564575
3938+1026364208+1026424232+1025413664+1023417437+1021405414+1020846121
3929+1022060941+1023623998+1023999331+1023218167+1022707719+1023149030
3921+1023432625+1022436274+1020856692+1020763861+1023081351+1026432130
3912+1029001137+1030128837+1029875618+1027952174+1023788396+1017746738
3904+1011953682+1008802598+1008527812+1010150528+1013231868+1016959377
3895+1019632637+1020005540+1018660587+1018074623+1019627169+1021347577
3887+1020812828+1018096858+1015497109+1014103554+1013447966+1014393589
3878+1017546678+1020472003+1020392902+1017116606+1012696572+1009217725
3870+1008273438+1010428110+1013230227+1013659570+1011940742+1011409212
3861+1013912607+1017438476+1019414047+1018711316+1014655071+1006877574
3853+999874862+1001252561+1008753996+1016349841+1021177711+1022390466
3844+1020214774+1015762662+1010597732+1006092583+1003569261+1004216404
3836+1007515543+1011481691+1014858958+1017468671+1019284400+1020022186
3827+1019662771+1018773223+1017431247+1014407866+1009293909+1005465610
3819+1006003215+1008822708+1011840681+1015631678+1020169452+1023714155
3810+1024889607+1023434812+1020327410+1017597164+1015947655+1013864247
3802+1010976832+1009879752+1011903864+1015008593+1017944915+1021023763
3793+1024148419+1026637718+1028174044+1028690567+1027985345+1026257647
3785+1024643193+1024065187+1023832138+1022884632+1021957417+1022893380
3776+1025646349+1028214020+1028897371+1027197862+1023934811+1021045998
3768+1019895334+1020150619+1021192900+1022474062+1022643806+1020537738
3759+1017228149+1015617279+1016367338+1016755793+1014012120+1007616818
3751+1000815139+998592363+1000226501+1001713982+1002289435+1004172479
3742+1008073743+1011489953+1012333814+1009689716+1003989977+998792423+999253661
3733+1005626545+1013185270+1018031184+1018982275+1016851176+1013949058
3724+1012732902+1013855377+1016477058+1019649405+1022479044+1023935175
3716+1023084996+1019400803+1013532474+1008871006+1009636800+1015118131
3707+1021265560+1025172109+1025677576+1023428859+1021194965+1021506143
3699+1023712819+1025798960+1026762384+1026115484+1023004680+1017098563
3690+1010688862+1008532490+1011994326+1017413082+1021827041+1024234567
3682+1024201517+1021656568+1016803302+1009885219+1003175338+1001480932
3673+1004182929+1005907528+1005630190+1007821313+1014652337+1022418898
3665+1027635528+1029578535+1029303445+1027978905+1025767004+1022660088
3656+1019884520+1018440235+1016569706+1011390500+1002352983+994883140+996520438
3646+1005085417+1013886361+1019892296+1023038216+1024481346+1025304673
3638+1025672958+1025189242+1023801518+1021861063+1019126806+1014679008
3629+1009778658+1009577140+1015034535+1020932147+1023588153+1022182325
3621+1017760529+1013118138+1011121911+1011504838+1012327071+1013175185
3612+1014516068+1015687510+1015770620+1015870377+1017913505+1021248306
3604+1023419867+1023385116+1022307477+1021658390+1021366654+1020771637
3595+1020318054+1020976254+1022282568+1022205898+1019164291+1014422812
3587+1012509573+1015594618+1020562403+1024269439+1026023383+1026392154
3578+1026118887+1025876117+1026166882+1026988386+1027507096+1026153880
3570+1021441015+1013838488+1007806793+1008272041+1013744138+1019456939
3561+1023145263+1025302000+1027065178+1028436619+1028507822+1027094096
3553+1025488755+1025006496+1025046229+1023960084+1021635304+1020175041
3544+1021381720+1024403947+1027120706+1028404299+1028480969+1028180119
3536+1028127386+1028296036+1028177203+1027388263+1026169555+1025224722
3527+1024862147+1024675027+1024502853+1024953763+1026380611+1028136256
3519+1029391537+1029997246+1030251680+1030225435+1029597976+1028251808
3510+1026931642+1026703696+1027414630+1027633949+1026531279+1025038574
3502+1024736874+1025876238+1027325323+1028112319+1028346826+1028766509
3493+1029633942+1030381085+1030374523+1029671609+1028908185+1028564808
3485+1028506850+1028344396+1028133461+1028388746+1029239290+1030078655
3476+1030374888+1030297610+1030236614+1030151195+1029814015+1029301744
3468+1028909643+1028854479+1029173190+1029691779+1030127987+1030416321
3459+1030818872+1031540984+1032377433+1032883021+1032830287+1032287640
3451+1031285091+1029821184+1028307093+1027472224+1027571373+1028227142
3442+1029042328+1029786068+1030289226+1030647548+1031129199+1031642077
3434+1031760789+1031359453+1030799431+1030521303+1030723975+1031273062
3425+1031715467+1031560668+1030758240+1029865655+1029538803+1029845485
3417+1030362616+1030865409+1031483754+1032228102+1032839886+1033172813
3408+1033371355+1033567344+1033632472+1033361270+1032821782+1032289584
3400+1031829804+1031283633+1030706357+1030412555+1030542809+1030943780
3391+1031405383+1031727253+1031727739+1031414982+1031042200+1030860427
3383+1030896393+1031008179+1031092382+1031193476+1031393354+1031699306
3374+1032102707+1032583386+1032950578+1032895900+1032366376+1031694932
3366+1031254472+1031131021+1031181933+1031234423+1031229442+1031310486
3357+1031710242+1032432961+1033204526+1033790916+1034100757+1034011328
3349+1033502338+1032951064+1032870627+1033307078+1033776943+1033771475
3340+1033177552+1032294323+1031542806+1031114132+1030937219+1030938434
3332+1031114861+1031323487+1031337947+1031226890+1031346331+1031797970
3323+1032236607+1032386911+1032420811+1032651673+1033142923+1033699665
3315+1033999299+1033746566+1032946326+1032004166+1031407327+1031341349
3306+1031631506+1031981687+1032230775+1032364432+1032339523+1032088856
3298+1031708541+1031392017+1031190195+1031082540+1031198822+1031645844
3289+1032191893+1032437457+1032309268+1032140131+1032229195+1032514371
3281+1032737213+1032749607+1032558234+1032251674+1032006960+1032043291
3272+1032444869+1033014248+1033336968+1033131866+1032650458+1032509510
3264+1032963579+1033599543+1033886420+1033728583+1033356895+1032991526
3255+1032759692+1032758112+1033025912+1033462970+1033829433+1033905618
3247+1033677307+1033317892+1033006228+1032818015+1032741709+1032715585
3238+1032658113+1032541345+1032427858+1032404893+1032486667+1032609024
3230+1032714370+1032815220+1032973421+1033214247+1033468317+1033629920
3221+1033657137+1033531743+1033186422+1032659449+1032241225+1032213643
3213+1032486424+1032724941+1032786788+1032836484+1033058354+1033380468
3204+1033511330+1033255438+1032738914+1032251917+1031956049+1031848881
3196+1031885576+1032028710+1032271723+1032638672+1033027127+1033125426
3187+1032710117+1032016802+1031605261+1031773425+1032227616+1032402342
3179+1032095052+1031730898+1031890193+1032549486+1033104770+1033217649
3170+1033180468+1033226762+1033062850+1032459328+1031763705+1031418384
3162+1031413281+1031516075+1031671724+1031923729+1032214007+1032461637
3153+1032703556+1032996872+1033229678+1033225912+1033041100+1032926034
3145+1032953373+1032914612+1032622876+1032147422+1031745843+1031654835
3136+1031865770+1032083266+1031997847+1031555200+1030914983+1030318873
3128+1030055934+1030292749+1030833453+1031256294+1031353378+1031257631
3119+1031123002+1030879382+1030418751+1029895302+1029642083+1029786311
3111+1030127744+1030404657+1030479505+1030291777+1029904658+1029588620
3102+1029569301+1029710127+1029694452+1029476227+1029282668+1029228597
3094+1029204418+1029162984+1029231513+1029423250+1029492387+1029250711
3085+1028808064+1028340872+1027898711+1027582187+1027545006+1027679027
3077+1027639659+1027296769+1026876600+1026617670+1026496407+1026337233
3068+1026084257+1025896652+1025963115+1026256553+1026525447+1026508314
3060+1026155946+1025692764+1025426908+1025428852+1025475389+1025338087
3051+1025025087+1024713059+1024571625+1024670288+1024951575+1025233349
3043+1025329703+1025237115+1025117310+1025013179+1024746716+1024196414
3034+1023483415+1022821692+1022403224+1022400551+1022788277+1023241374
3026+1023463731+1023507230+1023593864+1023782806+1023938699+1023851214
3017+1023351216+1022493503+1021637977+1021192292+1021270542+1021684879
3009+1022177465+1022547330+1022643320+1022357051+1021648670+1020612099
3000+1019528385+1018666115+1017938657+1017001236+1015739879+1014328826
2992+1012825550+1011204656+1009790566+1009168272+1009625014+1010980295
2983+1012832537+1014705496+1016124204+1016790240+1016686352+1016027545
2975+1015125908+1014215947+1013421660+1012932780+1013004225+1013621356
2966+1014360357+1014774755+1014818922+1014791583+1014943527+1015228641
2958+1015448142+1015585262+1015872199+1016467823+1017195828+1017715025
2949+1017880820+1017855122+1017904696+1018144732+1018428267+1018493941
2941+1018289142+1018059556+1018004939+1018018851+1017937746+1017791999
2932+1017613932+1017327845+1017056218+1017179243+1017873469+1018862591
2924+1019790474+1020573339+1021266532+1021857661+1022355836+1022881351
2915+1023495079+1024069075+1024471261+1024736631+1024968708+1025254248
2907+1025743311+1026563721+1027556428+1028312804+1028554480+1028361042
2898+1028031882+1027850473+1027950473+1028262501+1028549134+1028595306
2890+1028425684+1028279512+1028366389+1028732852+1029289836+1029815108
2881+1030049858+1029969057+1029796396+1029664197+1029514502+1029397977
2873+1029523493+1029908304+1030288132+1030473915+1030561278+1030714133
2864+1030927255+1031078652+1031090195+1030998337+1030911703+1030888859
2856+1030856539+1030754352+1030723003+1030940135+1031341106+1031724701
2847+1032023364+1032270386+1032463581+1032590798+1032633204+1032564674
2839+1032509024+1032727128+1033260298+1033805254+1034069894+1034041340
2830+1033863698+1033685327+1033637575+1033769774+1033974512+1034086419
2822+1034083989+1034101000+1034192251+1034172567+1033830041+1033264794
2813+1032827492+1032698331+1032708052+1032664917+1032663702+1032895171
2805+1033281075+1033540127+1033566737+1033516919+1033536117+1033601488
2796+1033649847+1033700151+1033792738+1033892374+1033947659+1033997841
2788+1034113637+1034257136+1034322020+1034306346+1034331011+1034485567
2779+1034712298+1034860900+1034859928+1034812419+1034850086+1034940730
2771+1034994071+1035069284+1035279976+1035569282+1035799172+1035991273
2762+1036271345+1036633434+1036926872+1037039994+1036984344+1036846313
2754+1036716545+1036614844+1036485440+1036344614+1036336594+1036508769
2745+1036686411+1036746678+1036801720+1036913749+1036908768+1036708768
2737+1036540482+1036582523+1036686533+1036635743+1036461017+1036343885
2728+1036344735+1036322743+1036115939+1035793340+1035665151+1035953120
2720+1036517153+1037000869+1037176567+1037069885+1036817516+1036511320
2711+1036195890+1035949961+1035877908+1035992610+1036179851+1036311807
2703+1036351418+1036334286+1036291030+1036215088+1036111443+1036060046
2694+1036164055+1036386047+1036520433+1036437323+1036290300+1036322621
2686+1036501114+1036553848+1036405124+1036318733+1036513629+1036846313
2677+1037029545+1037022740+1037046677+1037278390+1037641694+1037893576
2669+1037856881+1037570977+1037243396+1037074259+1037098682+1037196737
2660+1037243031+1037236592+1037264538+1037351293+1037389689+1037281184
2652+1037107795+1037016908+1036943883+1036664904+1036167093+1035723231
2643+1035523596+1035487994+1035517277+1035683741+1036070253+1036612657
2635+1037183615+1037674622+1037941085+1037871705+1037598802+1037441816
2626+1037527235+1037655545+1037607186+1037374015+1037077175+1036880578
2618+1036957613+1037301354+1037596736+1037508644+1037076689+1036663325
2609+1036538173+1036636472+1036710591+1036621162+1036488234+1036608768
2601+1037140480+1037792483+1037995398+1037526627+1036804272+1036396375
2592+1036421041+1036579242+1036614236+1036564783+1036637322+1036942911
2584+1037400868+1037836225+1038101716+1038136832+1038017999+1037962227
2575+1038177415+1038651775+1039106452+1039198918+1038832212+1038273162
2567+1037950563+1038120550+1038703780+1039361251+1039710338+1039571700
2558+1039083852+1038580573+1038335738+1038438775+1038837437+1039367934
2550+1039758212+1039793813+1039565503+1039379720+1039375710+1039404264
2541+1039325406+1039234763+1039293450+1039423583+1039321397+1038875347
2533+1038444607+1038486284+1038996610+1039559306+1039836462+1039797094
2524+1039595636+1039431481+1039447399+1039667811+1040020908+1040372426
2516+1040555779+1040512037+1040408149+1040478015+1040725888+1040950796
2507+1041100006+1041375582+1041847634+1042179589+1041965009+1041233177
2499+1040488222+1040275707+1040722364+1041475825+1042115070+1042502189
2490+1042658932+1042614096+1042508264+1042502432+1042529284+1042452736
2482+1042368653+1042425883+1042540949+1042548118+1042452371+1042377888
2473+1042351885+1042213611+1041810089+1041329045+1041247028+1041804499
2465+1042616405+1042954314+1042491253+1041721632+1041445084+1041863065
2456+1042488580+1042856744+1042911786+1042798056+1042699393+1042770961
2448+1042939490+1042945565+1042763792+1042742771+1043158566+1043810811
2439+1044239729+1044226849+1043928065+1043607531+1043436572+1043456864
2431+1043549694+1043513486+1043281651+1042970231+1042686514+1042427584
2422+1042201825+1042133174+1042332080+1042676550+1042889065+1042896477
2414+1042891738+1042960753+1042954192+1042770961+1042469139+1042104984
2405+1041750672+1041606566+1041800125+1042118107+1042178496+1041891984
2397+1041597696+1041670842+1042087852+1042460876+1042460269+1042150671
2388+1041915556+1042056382+1042513732+1043094046+1043900119+1045286870
2380+1047334980+1049576771+1051379317+1052583809+1053725726+1055572257
2371+1058397400+1061740524+1064894706+1067523617+1069711824+1071531866
2363+1072833685+1073529308+1073741823+1073405129+1072078523+1069501618
2354+1065973318+1062163002+1058971153+1057272130+1057461558+1059317932
2346+1062058871+1064523747+1065837595+1065965177+1065389966+1064650965
2337+1064216580+1064319495+1064669677+1064525935+1063361297+1061428010
2329+1059423278+1057746612+1056433736+1055559742+1055272622+1055395222
2320+1055290605+1054432892+1053018680+1051680410+1050650280+1049534730
2312+1047965233+1046174595+1044750663+1044065489+1044085416+1044509351
2303+1044969617+1045238146+1045301329+1045197198+1044927090+1044661234
2295+1044743737+1045209106+1045584803+1045466213+1045034987+1044748962
2286+1044773870+1044953943+1045165485+1045496590+1046038751+1046594521
2278+1046799988+1046610074+1046422468+1046583585+1046995492+1047325867
2269+1047410679+1047285649+1046970340+1046481520+1046024049+1045819918
2261+1045719918+1045419919+1045062448+1045093067+1045579093+1046205701
2252+1046772528+1047180546+1047193304+1046662929+1045790271+1045011658
2244+1044792825+1045371317+1046495250+1047696340+1048864137+1050161946
2235+1051494748+1052512728+1052937393+1052538852+1051219537+1049499979
2227+1048473251+1048788925+1049920999+1050782357+1050841409+1050208604
2218+1048963408+1047275564+1046013964+1046161958+1047586984+1049255509
2210+1050473123+1051058055+1050771421+1049629141+1048453324+1048154297
2201+1048639958+1049056603+1048968754+1048754660+1048935218+1049744207
2193+1051261213+1053205557+1054626087+1054624143+1053375666+1051838854
2184+1050849671+1051022696+1052653432+1054915637+1056181246+1055910287
2176+1055303728+1055471771+1055919522+1055582463+1054526695+1053878216
2167+1054636537+1057020855+1060434817+1063571503+1064791669+1063114517
2159+1059471880+1056434709+1055732159+1056832885+1058152808+1058475528
2150+1057359007+1055167641+1052797539+1050884665+1049454779+1048564745
2142+1048592327+1049458789+1050251982+1050218446+1049665957+1049315897
2133+1049232666+1049059276+1048831452+1048723919+1048394880+1047493060
2125+1046521374+1046264996+1046582978+1046684921+1046402662+1046237049
2116+1046254303+1045916516+1045096227+1044426970+1044390883+1044714697
2108+1044940456+1045036567+1045168523+1045388449+1045804122+1046591362
2099+1047598406+1048360979+1048668026+1048757940+1048953809+1049420393
2091+1050158787+1050936791+1051417349+1051556717+1051635088+1051822208
2082+1052050032+1052364977+1053023298+1054097049+1055238114+1056000202
2074+1056303360+1056450018+1056678329+1056781974+1056254515+1054860594
2065+1053158534+1052289643+1052883322+1054262297+1055150387+1055087204
2057+1054634228+1054233500+1053640428+1052661573+1051638369+1050923426
2048+1050644690+1051149184+1052651245+1054319284+1055039938+1055120253
2040+1055902025+1057780269+1059762645+1060758510+1060559118+1059872000
2031+1059747578+1060782569+1062731165+1064698717+1065565664+1064647198
2023+1062278068+1059555719+1057616965+1057167635+1057896794+1058293147
2014+1057266541+1055725962+1055401176+1056747466+1058864956+1060638341
2006+1061114645+1059868355+1057803720+1056561197+1056865205+1058227777
1997+1059972851+1061568107+1062282564+1061537730+1059604443+1057518666
1989+1056447102+1057230453+1059710883+1062223512+1062756317+1061056808
1980+1058814531+1057530574+1057104816+1057005059+1057604814+1059104202
1972+1060220116+1059269572+1056272984+1053394135+1052866190+1054520741
1963+1056314903+1056910041+1056650139+1056521343+1057047100+1057997158
1955+1058621093+1058280268+1057003480+1055321468+1053763514+1052531440
1946+1051309087+1049632057+1047820155+1046948347+1047319427+1047961831
1938+1048064383+1047852719+1048039838+1048909459+1050002773+1050620997
1929+1050509454+1049833028+1048663166+1047127447+1046052846+1046398896
1921+1047752840+1048715656+1048867904+1049176287+1050213221+1051218322
1912+1051166924+1049880051+1048290627+1047696826+1048528658+1050055385
1904+1051202161+1051331808+1050516866+1049308972+1048186739+1047429026
1895+1047356365+1047873739+1048039352+1047226354+1046333525+1046689782
1887+1048147614+1049654292+1050698153+1051264251+1051400824+1051308844
1878+1051318078+1051440192+1051195600+1050059394+1047850410+1044660991
1870+1041213128+1039493450+1041049459+1044561234+1047582124+1049022824
1861+1049180296+1048853566+1048766932+1049202897+1049865835+1050306295
1853+1050298033+1049663770+1048184066+1045835228+1042873755+1039986036
1844+1038637195+1039869269+1042419200+1044228307+1044548841+1044022597
1836+1043625879+1043305467+1041972178+1039050073+1035808649+1034346564
1827+1034732347+1035545224+1036492244+1038123588+1039958454+1040843506
1819+1040601466+1040087008+1039764409+1039084945+1037452751+1035278031
1810+1033896869+1034088849+1035047777+1035350449+1034078400+1031077680
1802+1027260438+1024387422+1023242103+1022722907+1021356204+1018308948
1793+1013856653+1010461828+1010562921+1012400704+1012567350+1009747492
1785+1004707289+998637867+991907147+984541253+976811265+968525629+958583376
1775+945594838+928945073+910678606+894672095+881102939+866954989+850878247
1765+832867064+811872355+788393389+767867816+754875815+748172373+745013635
1755+743127978+739622947+731899034+719828720+707500448+700149499+699230972
1745+703554166+711408759+720945606+731057299+741589830+752049700+762503920
1735+776412625+798591473+825490478+849643925+871118827+891117306+908373327
1725+922421400+934153866+943556753+949533708+951511709+951163837+953663404
1715+962192356+973086976+982441077+989000170+992670328+993848028+993560848
1706+993503619+994448330+994983565+993573728+991537404+992124644+996343525
1696+1003872662+1012570083+1018697282+1020834821+1020194847+1018509190
1687+1015766732+1010778595+1005784807+1006848413+1013070325+1019243817
1679+1023033113+1024071141+1023225335+1022200794+1021312705+1019385615
1670+1017379728+1018941266+1023902369+1027739416+1028161772+1026860439
1662+1027235529+1029623614+1031151799+1029530419+1023771263+1014264307
1653+1007350173+1009827382+1014025729+1014095413+1012203863+1014462362
1645+1021644296+1028345733+1031767714+1031723729+1028440507+1022843198
1636+1018967208+1022057660+1029308791+1034678276+1036336230+1035206100
1628+1033230529+1031485212+1029794088+1028930178+1030195058+1032251796
1619+1032428952+1030360671+1029369909+1032057142+1035823716+1037639992
1611+1037073044+1035446318+1034039153+1032557627+1029524830+1023655468
1602+1014623418+1003181170+991163468+981574616+977975356+982279413+992625979
1592+1004711481+1015345652+1023696172+1030031268+1034633198+1037765387
1584+1039848977+1041139860+1041230625+1039202320+1034775238+1030447670
1575+1030596394+1034044013+1035801724+1034223357+1032017045+1032688003
1567+1035378517+1037445461+1037788473+1035431008+1028091541+1015317462
1558+1008066452+1013767953+1022298364+1028450349+1031969415+1033545109
1550+1034382409+1034729188+1032931988+1027417546+1018813745+1009439960
1541+1002685850+1004745685+1014939092+1023719380+1027189236+1027300778
1533+1028287288+1031305626+1033066860+1031401737+1027412686+1023465675
1524+1019923645+1016186536+1013975425+1014746444+1016621407+1018912834
1516+1023016709+1027916572+1030124828+1027343427+1019494606+1008618942
1507+1002450735+1009893178+1022036275+1028800409+1029143664+1024242586
1499+1016385199+1010399130+1010751377+1015378823+1018741631+1018123772
1490+1015469285+1016351724+1022857050+1030734546+1036143521+1038502080
1482+1039037679+1038778628+1037355060+1033749847+1027804543+1021043082
1473+1017137931+1019512103+1025702241+1030237707+1030584486+1027475261
1465+1023968590+1022127162+1019941749+1014114854+1003078983+990472522+986330676
1455+991601377+998393761+1003018959+1005031590+1005210143+1005333350+1006712629
1445+1008673984+1009726350+1009145307+1006844646+1002626676+996752272+991817476
1435+990681331+991765653+992241290+991922336+992378470+993877919+994958778
1425+995096505+995290429+995747658+995133504+993571723+994462850+999369274
1415+1005341431+1009689291+1011929928+1012792501+1012745356+1011259881
1407+1007773744+1003167987+999179664+995867341+991814316+986838816+982537067
1397+980013199+978781915+977745831+975332412+969581701+959016910+943982207
1387+927932804+914773915+904334215+893918087+881983313+868718592+854764930
1377+840418924+826330572+814618580+807561312+804896132+804843884+806275775
1367+808123096+808933482+808845815+811059964+819185637+833004913+849664824
1357+866943324+883686406+899094863+912413108+923158093+931325928+937106044
1347+940409132+940566543+936147967+925122849+906201341+881964966+860860415
1337+852036141+857955442+874986434+897646265+921008221+941954996+959420433
1327+973446695+984249395+992073611+997358284+1000705358+1002805473+1004336148
1317+1005646047+1006654549+1007223502+1007062446+1005266583+1001387008
1309+997474505+997344311+1002646299+1010778352+1017592243+1020875282+1020665562
1299+1017739326+1012831018+1006847562+1001169998+997373473+996329551+997518612
1289+999379116+1000515747+1000793328+1001351285+1003429347+1007152543
1281+1011483939+1015188848+1017644551+1018828387+1018852810+1017733797
1272+1015603914+1012838491+1009638501+1005669133+1000484459+994188185+987359835
1262+980399407+973173974+965217255+956050456+945358326+933055388+919257619
1252+904234944+888572904+873434616+860426151+851009109+845967145+845173769
1242+847568355+851434442+854996035+856902408+856285520+852625143+845818846
1232+836453809+825728569+814686198+803433500+791339188+778027261+763921595
1222+749767083+735957163+722602770+709999893+698557584+688283436+678816820
1213+670148317+663070211+658856798+658708378+663516625+673861368+689909130
1203+711138650+735983590+761358784+782453432+794091609+793679885+782816493
1193+765950203+749112710+740311888+747187808+769912888+797184673+813180127
1183+809603589+789617626+761158481+730045577+700683276+679559284+673401527
1173+683557084+704663701+729463015+753679950+776528663+798400040+819092320
1163+837850098+854207884+868243684+880103064+889645987+896583753+900660593
1153+901613689+899170501+893365537+885053960+876119784+868931714+865128870
1143+864534948+865184763+864699771+862122379+858846873+857879865+861886475
1133+871482070+885031785+899817461+913376532+924180507+931671492+936044504
1123+938057074+938805370+939239208+939607737+939431735+938148872+935818806
1113+933306542+931893059+932567176+935404287+939446984+942998310+943851527
1103+939592731+928717553+912304785+894477381+880521289+873955270+874893117
1094+880657436+887721509+893461224+896786304+897631016+896124459+892370219
1084+886805291+880306040+873758005+867663067+862096255+856767779+851156010
1074+844922494+838423487+832824659+829562275+829415617+831903823+835590871
1064+839059572+841729126+843956823+846419148+849156138+851064698+850413850
1054+845951227+837647547+826697582+814965723+804104032+794712506+786153542
1044+777239110+767166724+755982312+744608654+734825453+729001352+729240902
1034+736397198+749722368+767232763+786382946+804744066+820341830+831494043
1024+836781268+835685707+829161061+819193717+807772003+796225320+785112779
1014+774485292+764537692+756242457+751243202+751024855+756105459+765795526
1004+778547004+792568042+806307245+818733269+829509845+838883449+847201163
994+854500957+860457378+864400197+865250316+861627909+852300478+837016930
984+817484610+797539168+781797116+773647749+774071684+781719169+793813056
975+807406270+820339643+831182562+838505321+840691949+836644938+826557181
965+812054250+795735711+780441227+768681118+762452097+762924271+769409427
955+778638924+786247588+789818962+790011367+788236342+783992309+775376358
945+762002524+746694431+734050850+727289754+726215152+728078329+730508516
935+733634205+739406240+749264654+762741282+777945548+792920167+806639808
925+819125795+830897265+842436658+854059221+865924737+877958478+889854188
915+901179486+911436805+920157920+927074301+932160008+935558965+937489578
905+938009747+936815704+933587221+928681526+923225346+918267828+913913286
895+909624295+905570420+903354388+904984820+911300414+921611803+934383331
885+947851879+960482094+971396701+980340294+987272654+992295056+995817038
875+998406337+1000496792+1002385365+1004318773+1006399143+1008506974+1010408122
866+1011800037+1012200522+1011129626+1008724105+1005957771+1003869139
857+1002627344+1001532755+999768180+996970376+993206718+988572103+982843810
847+975466008+965755164+953092689+937010297+917169898+893443301+866395209
837+837895177+811059599+789228623+774539058+767038049+764959076+765930641
827+768238592+771402434+775693307+780576889+783302518+779737098+767410405
817+747787441+725610415+706329917+693738948+688973471+691152139+698978239
807+711755598+729011498+749458396+770168780+786513929+793746288+790173213
798+779308241+768146612+762709205+765074446+773908015+786763017+801722873
788+817677136+833866150+849513427+863924500+876807692+888333475+898798327
778+908226669+916428284+923513073+930019189+936281624+942060524+947100362
768+951703750+956446445+961558032+966805161+971902471+976814303+981534397
758+985765368+989108189+991470514+993048031+993967955+993980045+992277741
748+987568036+978683799+965763669+951309948+939780094+935248152+938894313
738+948698778+961402990+974460847+986515123+997032830+1006032923+1013946385
728+1021299947+1028331759+1034875481+1040559303+1045072047+1048267784
720+1050055020+1050320633+1049005327+1045998775+1040965255+1033803796
711+1025373445+1017157007+1010144392+1004631652+1000857058+998523651+995066554
701+985158080+963117809+927429586+884677837+848539737+831618283+836157455
691+853496586+872457341+887054136+897196935+905076497+912217726+918343162
681+920948197+915758420+899391460+873389598+845212469+823966424+814374109
671+815078967+823022988+836364562+851044285+861806098+867959177+870404066
662+870428550+871813843+879197599+893827322+913024467+933179932+951737833
652+967089668+978445707+986077579+991210673+995446990+1000070913+1005670166
642+1012032661+1018179726+1022786090+1025048902+1025523749+1026241972
633+1029430541+1035519464+1042778737+1049165837+1054071654+1058114169
625+1061707596+1064311962+1065213782+1064481099+1062427521+1058546124
616+1052130348+1043946412+1036167458+1030429323+1026420951+1022402981
608+1016889146+1009609279+1001295878+993536364+988690146+988552662+992582297
598+998350869+1003998057+1009358854+1014700514+1019304570+1021683421+1020536523
588+1014309446+999942906+973778893+935287520+890634015+852199871+831838331
578+832632496+847908390+867183846+882710771+892221191+897412609+901233860
568+905763494+910812323+913801804+911224290+901010775+883795640+861087328
558+832333834+795767120+753305285+713327039+686706953+679806610+691486950
548+715799207+746345587+778484915+809483116+838123184+863840053+885838587
538+903316114+916083996+924090107+926131473+919538602+902807063+880059868
528+861712782+858427676+871812932+891082252+902849043+902160649+893550591
518+886035670+885301954+888332260+887564280+879091585+865730630+854791175
509+853317850+863370796+880872442+899964241+917755497+933863527+947685111
499+958159137+964866831+968193492+968875628+967342765+963619569+958428881
489+953857145+952086130+953702954+957480403+961499770+963538828+960026446
479+946742101+923272248+896458420+877522027+875510065+890660746+914207817
469+938055494+959262718+976256164+988011777+995832469+1001685853+1006014333
459+1009768148+1016255977+1026555337+1036630397+1043121628+1046086746
450+1045187478+1037352752+1020628989+999086529+981753777+976705190+986046352
441+1004557897+1024364822+1040459303+1051157811+1056567029+1057723161
432+1056432278+1055296438+1056159861+1057414657+1054115153+1042306077
424+1024021688+1006154429+995221110+996843158+1011731447+1030155569+1043513486
414+1049876284+1051291347+1051825003+1053334354+1054229369+1053196566
405+1049891716+1042242530+1027874653+1008128603+989111956+979654452+983623394
395+995374633+1009116388+1022273334+1032494444+1037964171+1038848737+1036958707
385+1034771229+1034331619+1035600631+1037294915+1039019453+1040614224
377+1040852619+1038736465+1036267943
##END=
