##TITLE=X7730
##JCAMP-DX=4.24
##DATA TYPE=INFRARED SPECTRUM
##DATE=30/10/2018
##SAMPLING PROCEDURE=Diamant-ATR
##ORIGIN=ComPlat
##XUNITS=1/CM
##YUNITS=TRANSMITTANCE
##RESOLUTION=4
##FIRSTX=3997.453
##LASTX=373.96442
##DELTAX=-1.4165319
##MAXY=0.98172915
##MINY=0.19216117
##XFACTOR=1
##YFACTOR=9.1430652e-010
##NPOINTS=2559
##FIRSTY=0.9467805
##XYDATA=(X++(Y..Y))
3997+1035517610+1036132753+1036203160+1035624784+1034917917+1034435829
3989+1034163982+1034123499+1034429310+1034988910+1035575500+1036149638
3980+1036716996+1037011008+1036761847+1036164762+1035669179+1035406590
3972+1035174901+1034946927+1035012966+1035494533+1035987768+1035987703
3963+1035580650+1035394008+1035824856+1036621426+1037262515+1037376078
3955+1036845879+1035915537+1035135395+1034958336+1035380709+1035939201
3946+1036088619+1035779744+1035621525+1036161894+1037051491+1037608680
3938+1037828765+1037966644+1037833068+1037275749+1036807872+1036920588
3929+1037210167+1037092431+1036687595+1036475724+1036608257+1036743007
3921+1036456297+1035673221+1034782450+1034371942+1034664454+1035435143
3912+1036526312+1037871400+1038926387+1038732900+1036955661+1034571557
3904+1033196546+1033429474+1034540070+1035932160+1037321709+1038109217
3895+1037844998+1036780492+1035813121+1035889786+1036813544+1037434880
3887+1037136631+1036100679+1034736947+1033379407+1032690272+1033536062
3878+1035499878+1037056055+1037373796+1036441564+1034718889+1033355287
3870+1033796109+1035906931+1037724524+1038171735+1037707249+1036961006
3861+1036083143+1035191981+1034497956+1033986532+1033541212+1033379864
3853+1034083536+1035496553+1036775342+1037682672+1038246705+1038390777
3844+1037971794+1036924564+1035449094+1034075257+1033557705+1034435699
3836+1036273501+1037995002+1038903896+1038907678+1038353553+1037770549
3827+1037528169+1037560634+1037449939+1036997578+1036508189+1036247946
3819+1035971992+1035856082+1036762825+1038716081+1040277538+1040403031
3810+1039253973+1037700143+1036977174+1037568131+1038151135+1037451504
3802+1036055763+1035637497+1036681662+1038379369+1040111953+1041306319
3793+1041549808+1041177371+1040811844+1040653169+1040535043+1040353421
3785+1040098523+1039674064+1039037082+1038434912+1038264828+1038521225
3776+1038691569+1038518552+1038310332+1038484131+1038989166+1039109379
3768+1038312483+1037298501+1037256452+1038249899+1039160423+1039169029
3759+1038448406+1037567675+1036672862+1035551249+1034187255+1033006710
3751+1032684535+1033055277+1033025876+1032400563+1031959089+1032205185
3742+1032433289+1031779813+1030134129+1027936146+1026350829+1026812447
3734+1029171713+1031797350+1033961368+1035741542+1036970133+1037373210
3725+1037019743+1036374352+1035940179+1035944873+1036329370+1036932061
3717+1037545444+1037767811+1037178875+1036012737+1035564743+1036847313
3708+1038958331+1040382561+1040407464+1039249279+1037974923+1037807056
3700+1038749133+1039809401+1040483672+1040860086+1041089298+1041341522
3691+1041898254+1042878337+1043670800+1043333371+1041859204+1039917683
3683+1038090703+1036766867+1036178909+1036278455+1036832515+1037832481
3674+1039056704+1039485662+1038693655+1037717744+1038348077+1040561511
3666+1042494752+1043025799+1042369781+1041413493+1040632634+1039769504
3657+1038851939+1038611123+1038983234+1038706498+1037246804+1035605227
3649+1035211473+1035909148+1036854093+1038072449+1039421644+1040353290
3640+1040659493+1040722467+1040807477+1040598669+1039725304+1038278518
3632+1036506103+1034580684+1033342509+1034079755+1036071995+1037644665
3623+1038348012+1038540652+1038732835+1039189433+1039600007+1039480577
3615+1038987667+1038749328+1039048360+1039534490+1040071339+1041085451
3606+1042404398+1042956305+1042287836+1041083365+1040176231+1039643620
3598+1039039494+1038190184+1037427318+1037188523+1037285658+1036924043
3589+1035799040+1034972482+1035977599+1038379499+1040313784+1040871559
3581+1040405508+1039879286+1039927071+1040241292+1040251462+1040008364
3572+1039760312+1039253973+1038234254+1037307953+1037604508+1039049664
3564+1040324541+1040850111+1041014980+1041348432+1042021204+1042705646
3555+1042794306+1041978504+1040782965+1040194419+1040502643+1041123979
3547+1041461213+1041303972+1040810345+1040596518+1041309448+1042744304
3538+1043862462+1043960705+1043361338+1042670703+1042056342+1041532793
3530+1041193408+1040966347+1040659493+1040399902+1040705061+1041921788
3521+1043550001+1044425582+1043900598+1042596581+1041639771+1041375943
3513+1041307623+1041044707+1040772404+1040825795+1041127956+1041225808
3504+1040871168+1040425457+1040471808+1041034993+1041598375+1041774391
3496+1041644009+1041562911+1041734950+1041985219+1042039523+1041939585
3488+1041965596+1042197155+1042436211+1042537322+1042534910+1042452313
3479+1042204261+1041809724+1041586706+1041893234+1042593908+1043075931
3471+1042963346+1042454073+1041880978+1041350910+1040901026+1040615293
3462+1040455445+1040264304+1040054454+1040130597+1040793852+1041914226
3454+1042917517+1043363098+1043466426+1043802356+1044503616+1045044898
3445+1044973905+1044551858+1044347223+1044412609+1044105755+1042870188
3437+1041112897+1039982614+1040131184+1041038449+1041761157+1041985806
3428+1042082354+1042418479+1042836158+1042701213+1041525687+1039625366
3420+1037892391+1036795551+1035888156+1034290779+1031372434+1027069300
3411+1021889868+1016843164+1013264955+1012178676+1013480999+1016039162
3403+1018772886+1021336330+1023760657+1025979110+1027862937+1029405293
3394+1030762767+1032169265+1033754908+1035448051+1037073852+1038433217
3386+1039310363+1039647988+1039777653+1040184902+1040863085+1041224700
3377+1040951353+1040542996+1040536347+1040636415+1040183011+1039142170
3369+1038221215+1038215022+1039244846+1040508054+1041155858+1041451108
3360+1042282621+1043596612+1044324015+1043858941+1042650559+1041360753
3352+1040339861+1039866443+1040088745+1040664512+1040999529+1040879839
3343+1040512878+1040057779+1039510760+1038960156+1038598150+1038536871
3335+1038829187+1039554178+1040679702+1041918137+1042872470+1043323918
3326+1043350842+1043229391+1043222350+1043351363+1043353776+1043028733
3318+1042564116+1042301200+1042331905+1042581196+1042951938+1043114003
3309+1042640911+1041665782+1040930231+1040972280+1041637946+1042364957
3301+1042669204+1042418218+1041768524+1040904742+1040032224+1039571584
3292+1039908882+1040865823+1041795708+1042266518+1042360785+1042311174
3284+1042185486+1042071532+1042275580+1042948091+1043610824+1043557107
3275+1042786743+1042058037+1041948842+1042370955+1043011066+1043636053
3267+1043905031+1043536180+1042860279+1042643975+1043110287+1043608282
3258+1043494849+1042899915+1042304655+1041743164+1040889748+1039799948
3250+1039087996+1039223985+1039946824+1040564705+1040731464+1040776120
3241+1041179522+1041806139+1041942584+1041264988+1040380475+1040055367
3233+1040319391+1040674030+1040747696+1040494624+1040153805+1040133922
3224+1040571094+1041028214+1041005331+1040633938+1040464180+1040674291
3216+1040947963+1041068762+1041160160+1041301690+1041344651+1041213291
3207+1041074108+1041138321+1041469622+1041939259+1042316716+1042512941
3199+1042695215+1043030688+1043411991+1043555868+1043306251+1042818166
3190+1042425520+1042212475+1041876871+1041284480+1040885054+1041155793
3182+1041894342+1042489146+1042655449+1042513853+1042129096+1041452803
3173+1040669663+1040149242+1040032028+1040224538+1040681593+1041299017
3165+1041789059+1042060384+1042339989+1042628199+1042535823+1041850860
3156+1040789158+1039758161+1039255277+1039667480+1040800175+1041947278
3148+1042560595+1042541495+1042025442+1041226199+1040332559+1039464344
3139+1038881797+1038971239+1039712592+1040485758+1040682179+1040253222
3131+1039606396+1039229591+1039372164+1039828371+1040104912+1039935676
3122+1039529731+1039264468+1039252669+1039270792+1039094320+1038778730
3114+1038463205+1038026359+1037245957+1036264505+1035579933+1035438925
3105+1035439968+1034982978+1034040380+1033150195+1032577101+1031951136
3097+1030921638+1029687049+1028585906+1027571728+1026413804+1025155942
3088+1024101671+1023387242+1022659449+1021248713+1018730055+1015300938
3080+1011593195+1008234875+1005671887+1004271648+1004312458+1005710285
3071+1007850052+1009900573+1011330149+1012123264+1012701965+1013640456
3063+1015115861+1016614865+1017494749+1017670635+1017410131+1016821651
3054+1016060545+1015627350+1015866536+1016384088+1016378873+1015455311
3046+1013853435+1011945813+1009849529+1007703372+1006010686+1005301863
3037+1005593071+1006510832+1007774431+1009270501+1010904190+1012637361
3029+1014482334+1016385132+1018285517+1020175603+1021969922+1023551393
3020+1024945048+1026091629+1026624632+1026394898+1025950621+1025923045
3012+1026211255+1026254803+1025778777+1024902935+1023847622+1022769035
3003+1021656810+1020346794+1018677446+1016473400+1013439407+1009342407
2995+1004153391+997823922+990126093+980778015+969491807+955993860+940148186
2985+921775314+900302279+875064654+846337155+816389995+789804870+772001703
2975+765879020+769144638+775199130+776744420+768628585+748503246+717090720
2965+679262870+644094685+621641959+617774757+631394351+656306020+685467563
2955+714046818+740086749+763485464+784415131+802431212+816820647+827333494
2945+834251768+837873329+838032330+833943284+824512610+809183119+788844149
2935+765955294+743654854+724556535+710014683+700130344+694361453+692281140
2925+693892860+699354114+708493514+720500476+733959438+747375962+759926551
2915+771657494+782947940+793966213+804549336+814281910+822778461+830179476
2905+837205968+844467930+851911059+859096747+865720880+871642643+876654013
2895+880473364+882894170+883857630+883444383+881844333+879365833+876514961
2885+873901384+871777524+869680717+866702266+861952117+854533175+843368091
2876+827664599+807952898+786873487+768867771+758415813+757776158+766129419
2866+780729356+798539825+816996598+834176407+848950340+860975098+870437064
2856+877841534+883881359+889167640+893996018+898526474+903178315+908592370
2846+915143815+922609955+930265476+937266544+943217774+948445122+953444627
2836+958143927+962093725+965216314+967855119+970188048+972056555+973365788
2826+974346718+975349683+976519277+977735416+978799074+979620547+980323633
2816+981219620+982554929+984255374+986036785+987694921+989152790+990389269
2806+991466617+992456283+993250246+993612773+993499080+993226516+993290077
2796+994008874+995322670+996874740+998245904+999208321+999898629+1000689984
2786+1001787998+1003046316+1004205805+1005146056+1005885714+1006492578
2778+1007016910+1007454212+1007778668+1007977892+1008071833+1008188264
2769+1008515002+1009089400+1009804547+1010614220+1011427805+1011895030
2761+1011704737+1011033529+1010388659+1010121180+1010270337+1010687430
2752+1011176950+1011622857+1011998553+1012225092+1012123981+1011591043
2744+1010742386+1009841054+1009139728+1008831961+1009087379+1009985843
2735+1011377217+1012906209+1014229849+1015130790+1015487906+1015373822
2727+1015143372+1015122510+1015214234+1015101388+1014795838+1014650136
2718+1014839451+1015118664+1015071335+1014444979+1013349964+1012265315
2710+1011767516+1012174308+1013399770+1015009730+1016426658+1017290310
2701+1017658705+1017780417+1017808840+1017885896+1018262961+1019040691
2693+1019930940+1020573725+1020987623+1021388613+1021708180+1021727803
2684+1021602636+1021766461+1022312436+1022892572+1023218527+1023293171
2676+1023190756+1022952157+1022707169+1022635589+1022771643+1022988598
2667+1023129020+1023059592+1022731094+1022306569+1022059039+1022049456
2659+1022089809+1022052063+1022024292+1022199460+1022723336+1023488745
2650+1024057537+1024094370+1023850425+1023859291+1024238051+1024643279
2642+1024789959+1024684806+1024421368+1024004145+1023415209+1022789049
2633+1022453966+1022688459+1023406799+1024207020+1024803649+1025283325
2625+1025784514+1026115424+1026024417+1025754200+1025872913+1026544708
2616+1027441020+1028360932+1029371068+1030326182+1030897713+1031157434
2608+1031546299+1032220831+1032918767+1033417935+1033695584+1033720357
2599+1033444990+1033007818+1032766937+1033016489+1033630719+1034124020
2591+1034162548+1033835484+1033357960+1032806052+1032239150+1031803934
2582+1031603341+1031590629+1031641217+1031683591+1031702432+1031626028
2574+1031427912+1031390362+1031871016+1032669150+1033198502+1033530651
2565+1034515036+1036368158+1037867097+1037673871+1036016061+1034272460
2557+1033313564+1033055082+1033227903+1033695584+1034199577+1034432048
2548+1034289345+1033819969+1033220080+1032969551+1033522632+1034711196
2540+1035767227+1036019842+1035438142+1034536745+1033879749+1033648190
2531+1033663641+1033719183+1033691282+1033446554+1033032004+1032831607
2523+1033052474+1033286510+1033172686+1033180966+1034026494+1035548837
2514+1036834405+1037344982+1037451830+1037861100+1038776057+1039688080
2506+1039929939+1039318773+1038183144+1036896858+1035620612+1034457538
2497+1033595190+1033186768+1033237226+1033627394+1034098987+1034327025
2489+1034289345+1034411708+1035037673+1035995591+1036933104+1037697926
2480+1038188620+1038304138+1038209872+1038207395+1038261503+1038064822
2472+1037611483+1037359911+1037715202+1038498929+1039083042+1039114138
2463+1038965567+1039227375+1039835477+1040099501+1039631168+1038789877
2455+1038055826+1037493292+1037094257+1037105274+1037621979+1038272195
2446+1038631202+1038616273+1038319002+1037852690+1037444463+1037271055
2438+1037169357+1036916481+1036775081+1037248108+1038256288+1039079587
2429+1039234937+1038964785+1038775535+1038895943+1039220660+1039453001
2421+1039368122+1039136824+1039142626+1039360756+1039306126+1038706889
2412+1037846953+1037207559+1037043473+1037269491+1037611874+1037959929
2404+1038441366+1038996077+1039200842+1038847832+1038396840+1038554016
2395+1039579537+1041131541+1042637586+1043776931+1044631195+1045267721
2387+1045265961+1044026613+1041588466+1038736160+1036170303+1033925644
2378+1031734245+1029581504+1027657650+1026012748+1024409830+1022363872
2370+1019462282+1015806821+1011882448+1008107622+1005066458+1003633166
2361+1003935457+1004813256+1005227480+1005518102+1006576544+1008547858
2353+1010857578+1012924919+1014479791+1015443577+1015812493+1015745607
2344+1015650102+1015852651+1016225870+1016509907+1016841404+1017692213
2336+1019246238+1020974324+1022103695+1022518375+1022742502+1022984426
2327+1022891073+1022386494+1021997237+1022217323+1023112005+1024656708
2319+1026845173+1029212197+1030877373+1031393230+1031211543+1031117407
2310+1031436582+1032008504+1032696791+1033515722+1034295603+1034709241
2302+1034772606+1034917135+1035400592+1035990832+1036274283+1035998069
2293+1035275816+1034772867+1035321059+1036987995+1038930299+1040403813
2285+1041404301+1042170753+1042749715+1043246341+1043873283+1044528389
2276+1044781852+1044413066+1043678949+1043046074+1042817709+1042959043
2268+1043205270+1043396411+1043707698+1044372191+1045150377+1045397712
2259+1044878400+1044111948+1043587420+1043198490+1042848479+1042786678
2251+1042934271+1042881857+1042804997+1043226262+1043785080+1043532269
2242+1042605903+1042369520+1043445695+1044613985+1044507658+1043733644
2234+1044055101+1045900857+1048054836+1049426000+1049881751+1049827382
2225+1049879078+1050443047+1051308915+1052021584+1052282022+1051865907
2217+1050979439+1050516908+1051020640+1051888790+1052285543+1052183584
2208+1052099552+1052295060+1052335349+1051264585+1048519453+1044707078
2200+1041273462+1039525689+1039825177+1041417535+1043184931+1044575261
2191+1045594198+1046318275+1046791758+1047060737+1047214392+1047761998
2183+1049650258+1053177813+1057191433+1060043544+1061039403+1060343553
2174+1057994718+1054136187+1050081432+1047832860+1048193041+1050086908
2166+1051865777+1052738686+1053160733+1054085599+1055381207+1055463348
2157+1053717204+1051829074+1051326321+1052032536+1053039217+1053579390
2149+1053116403+1051435581+1048721219+1045548695+1042918625+1041508150
2140+1040607275+1039088518+1037845128+1039582275+1045361857+1052808506
2132+1058506533+1060870623+1060353853+1058328757+1056209721+1054889340
2123+1054633204+1055319471+1056456730+1057290785+1057503112+1057537468
2115+1057716743+1057490530+1056223802+1054409338+1053404157+1053989116
2106+1055553703+1056754327+1056950617+1056815672+1057244564+1058020794
2098+1058306462+1058156522+1058450013+1059386092+1060184943+1060318976
2089+1060109974+1060030701+1060091329+1060014534+1059563151+1058658494
2081+1057598030+1057101078+1057620000+1058649432+1059310470+1059492809
2072+1059683233+1059991652+1060236901+1060632871+1061549393+1062814557
2064+1063722799+1063592026+1062216689+1060037220+1058002476+1057182893
2055+1058110432+1059802272+1059767199+1056391930+1051515245+1049213347
2047+1051222667+1054963332+1057137260+1057628540+1058525895+1060323866
2038+1060904197+1058737897+1055465629+1053810688+1054138274+1055133676
2030+1056566772+1058745719+1060591019+1061006807+1061070173+1062496033
2021+1064801451+1065873714+1064683781+1062139568+1060092437+1060361024
2013+1063369333+1067038353+1068707767+1068536314+1068777260+1069872601
2004+1070276786+1069666597+1069348073+1070127759+1071479301+1072087208
1996+1070846752+1068146341+1065996338+1066061530+1067815235+1069373694
1987+1069368804+1067329040+1063483417+1059019718+1055942437+1056002217
1979+1059583099+1065130861+1069567898+1070606001+1069026029+1067387386
1970+1066763898+1066364147+1066008725+1066812531+1068997932+1071119772
1962+1072054417+1072321765+1072949882+1073741823+1073299371+1070588073
1953+1066325032+1062923817+1062645777+1065375132+1068652876+1070303971
1945+1070244842+1069457529+1068608872+1068161465+1068549352+1069675789
1936+1070751638+1070893689+1069893658+1068344848+1067151394+1066954191
1928+1067588044+1068040862+1067620379+1066994023+1067136335+1067710212
1919+1067860673+1067702650+1067788702+1067924691+1067564771+1066780783
1911+1066279333+1066507241+1066936459+1066790692+1066080826+1065168477
1902+1064097452+1063007848+1062338336+1062245178+1062562919+1063200618
1894+1063900510+1063949077+1062557964+1059485964+1055411586+1051147632
1885+1046515870+1041150577+1036166196+1033860452+1035544730+1040298856
1877+1045906463+1050727215+1054469966+1057412236+1059492549+1060308089
1868+1059727106+1058343621+1056943512+1055737737+1054554845+1053492621
1860+1053054080+1053640865+1055282116+1057767788+1060600732+1062994745
1851+1064275489+1064289440+1063498737+1062630913+1062014857+1061526446
1843+1061241300+1061366923+1061777301+1062317083+1062891221+1063154854
1834+1062792131+1061918440+1060885878+1060278558+1060756017+1062091196
1826+1063322591+1063894903+1063846336+1063294689+1062373604+1061417055
1817+1060775249+1060497730+1060288271+1059767785+1058774273+1057412887
1809+1055997524+1055001664+1054629032+1054447344+1053947655+1053204411
1800+1052503802+1051811342+1051025985+1050098055+1048970706+1047920086
1792+1047501689+1047733053+1048083585+1048125177+1047505797+1046018527
1783+1043752941+1040797893+1037182265+1032987804+1028129829+1022443536
1775+1015704536+1007263724+997140198+987388914+979314931+972104861+965290827
1765+958848317+952041519+944663908+938415928+934900759+933931367+934401134
1755+934763075+933821716+931141384+926746200+922203815+920137127+920657156
1745+921611880+921187877+917999380+910756649+900327899+890005606+881517400
1735+873774718+864702921+852345427+833676326+803173803+756064566+692471890
1725+616828965+538555286+471844716+424598968+392862279+369308019+351596935
1715+340489447+332387400+322183136+307251245+286970588+262355538+237139508
1706+218051311+210171500+214521962+232607749+262542572+293061523+319871785
1696+347267366+372676280+392741317+411532651+433450256+456718523+478051658
1686+501414028+534103223+569470306+595697597+614944551+631458369+645076919
1676+653047900+653468252+649854123+650937012+665698688+692821966+718176022
1666+734997998+747379743+759542641+771441190+780981320+787715560+792547655
1656+796934950+804190328+817503458+829211779+832721929+831587147+828294997
1646+822854670+816971304+814035162+815363235+819266617+821647852+816815888
1636+800147242+778294208+765085579+762884989+769013604+782345183+800291249
1626+818396837+834801786+849848999+862065093+869748125+874085549+877548761
1616+881070645+882654593+880140368+872440256+857540831+832058023+793059144
1606+740342494+677607733+613330746+560129791+529087095+522977776+536802950
1596+563318613+596282492+630789899+663605011+693581442+720658760+744529849
1587+764776639+781675018+796122213+808749011+819245886+826615870+829261520
1577+824506351+812122911+797907080+787229626+783491308+789715884+803796835
1567+819924786+835609243+849421737+859442456+866746010+877480702+895124998
1557+909539401+917582092+923271906+927718330+930220755+930667510+930009536
1547+929559717+930350029+932629110+935720081+939964673+947069003+954367994
1537+958279655+959593647+960630316+962927911+965766266+967854663+969300406
1527+970753841+972110663+972705793+972813423+973770038+975896245+978232629
1517+980761196+983814095+986631133+988283140+988517176+987317530+985131477
1507+984217628+986334578+988141350+987066805+982775992+974996478+963332487
1497+947627756+929055725+908822495+883577177+845163976+789501601+733015602
1487+702431525+701201238+716596833+739325774+765119218+790446285+812108374
1477+828957860+840941418+846836453+843219064+827210804+801781648+772506217
1468+742978887+716761440+697416373+683489730+669521429+652508639+632934491
1458+616499098+612605560+618266364+623751216+626349212+629146301+638702794
1448+659553254+686938274+710661509+724954005+729608128+726967302+718972136
1438+704797440+684561863+665717529+655242362+653054549+657558602+667580625
1428+681254132+697687503+717314391+738703199+758610278+776624077+795476886
1418+815282137+832435805+845937598+857365272+867804452+877396866+885702146
1408+892374390+897799202+902412254+905454136+905312737+900981179+893291042
1398+885587932+881146723+878861645+873261664+859521467+836881121+806391049
1388+769907439+733695349+708183139+699820100+708232359+729813676+759460174
1378+790980852+818969541+840677524+855517039+863508359+864732713+859020408
1368+845794830+824317036+793082287+751952507+710932574+690700582+700942299
1358+730585473+763853142+792478161+815891152+836094069+853949519+869221316
1349+881696154+891632189+899601475+906048092+911203991+915522510+919814170
1339+924577423+929406975+933560691+936628649+938315860+938166442+936065985
1329+933060414+931177043+931982740+935354228+939743805+943461784+945594315
1319+945985462+944742398+941772487+936542857+928021729+914893546+896406850
1309+873650660+849844957+828282089+809535151+791954025+775694518+765093793
1299+765717411+779117181+801099684+825008062+846115896+862993154+875987304
1289+885572938+892066166+896127246+898894152+901463919+904298559+907061162
1279+909024913+909795146+909631712+909086193+908686702+909126611+911171591
1269+914798106+918734345+921319758+921611423+919431889+914725353+907053013
1259+895158115+877027493+851791302+822398853+795207908+775480495+763785473
1249+757782677+756560474+761751250+774741293+794102267+816094744+837067698
1239+855087104+869835155+881724186+891241564+898722438+904392955+908554494
1230+911600222+913692205+914565635+913934520+912092350+909951800+908477112
1220+908152396+908966698+910739178+913228761+915866849+917647414+917554125
1210+915014867+909726891+901066775+887736043+867616376+837268552+791491103
1200+725172591+638793671+543859984+461202041+410652343+400145885+423211929
1190+465348195+512783421+557703835+598432689+636236355+671810875+704065800
1180+731305965+752696989+768337507+778435608+783235954+784035327+783705591
1170+785561516+791503424+800968063+811161473+818074337+817490420+805986343
1160+783110266+754393718+731024665+723407281+733712886+755303199+778961895
1150+798741070+813050320+822780547+829451683+834265067+837860878+840557442
1140+842654705+844493550+846371119+848509843+851067681+854060213+857218461
1130+860059163+862328726+864408192+867100258+870949466+875825956+880998739
1120+885315889+887354154+885726658+879423787+867764621+849860864+824278704
1111+789878079+747285150+698681016+645593363+588338761+529259525+475612077
1101+437115919+420187682+425034477+447380583+481582929+522493797+566070460
1091+609464457+650861260+689097207+723251149+752557220+776670559+795891567
1081+810998300+822686346+831030415+835759052+837584533+839006937+842493813
1071+847042913+847454921+838708362+821921981+805134426+795963147+792543157
1061+784062708+763031669+735906762+718180259+718961835+732949563+746503965
1051+746887941+724671598+673707871+596379170+509362909+438444351+403222612
1041+406382261+436876733+480582311+527396592+572195881+613308581+650764516
1031+684773277+715147243+741689473+764537518+784097715+801010567+816137901
1021+830238083+843641242+856395033+868513927+879771517+889349132+895763610
1011+896753537+888731642+865987837+820949329+748362564+653774520+558549950
1001+491598596+471287821+494432974+542494947+596385493+645365911+686307680
992+719423323+745669780+766124465+781863225+793693845+801933673+806484468
982+807159522+804057599+797801405+789495929+780561620+772784061+768297153
972+768797626+774378309+783405190+793812036+804373254+814694765+824379294
962+832502626+837884412+840046475+840105016+840218775+841357793+841351796
952+834873300+815111988+777429318+725267444+673327285+640853775+638109034
942+659590283+689877153+711772105+708516983+668184229+596177403+520936578
932+477262683+480232333+517960865+567853893+614363959+652748999+683716725
922+708790720+729147618+746050627+760977171+775038043+788603985+801570885
912+813625762+824340114+833442095+841030143+847430018+852987624+858006882
902+862704422+867121706+871071309+874335231+877052005+879682922+882391351
892+884751725+886280326+886863069+886319571+884065524+880079545+876132811
882+875036427+878239461+884688946+892105737+898790237+904304556+909064289
873+913454127+917363637+920627820+923523283+926514185+929789255+933134602
863+936065724+938261751+939979210+941760622+943780177+945771570+947478208
853+948926102+950302612+951758981+953503755+955941642+959269582+962930518
843+965927353+967679625+968216473+967673823+965962556+962728165+957215410
833+948103521+932692084+904071107+850076451+763125413+656614961+562768075
823+503959382+473343883+452848649+439886280+444643502+470825192+512352019
813+562934573+618474649+673592418+722528049+762331125+793082482+816308832
803+833902996+847792481+859700808+870479113+879834361+887049255+891297889
793+890181427+876417696+836322563+758735445+652658709+550598266+484857706
783+463691428+476655753+513820252+568610044+629932050+684806590+727379114
773+759507177+785014628+806257473+823936842+837531989+842942785+829145480
764+786285268+725244953+680050443+677965827+712577280+755861821+788630452
754+809805498+824698730+836198114+845286926+852699089+858915516+864207208
744+868754287+872650041+875931957+878541491+880527799+882312535+884286131
734+886334304+888191599+889914078+891715569+893696139+895894318+898298566
724+900493354+901152958+898153320+890045894+878163252+867050452+862078001
714+865831705+876334055+889006683+900136889+908314656+913864635+917777339
704+920677496+922462298+922822935+921563704+918196323+911535748+899811130
694+881608406+857608695+831660618+809779291+797575127+797502113+807451383
684+822168077+836435279+847260652+854228146+858725288+862710290+867683197
674+874018011+880596510+885994398+891004399+899286602+911649507+922275655
664+928193377+931194515+933699026+937087985+941076703+944286451+945680889
654+945030869+941601621+932775529+915817499+893196059+874639282+869383772
645+875463037+877702286+854708474+790533054+690188311+587730072+528623455
635+535001361+589813318+657558146+713954116+753863975+782149023+804416802
625+822924750+836314284+841562037+835972096+819023715+795163773+774767761
615+768783153+780522179+803720496+828431898+848115307+861826038+871679476
605+879850398+887282118+893774890+898963254+903101063+906677838+909755836
595+912104671+913624862+914546273+915517686+917232277+919709473+922318095
585+924599718+926707020+928840790+930620442+931433896+931258597+930765101
575+930843591+932176749+934767378+937559708+939145025+939387471+939587412
565+940514755+941259629+940354385+937105131+930634849+916907886+888825908
555+844427773+796339821+766995287+769705020+796265503+825350446+839081320
545+828790775+794655348+748927118+713770342+706975605+728875771+765584291
535+802743738+833211644+855681255+871545509+883194897+892738417+901094090
526+908014451+912953720+915825453+916803189+916216534+915310443+916221619
516+919926103+924951489+929129456+931792578+933628489+934942742+935084076
506+933281477+927956864+915183516+892265260+864835324+844903928+840845391
496+851682173+869390552+886222567+899239599+909006399+916808274+923080831
486+927034540+928026032+927656789+928976909+933000830+937392949+939098740
476+937778555+935811935+935397059+936621804+938132868+938695533+937432781
466+933696549+927526016+919944422+912928035+909229157+911633209+920422794
456+931097641+938926179+943786827+947264576+949137191+948442253+946041917
446+944484372+945500505+948004234+949160985+947806054+945274162+942884843
436+941194112+941206628+943432122+945824114+945152841+940274135+931954186
426+919513248+900349673+873687949+840793890+800447121+754695879+722674794
416+720450865+739934724+768219902+796974000+821205074+839088296+850884885
407+858206172+863862542+870254399+878045191+886668800+895109548+902842907
397+910866105+919139507+925023330+926998750+925983529+922252187+914679133
387+904687032+898135066+898819443+900979745+895478920+878689214+850951315
377+813059316+772355430+747913527
##END=
