##TITLE=LSH-R422A
##JCAMP-DX=4.24
##DATA TYPE=INFRARED SPECTRUM
##DATE=30/7/2021
##SAMPLING PROCEDURE=Diamant-ATR
##ORIGIN=Lara
##XUNITS=1/CM
##YUNITS=TRANSMITTANCE
##RESOLUTION=4
##FIRSTX=3997.453
##LASTX=373.96442
##DELTAX=-1.4165319
##MAXY=0.86425966
##MINY=0.32328326
##XFACTOR=1
##YFACTOR=8.0490453e-010
##NPOINTS=2559
##FIRSTY=0.74055839
##XYDATA=(X++(Y..Y))
3997+920057418+919161095+918846374+919320602+920072006+920467221+920394279
3988+920214852+920219591+920357328+920460482+920483216+920472034+920464629
3978+920442191+920322819+920045643+919678050+919350815+919125105+918973966
3968+918851484+918789206+918892879+919129548+919240108+919027357+918557128
3958+917979820+917495965+917493522+918249591+919442343+920278981+920190859
3948+919414426+918745145+918664207+919022395+919496327+919950635+920275574
3938+920319857+920169902+920119399+920240178+920301567+920278388+920541939
3928+921222253+921805263+921608581+920685303+920005063+920281424+921107102
3918+921477287+920991581+920324597+920188860+920528684+921001430+921573258
3908+922352358+922997867+922652490+920887983+918713599+917438575+917051951
3898+917109119+917759220+919047129+920296827+920571263+919943674+919881841
3888+920933155+921720696+920932414+919468410+918998032+919161539+919096225
3878+919511212+920997432+922620499+923344060+923247792+922724542+921697888
3869+920833999+921124208+921955366+921951589+921160420+921086886+922394419
3859+924622046+927278655+929630837+929588553+925403737+921173082+920634504
3849+922205513+924028002+925423064+926245188+926510589+926373297+925853824
3839+924713204+923318216+922824956+923441956+924156556+924256304+924119234
3829+924307548+924622712+924751859+924986603+925404033+925223050+924305474
3819+924127602+924990824+925531550+925275109+925240156+925946315+926924835
3809+927444161+926968600+926018219+925913362+926537989+926361227+925157218
3799+924691062+925285180+925700463+925577314+925562874+925863451+926224898
3789+926653806+927222376+927588340+927420168+927034432+926869000+926721341
3779+926264663+925876113+926112339+926911728+928008732+929193561+929951703
3769+929753985+929012949+928599073+928761765+929392686+930256871+930620688
3759+929662679+928020210+927587673+928945265+930941036+931866758+930579885
3750+928534722+928385952+929904681+930780121+929203854+926822718+926117300
3740+926739780+927150397+926225564+924175513+922690034+923052814+924848867
3730+926964231+928484070+929014281+928955929+929196005+929954666+930532788
3720+930387350+929805377+929582333+930332626+931797223+932461542+930642311
3710+927486963+926012443+926919133+929071153+931089139+931719394+930630462
3700+929211185+929004062+930108471+931797149+933365937+934327796+934273368
3690+932906963+930717103+928949856+928053237+927807459+928284723+929670158
3680+931785375+934063357+935407916+934090015+930514645+928266876+928436751
3670+929500506+930389276+931244574+932044408+932287298+931828843+931141568
3660+930854469+931088917+931377423+931510568+932174517+933776184+935506108
3650+935878145+933985972+931329141+930106694+930576923+931949251+933195840
3640+933572467+933191026+932697101+932379196+932159484+932232944+932887858
3631+933606827+933142967+931671483+931186740+932029449+933258636+934138297
3621+934076612+932995307+932293222+933288627+935081347+935950419+935557870
3611+934912065+934355713+933263005+931805813+931115206+931647120+932918664
3601+934295361+935415024+936070309+936030173+935265144+934367265+934269961
3591+935242039+936508251+936784391+935653842+934335201+933787069+933820022
3581+934058247+934363118+934695019+935034620+935372741+935724561+936248848
3571+937181383+938353993+938773497+937308826+934692945+932949691+932660001
3561+933100387+933490714+933556398+933529221+933739972+934160587+934381113
3551+934171398+933789957+933471905+933160073+932971092+933321876+934280180
3541+935363781+936071938+936274396+936233297+936306164+936498625+936542167
3531+936450491+936536021+936825860+936948786+936773653+936615182+936694196
3521+936878881+936988329+937020838+937069860+937158575+937182938+937042017
3512+936814308+936718559+936880066+937163832+937253139+936946638+936450639
3502+936237000+936397766+936534984+936419463+936308238+936527949+937070971
3492+937722183+938303786+938680191+938779791+938696038+938566670+938310451
3482+937712112+936899467+936446714+936763656+937647687+938540233+939012610
3472+938966624+938593180+938238324+938168197+938417307+938876799+939409009
3462+939878350+940229281+940465210+940521860+940385605+940267640+940335472
3452+940460249+940538596+940708619+940978315+941095021+940981648+940789187
3442+940488759+939954845+939321110+938838958+938621764+938775496+939413452
3432+940362130+941218762+941796218+942168254+942300437+942090574+941762228
3422+941767412+942242010+942847976+943217124+943304801+943284733+943339310
3412+943559762+943904473+944188536+944198089+943897364+943492893+943226307
3403+943173804+943290584+943528882+943860486+944277916+944734520+945031097
3393+944956083+944597228+944293171+944254812+944456085+944811164+945245255
3383+945652911+945931642+946098554+946364400+946926454+947595882+947938002
3373+947943333+948061890+948381350+948408749+947939335+947504724+947616024
3363+948102693+948531527+948837805+949217099+949702434+950147930+950464650
3353+950667700+950856680+951261595+952055357+953000999+953560016+953469673
3343+953039950+952874074+953362075+954301349+955010765+955037053+954651466
3333+954381769+954258769+953889398+953093785+952095493+951068246+949797961
3323+947965623+945555236+942798435+939926706+937213447+935066018+933849051
3313+933663477+934288770+935277584+936195901+936770025+936776245+936105187
3303+935060242+934162882+933492417+932586467+931000944+928612847+925506521
3293+921821258+917562020+912557820+906900779+901245442+896190072+891361745
3284+885372360+876673197+864445612+848901469+830983817+811815726+792365275
3274+773658156+757173703+744659612+737426008+735874401+739413707+746572815
3264+755546562+765094730+774877568+784865233+794718938+803919728+812260481
3254+819955650+827240720+834008760+840015103+845348833+850395094+855326057
3244+859961997+864150072+867931824+871333839+874320423+876984585+879549073
3234+882146885+884745141+887265199+889654703+891821978+893621437+894973623
3224+896003462+897022933+898325134+899922284+901517064+902823190+903897015
3214+905038080+906353906+907592275+908499854+909179576+909929647+910857886
3204+911864250+912893349+913975394+915020783+915742714+915916218+915706873
3194+915580467+915823505+916344460+916957757+917595787+918200050+918706564
3184+919220410+919969074+921000986+922006462+922526231+922417968+922041192
3174+921828145+921841104+921923820+922040155+922267272+922633162+923065921
3165+923450250+923789185+924275261+925036218+925909289+926610559+926973191
3155+926966675+926659952+926120410+925254004+923908705+922100952+919879619
3145+917086385+913499092+909032509+903663011+897436290+890652403+883869108
3135+877673563+872455353+868285125+865084161+863028038+862592540+864047584
3125+867060678+870834951+874455641+877160162+878601136+879048335+879318328
3115+880287296+882234118+884631620+886619689+887627534+887645751+887176263
3105+887000241+887779637+889701948+892457935+895530715+898497379+901077788
3095+903015206+904109914+904484394+904681668+905288523+906433142+907769185
3085+908947571+909894546+910636619+911164016+911552788+911917123+912155422
3075+912015094+911461112+910745253+910086414+909447717+908581459+907189729
3065+905180481+902872805+900776027+899117785+897803809+896816254+896352542
3055+896480281+896843579+896854835+896162081+894937708+893770873+893278058
3046+893755767+895111804+897056330+899318836+901672276+903775940+905223876
3036+905932033+906338504+906991863+908029181+909216898+910402245+911702669
3026+913290340+915184808+917254927+919273431+920989360+922309408+923402412
3016+924489567+925571168+926493632+927224449+927921869+928759988+929770276
3006+930826996+931760789+932494569+933035517+933373342+933511374+933552325
2996+933587796+933572023+933503303+933587722+933967163+934437540+934685836
2986+934608822+934199612+933431547+932508787+931920889+931980353+932468947
2976+932827580+932593650+931701696+930443778+929085075+927644841+926182096
2966+924987492+924235792+923725945+923175147+922550742+922022827+921734543
2956+921612432+921432486+921205369+921274089+921782011+922366279+922666485
2946+922793929+923017639+923286373+923317697+922984390+922439072+921822739
2936+920938560+919442491+917383851+915237977+913323516+911588333+910052869
2927+908996964+908519256+908311170+908125744+908168546+908740300+909719636
2917+910700526+911510357+912349586+913517753+915167332+917199684+919266989
2907+920981658+922219064+923188032+924184252+925263409+926158473+926596341
2897+926701495+926931796+927609667+928663350+929800638+930785675+931547742
2887+932132752+932600759+932981534+933286997+933505672+933590240+933469535
2877+933051661+932295295+931381422+930695776+930484062+930595510+930667785
2867+930485395+930079221+929526942+928787535+927823528+926812203+926029179
2857+925505410+925017705+924479052+924157889+924432177+925416992+926861891
2847+928362774+929672676+930803003+931834175+932747752+933541439+934393480
2837+935514920+936832895+938013503+938871615+939566444+940280377+940944696
2827+941446249+941871825+942349977+942814208+943102714+943214680+943340050
2817+943620558+943935205+944005924+943709050+943151810+942503042+941974387
2808+941865678+942289551+942889963+943147367+942923287+942477050+942075393
2798+941848869+941886561+942176030+942500154+942646703+942683655+942848568
2788+943246226+943829385+944567533+945423054+946217037+946691339+946727625
2778+946464815+946194229+946119363+946232959+946438156+946702373+947028053
2768+947382909+947745763+948137793+948556482+948931703+949183183+949299370
2758+949356760+949456879+949627346+949798628+949893340+949891859+949777967
2748+949515453+949183849+949024786+949168002+949377495+949275452+948780489
2738+948151715+947653124+947355806+947248061+947359657+947690595+948091733
2728+948345583+948378314+948327144+948418598+948829956+949570326+950423699
2718+951103643+951504782+951712571+951829351+951916584+952040324+952226565
2708+952396736+952431984+952317722+952204571+952291952+952635997+953079642
2698+953342452+953149398+952396291+951322244+950408222+949936512+949693474
2689+949260419+948583882+948104692+948253981+948960435+949769673+950338021
2679+950664071+950942210+951337647+951855861+952355119+952723526+953019882
2669+953348672+953672130+953862073+953868960+953745071+953553647+953320828
2659+953055945+952802984+952663841+952730191+952989002+953326160+953619998
2649+953829935+954030837+954315863+954642209+954824451+954664869+954045129
2639+953023510+951943909+951246119+951051214+951097497+951086167+950910886
2629+950697246+950816100+951606159+952906657+954142804+954936343+955315044
2619+955404721+955325115+955323412+955637910+956237730+956861616+957262459
2609+957367168+957295856+957261496+957429223+957856873+958477871+959054735
2599+959245640+958863681+958101169+957428853+957218768+957481578+958023341
2589+958718095+959410998+959730087+959401075+958680403+958084064+957792447
2580+957712249+957914707+958553700+959484309+960320280+960783697+960865598
2570+960831386+961087087+961826642+962834117+963753249+964394463+964729104
2560+964797898+964673342+964376691+963928011+963530279+963467483+963740956
2550+964061082+964247026+964397055+964604845+964751097+964710072+964560932
2540+964411643+964239103+964121212+964298714+964737323+965021460+964935930
2530+964716959+964607288+964624320+964780792+965112248+965542341+965963918
2520+966343063+966686145+967022710+967317659+967324990+966791150+965898234
2510+965263239+965365431+966057815+966714877+966867572+966581139+966194441
2500+965972952+966126091+966738277+967510120+968004341+968233606+968567505
2490+969130670+969775217+970461455+971157764+971632288+971798609+971935456
2480+972181308+972221518+971792314+971042910+970191610+969329054+968700947
2470+968661033+969169251+969676431+969665990+969190355+968804323+968957092
2461+969490635+969852156+969752927+969440502+969332016+969555579+969933539
2451+970349859+970934498+971747735+972490401+972803195+972757950+972800456
2441+973254763+973997948+974580587+974626796+974159529+973551267+973183822
2431+973202631+973536531+974021052+974447220+974592954+974371983+973963736
2421+973661604+973584664+973657235+973809856+974032234+974262535+974384942
2411+974375686+974366503+974479432+974636719+974676855+974649678+974788673
2401+975189886+975704620+976091096+976123605+975714691+975120277+974830068
2391+975063479+975541854+975908559+976166185+976522966+977009339+977486825
2381+977868932+978068502+977883446+977299622+976794885+976866567+977334500
2371+977631004+977654700+977722606+977850345+977773702+977555545+977583018
2361+978009261+978519181+978564501+977826797+976563028+975324882+974432187
2351+974016905+974261646+975200771+976428847+977165292+976922920+976264526
2342+976186327+976830133+977497562+977560432+977006081+976329469+976092799
2332+976437511+976932399+977033998+976635081+975969577+975276674+974769345
2322+974602210+974684408+974837029+975120351+975679220+976425810+977136930
2312+977689135+978092939+978466160+978920690+979354116+979522732+979390845
2302+979181279+979091602+979137736+979174762+978971564+978437798+977792511
2292+977350866+977237270+977392409+977685062+977959498+978169805+978445574
2282+978917136+979539689+980078490+980233777+979939940+979487779+979051096
2272+978355675+977289255+976463133+976557845+977435803+978371596+978856339
2262+978887885+978762590+978767625+978959493+979213787+979500516+980029320
2252+981060640+982467402+983546263+983674595+983162527+982900457+983231025
2242+983830474+984479242+985237014+986117416+987092975+988075272+988751662
2232+988912132+988849410+988955897+989183754+989273209+989182421+988994922
2223+988662355+988099191+987476267+987211384+987515070+988086010+988484705
2213+988694272+989151319+990229736+991560077+991910786+990302381+987395403
2203+985135045+984920517+986598605+989014101+991009428+992114503+992589545
2193+992771268+992649898+992357615+992606651+994051550+996346787+998238736
2183+998719407+998073601+997500662+997555386+997627513+997305758+997270435
2173+998110479+999214813+999568189+998710298+996630035+993904261+992144790
2163+992967358+996162175+999542863+1000882831+1000163862+999473328+1000244948
2153+1001686219+1002290630+1001727614+1000526345+999059823+997933421+998075674
2143+999307748+999988877+998900463+996596193+994580280+993976240+994914550
2133+996496667+997426092+996977634+995465274+994021485+993751344+994643521
2123+995555321+995740895+995812503+996527991+997385956+997301092+996043322
2113+994146707+991885238+989279429+986965532+986124451+987189539+989208858
2104+990999431+992433518+993927884+995269629+995905141+996084939+996761625
2094+998329376+1000036492+1000770494+1000200962+999065599+998323230+998232960
2084+998455042+998720147+999014429+999326928+999599661+999876911+1000251021
2074+1000615800+1000625427+1000075518+999291605+998943784+999367730+1000176821
2064+1000684298+1000672746+1000539971+1000682521+1000947774+1000747982
2055+999675342+998099593+997217784+998236145+1001117131+1004106603+1005148141
2045+1004184357+1003326541+1004582904+1007917309+1011471352+1013299914
2037+1012860564+1011272449+1010345246+1010878641+1011970313+1012371600
2028+1012175437+1012735269+1014950751+1017871429+1019392527+1018603579
2020+1017024276+1017004134+1019212507+1022048396+1023535875+1023345858
2011+1022606894+1022349342+1022720786+1023270251+1023241667+1022016924
2003+1020120382+1019052111+1019304998+1019419334+1017913786+1015285761
1994+1013138851+1012312507+1012554656+1013220975+1013808428+1014168468
1986+1014294652+1013766218+1011998897+1009441222+1007610809+1007240476
1977+1007308307+1006759435+1006085045+1006334526+1007903239+1010685144
1969+1014202013+1017350770+1018953104+1018773676+1017380169+1015346410
1960+1013123374+1011046739+1009093400+1007199007+1005850819+1005671984
1952+1006511880+1007697894+1008996318+1010550222+1012035701+1012678323
1943+1012141151+1010946473+1009865983+1009189742+1008895682+1009015127
1935+1009536082+1010292966+1011073694+1011555697+1011261637+1009993722
1926+1008082445+1005893325+1003544475+1001273306+999393649+997813605+996320868
1917+995262150+995373894+997026064+999917047+1003110309+1005575717+1007097926
1907+1008210851+1009186261+1009798151+1010076216+1010579324+1011623307
1898+1012685432+1012979788+1012495489+1012112789+1012564505+1013708902
1890+1014880846+1015605147+1015949784+1016204670+1016473849+1016696004
1881+1016900609+1017258206+1017789305+1018210808+1018319590+1018406379
1873+1018972876+1020046627+1020871416+1020462724+1018919410+1017350030
1864+1016338112+1015687937+1015140546+1014704381+1014455566+1014384921
1856+1014505625+1014888992+1015576341+1016568117+1017837143+1019259382
1847+1020462132+1020709391+1019373644+1017120914+1015324046+1014113891
1839+1012695799+1010605835+1008188191+1006203898+1005146438+1004950941
1830+1005206198+1005661469+1006388435+1007359625+1008408569+1009562741
1822+1010934032+1012373600+1013572202+1014407951+1015057015+1015773615
1813+1016645501+1017552043+1018335215+1019018269+1019729315+1020442360
1805+1020965536+1021128894+1020897112+1020286110+1019315439+1018209846
1796+1017398904+1017080037+1016956667+1016642613+1016314563+1016315304
1788+1016514799+1016599070+1016495990+1016458964+1016735992+1017284790
1779+1017935854+1018641123+1019398970+1020127343+1020784035+1021490341
1771+1022323128+1023124072+1023740480+1024203230+1024621252+1025034980
1762+1025441598+1025859769+1026133983+1025930192+1025282683+1024750324
1754+1024575340+1024287130+1023339193+1021835645+1020325136+1018852615
1745+1016968293+1014387365+1011233276+1007809786+1004609044+1002254789
1737+1000705106+999051233+996760440+995094200+994993638+995761259+996774806
1727+997870551+999006061+1000223399+1001620091+1003198135+1004980340+1007196785
1717+1009833770+1012088426+1013512961+1014512586+1015537538+1016736511
1708+1017955922+1018898750+1019455841+1019881417+1020378453+1020842610
1700+1021172140+1021424139+1021348014+1020648742+1019833802+1019492941
1691+1019394453+1019088248+1018650528+1018406157+1017940149+1016116771
1683+1013268294+1011148042+1010015419+1009412564+1008938188+1008286532
1674+1007699893+1007769354+1008363397+1008665455+1008293418+1007889466
1666+1007871915+1007952262+1007800826+1007549049+1007631395+1008240101
1657+1009359246+1010905744+1012461055+1013077314+1013121227+1013964677
1649+1015466744+1016903794+1017577073+1017543231+1017367580+1017364174
1640+1017721770+1018536710+1019721687+1021024407+1022223158+1023421761
1632+1024811787+1026509796+1028649819+1031249704+1034091813+1036848985
1623+1038991082+1039907029+1039305358+1035902528+1025849550+1007177087
1615+988071051+977525184+976497789+982855730+993293334+1003983825+1012798953
1605+1019616756+1024942563+1029319618+1033278132+1037173702+1041141472
1596+1045174408+1049106708+1052547674+1054938955+1055840684+1055232127
1588+1053490872+1051175272+1048903658+1047078355+1045454991+1043316374
1579+1040221527+1036394603+1032811902+1030472975+1028150043+1022213679
1571+1007309344+979957564+945807605+911145429+874456974+837447874+807921563
1561+793039961+802255044+838033698+871492680+893249400+911664681+928317158
1551+942173438+954011436+965114395+975994607+986810393+997115889+1005929314
1541+1013263332+1019595429+1024048239+1026797709+1029319988+1033338262
1533+1039837790+1047505930+1054824397+1061654419+1067663576+1071886233
1524+1073741823+1072812695+1069305971+1065889442+1064841905+1065623818
1516+1066624184+1066188537+1063192031+1057357488+1047478235+1023542317
1507+958648709+854899518+762114366+687852240+622622807+571170566+546523936
1497+554385981+582103170+611532140+638905247+671647407+717050502+769736890
1487+812563501+837418920+846424362+842905345+831076234+816839994+803382408
1477+787235483+761778690+725731671+692327192+684536422+705068622+737259318
1468+771466519+806727477+841613363+870608575+890985562+905020678+913038268
1458+905497941+868797342+808507905+735043613+656190274+589001689+555242872
1448+563839399+600844944+644825912+685455997+720398237+748292150+769681722
1438+787800425+805156542+820788511+833776311+845404446+856716750+867165388
1428+875416908+880218724+879671851+872159368+858944673+843261164+828783663
1418+820309321+819353534+822365962+826420818+830649547+834838807+838916396
1408+843119355+847997593+854030965+861043079+868490397+876448968+885261727
1398+894144687+900801057+901900948+893924161+876511468+854221426+834802743
1388+827850314+838736080+860340772+880579060+894027019+900836676+902863178
1378+902141987+899777809+895340846+887817403+877684967+866902282+856585975
1368+846457833+836064734+825732802+816807115+811337425+810421256+813194571
1358+818805403+827462653+839327458+853653597+869060374+884255585+898298105
1349+910517026+920610955+928693341+935026623+939746315+942744599+943711938
1339+942590275+940044004+937004917+933940949+930661934+926303837+919793497
1329+911416755+904135906+902143838+907262522+917303134+928353221+937843258
1319+945161132+950603349+954610293+957589768+959900925+961855967+963631063
1309+965152087+966124018+966011681+963941859+959194545+952420136+946006064
1299+942328502+941516228+941306069+938832664+932004346+919549644+901330083
1289+880035964+862090765+854555177+859733177+873592641+889580947+902932786
1279+911545605+914505975+911404463+903434043+894494730+890011411+893422534
1269+903621987+916268038+926979708+932844464+932622901+927739627+922891307
1259+923320141+930257019+940160783+948586473+953441607+954665239+952307207
1249+945356629+931407266+906616642+866444567+808355358+736359070+663648551
1239+608556997+584787104+593793730+626082952+669111724+713718985+755200518
1230+791393419+820755261+840894912+847249077+833229586+794354011+735664760
1220+675183751+635860606+630297908+653341427+689255892+723584242+749050959
1210+765179890+775435918+784111163+794265371+807126098+822116852+837138264
1200+849410575+856446387+856488152+848855335+834753647+817688035+802159072
1190+791333289+786117375+786227564+791206734+800235428+811735157+823613884
1180+834074592+842615951+850381025+859140836+869692998+881240787+892230595
1170+901579119+909028954+914663779+918631476+921396127+923821990+926776361
1160+930679040+935338233+940166782+944605966+948258424+950634747+950899112
1150+947635352+938504614+920419605+891612485+855817835+824662309+812450646
1140+825141869+854898260+886892274+910317086+921918784+921212552+906597685
1130+879647266+851892792+840619810+853791481+882609191+911605587+932155930
1120+944215120+950073582+950625342+946065601+937927381+930017313+926570053
1111+928933491+934822832+940988609+945824192+949667482+953766768+959165664
1101+965675708+970594600+967389119+947156607+906122643+854377897+813583787
1091+801327915+818018084+850205670+883580010+910756880+930508351+944350857
1081+954352000+962276952+969369783+976238089+982945999+989400208+995439652
1071+1000702885+1004981747+1008636945+1012269335+1016141949+1020072767
1062+1023654580+1026349251+1027175966+1024256695+1014946530+996830493+969178803
1052+934157847+896807294+863581650+840559532+831781355+837540365+854144338
1043+876387505+900540987+925073910+949367498+972359181+992367612+1007896130
1033+1018030418+1021729677+1016724218+999013541+964516723+913770492+855815391
1023+805278209+773005241+757540704+745556676+723635782+691094599+657890726
1013+629556723+600590169+565154782+528770568+506391479+511206513+545251319
1003+598263979+655047803+704653339+743506329+772651496+794559727+811604160
993+825424155+836994751+846984268+855825240+863806101+871242977+878332402
983+884972555+890894404+895878758+899898439+903029424+905055630+905063479
973+900750627+887584955+860883424+822634771+786128557+768759036+777098974
963+801425071+826771453+846129784+860447703+868877466+862173480+826203476
953+755736431+669431776+606537974+598790303+644112571+712356209+774193699
943+819068213+850084595+872333390+888637823+900696718+909882105+916965014
933+922160934+925605084+927407061+927089008+923218690+913535378+895185189
924+866162726+829188505+794503003+775645485+779832301+802836572+833604511
914+862463023+885032240+901241221+912886610+921718918+928648317+934085720
904+938480992+942279480+945680014+948680667+951263669+953484113+955422197
894+957070664+958339320+959246455+960069615+961208088+962858184+964895276
884+967097873+969327203+971442715+973248321+974519717+974936332+974093326
874+971613331+967124161+960712237+954070603+950327358+951346311+955635540
864+960153219+963722295+967410890+971966262+976352351+978974082+979175577
854+977067692+972702263+965980357+956716178+943570351+922455512+887943217
844+840137881+791134534+759990116+756833509+772958811+788329673+786679576
834+762967814+721638827+671769888+621799128+575882558+535371806+503841357
824+488703758+496632079+527907568+575553953+629453421+681184466+726058462
815+762560010+791136903+813211380+830330310+843601062+853806291+861924444
805+869020238+875428090+880754045+885183380+890146037+896879495+904333625
795+909191794+909045986+905941512+905533116+911688303+922852504+934359342
785+942835091+947595808+949611128+950631711+952250631+954308309+954250623
775+948200293+931598690+898884522+845771151+774348912+693634725+612542133
765+535174051+466196152+417127787+401641738+424652526+478174774+546699439
755+615260279+674507658+721530785+757643562+785524960+807456591+824742285
745+837931433+847415323+853683810+856989631+856885440+852458104+843970877
735+834725359+829985524+832666348+840574638+848702418+853631011+855088573
725+854167960+851354362+846284478+838563465+828353052+816153015+802172846
715+786339604+769018218+751256296+734258442+719034054+706037664+694597028
705+683924087+675490178+672772994+677667079+688451764+701767762+715420474
696+728890870+742251669+755408160+767994229+779538167+789874468+799440778
686+808801743+817903452+825850101+830055577+824909494+805277543+775952652
676+754019910+754527832+774840542+800243278+820835978+835138790+843659193
666+847440427+849103927+850208039+850577632+849560012+847159622+843953845
656+840330564+835999495+830205162+822338267+812117931+799325776+783857091
646+766399745+748963356+733950090+722278042+713058887+705143488+698254299
636+693112956+691344228+694628426+703120170+715031776+728155239+741584981
626+755640979+770368775+784821246+797965444+809610166+820089906+829602158
616+838316354+846747302+855591977+865312685+875906094+886869392+896177039
606+896628755+874224229+818447807+740237238+674281948+653492122+680100496
596+728839256+774658448+808676077+833096663+851347475+864972935+875207119
586+883663022+891557613+899303507+906791997+913536785+918703899+921707440
577+922984168+923897227+925552063+927724521+929158016+928833891+927043318
567+925455573+926107599+930015166+936362814+943064800+948424522+952152291
557+954656945+955654497+953428129+944973855+925971048+889005120+823618475
547+727515505+624078740+557394447+556276339+608910372+678511862+736021097
537+773014942+792244793+798355623+796609999+792809956+793146077+803988967
527+828156963+859799972+887698476+905868423+915772779+920471664+920975808
517+916081650+904670561+889422032+877518350+876027613+885868285+901293279
507+915788108+927077900+936107335+943384407+948092696+950082542+950931028
497+952486635+955148205+957709880+958934401+958741199+957120205+953196273
487+947195928+942301992+942235641+946979771+953434424+959749859+965847434
477+970921169+973534235+973889906+974111543+975938475+978798357+981082707
467+982262279+982771755+982870614+982652902+982733618+983696885+984920961
458+984860683+982792416+979008960+972784683+961257999+939919152+904697960
448+855903957+801850350+756246130+730317552+727442786+742519144+767935432
438+799679003+835132348+868948852+895700664+914756492+929367435+942450021
428+954251734+963137582+967484498+967496198+964990506+959474535+945270507
418+916717533+872789475+810952578+736482958+677899898+671516187+721768270
408+796116370+859367583+899019296+920529424+931921038+938268759+943345234
398+949989978+957838063+964315820+969137334+973801414+978784953+983030566
388+984888971+983218732+979359744+978240376+982934669+989782759+993272007
378+991026015+983300337+972406870+964552860
##END=
