##TITLE=Sample Description
##JCAMP-DX=4.24
##DATA TYPE=INFRARED SPECTRUM
##DATE=22/8/2019
##SAMPLING PROCEDURE=Instrument type and / or accessory
##ORIGIN=Default
##XUNITS=1/CM
##YUNITS=TRANSMITTANCE
##RESOLUTION=4
##FIRSTX=3996.5701
##LASTX=399.03993
##DELTAX=-2.0569069
##MAXY=1.0186522
##MINY=0.88603365
##XFACTOR=1
##YFACTOR=9.4869379e-010
##NPOINTS=1750
##FIRSTY=1
##XYDATA=(X++(Y..Y))
3997+1054080895+1053706690+1053235228+1052605879+1052539909+1052800835
3984+1052779724+1052691514+1052553480+1052177140+1051863628+1052155590
3972+1052587470+1052469668+1052033012+1051900885+1052321016+1052537459
3960+1052370776+1052420096+1052576413+1052787829+1052753525+1051921618
3947+1051297797+1051902392+1052544684+1052154961+1051603645+1051668546
3935+1052076238+1052087233+1051652902+1052019567+1053273490+1053640155
3923+1052571952+1051980613+1052366315+1051871481+1050687925+1050742020
3910+1051762034+1052284387+1052209999+1052269937+1052023965+1050997668
3898+1050500257+1051193189+1051872675+1051558660+1051162591+1051534031
3885+1051484774+1050843550+1051051637+1051346552+1051157251+1051302070
3873+1051929409+1052351111+1051870476+1050924410+1049727032+1048909512
3861+1049211401+1049585354+1049814300+1050167017+1049524223+1049103588
3848+1049268072+1049201851+1049239988+1049644413+1050500572+1051344039
3836+1051434260+1051042150+1050632511+1050680197+1050946463+1050904619
3824+1051040956+1051034296+1050366559+1050129760+1049912877+1049482756
3811+1049332031+1049519510+1049519887+1049653146+1050259626+1049345791
3799+1048090045+1048663352+1049397373+1049187778+1048850203+1048977744
3787+1049379090+1049634423+1049644476+1049608538+1049304324+1048986728
3774+1049445750+1050534059+1050972348+1050068000+1049147945+1049004697
3762+1049324869+1049567260+1049579888+1049969360+1050663987+1050753518
3750+1049861735+1049525291+1049244763+1048115114+1048284435+1049272722
3737+1049409247+1048480836+1047096167+1046847996+1048296498+1049019713
3725+1047829560+1046845483+1046500996+1046481583+1047186640+1048494218
3713+1049348053+1048425861+1047479481+1047545011+1047909226+1048444270
3700+1048667498+1048744651+1049013241+1048953995+1048630053+1048022065
3688+1046939788+1046532599+1047006700+1047694479+1048017793+1047952514
3676+1047750899+1047768931+1047656468+1046447781+1045537527+1046407948
3663+1047950630+1048989807+1049337560+1048775688+1047553493+1046826886
3651+1046854970+1046818781+1046238438+1046493520+1047299416+1047844324
3639+1047736951+1046730884+1045596272+1045535391+1046513248+1046494337
3626+1044938461+1044667860+1045515537+1045873092+1046573877+1047964326
3614+1047908158+1046594610+1045682472+1045535705+1046046623+1047061109
3602+1047641264+1046671952+1045303053+1045017939+1045281691+1045548334
3589+1045549025+1045176643+1045090882+1044900827+1044797035+1045225397
3577+1045380834+1045180412+1045405714+1046084383+1046345371+1045500396
3565+1044338076+1043852163+1044273237+1045295513+1045769112+1045345524
3552+1045160810+1045491914+1045309712+1044638017+1044680740+1045058714
3540+1044932744+1044714982+1044648447+1044772092+1044956744+1044884680
3528+1044533848+1044115664+1044020354+1044351646+1044758396+1044880157
3515+1044382244+1043620453+1043657710+1044320170+1044712406+1045229984
3503+1045688063+1045129773+1044310808+1043961735+1044072690+1044651085
3491+1044813747+1044018657+1043217850+1043145912+1043391256+1043362543
3478+1043261013+1043688621+1044002071+1043666946+1043477142+1043345391
3466+1043193599+1043584138+1043903933+1043452513+1042800546+1042472269
3454+1042588690+1043303171+1043977002+1043980772+1043673668+1043448367
3441+1043474315+1043688433+1043936415+1044268713+1044149780+1043597583
3429+1043305244+1042909867+1042486405+1042359618+1042157312+1042015446
3417+1042129228+1042324749+1042239617+1041986042+1042139154+1042375891
3404+1042293146+1042008849+1041515585+1041158659+1041262074+1041745599
3392+1042364267+1042925951+1043405769+1043375926+1042784965+1042376770
3379+1042264182+1041940241+1041636027+1041869308+1042189542+1042095740
3367+1041606623+1041075349+1041169905+1041521805+1041451312+1041392191
3355+1041383144+1041115370+1040879074+1040738213+1040874487+1041674666
3342+1042453798+1042305900+1041652111+1041514517+1041946963+1041940994
3330+1041321132+1040823345+1040405412+1039897950+1039915981+1040542692
3318+1040945609+1041014971+1041103747+1040869901+1040037491+1038992282
3305+1038406787+1038338744+1038029316+1037158016+1036386046+1036338611
3293+1036738575+1037087711+1037290771+1036925552+1036115509+1035988470
3281+1036679140+1037462543+1038048730+1038399562+1038384106+1038103579
3268+1038014111+1038254618+1038390766+1038208816+1037942613+1037983954
3256+1038712069+1039425357+1039352099+1038652445+1037839701+1037862193
3244+1038529742+1038935737+1039135468+1039348958+1039440435+1039243532
3231+1038794625+1038226156+1038042573+1038517553+1039117625+1039292978
3219+1038845013+1038150260+1037700159+1037624012+1037992624+1038366263
3207+1038490600+1038885035+1039438551+1039576710+1039263323+1039021937
3194+1038992471+1038567502+1038071662+1038066322+1038094783+1037977043
3182+1037815826+1037881104+1038195496+1038064688+1037857921+1038569072
3170+1039379492+1039063341+1038546266+1038518684+1038275916+1038222324
3157+1038785452+1039231343+1039316161+1039494405+1039644501+1039192264
3145+1038619398+1038441029+1038156103+1037682065+1037087837+1036324098
3133+1035821347+1035849243+1036092074+1036121917+1036144472+1036561274
3120+1036850283+1036662302+1036396225+1035990229+1035936511+1036661045
3108+1037396511+1037802255+1037538314+1036444854+1035289633+1034558879
3096+1034441391+1034940309+1035657680+1036096095+1035808782+1035179370
3083+1035015640+1035097505+1034740578+1034281116+1034463066+1034895638
3071+1034951492+1034780034+1034747803+1035066405+1035498536+1035363079
3059+1034654566+1034156842+1033723768+1032807106+1031973942+1031725645
3046+1031778923+1032177191+1032945642+1033654971+1034050286+1034025029
3034+1033648877+1033141100+1032970270+1033229122+1033204870+1032758728
3022+1032482221+1032514766+1032527144+1032508798+1032678182+1033099131
3009+1033476539+1033279447+1032760487+1032632192+1033108995+1033871791
2997+1034199063+1034029929+1033809151+1033447324+1033244201+1033606405
2985+1033910493+1033665338+1033363323+1033547535+1033697317+1033220200
2972+1032693450+1032300962+1031691215+1031227607+1031234706+1031537538
2960+1031823406+1031737708+1031280320+1030908754+1030896063+1031018955
2948+1030858617+1030783286+1031447065+1031949753+1031364949+1030408077
2935+1029624170+1028945250+1028616470+1028573810+1028262120+1027333834
2923+1026227934+1025937668+1026398135+1026613196+1026580399+1026811858
2911+1027160931+1027475700+1027701881+1027972922+1028555527+1028837939
2898+1028502563+1028147144+1028160904+1028745833+1029470053+1029625364
2886+1029271767+1028896684+1028964349+1029354135+1029561971+1029524148
2873+1029334407+1029156478+1029271265+1029614809+1029903002+1029853304
2861+1029334596+1028666733+1028262120+1028028211+1027597147+1026951085
2849+1026623437+1026970750+1027605691+1028043729+1028239062+1028508343
2836+1028939721+1029157860+1029076498+1029155473+1029635794+1030088847
2824+1030237813+1030180953+1029955966+1029734182+1029713700+1029884970
2812+1030178314+1030538508+1030522612+1030077287+1029809890+1029685239
2799+1029559332+1029510389+1029506493+1029662433+1029902310+1029937745
2787+1029797639+1029668527+1029532944+1029669658+1030085769+1030205645
2775+1029869640+1029376753+1029194677+1029464713+1029644966+1029308396
2762+1028908872+1028872181+1029055073+1029320208+1029225023+1028531024
2750+1027856501+1027572895+1027623660+1027959288+1028188234+1028188422
2738+1028321995+1028608679+1028873060+1029087116+1029093838+1028772410
2725+1028583171+1028854589+1029020518+1028686838+1028301324+1028146642
2713+1028051206+1027954953+1027850595+1027759683+1027638111+1027434422
2701+1027322022+1027466464+1027897968+1028190621+1028034305+1028052525
2688+1028461096+1028592219+1028285429+1027857695+1027551973+1027359468
2676+1027236576+1027487260+1027937047+1028065468+1027908334+1027756228
2664+1027753086+1027832627+1027949487+1028016022+1027830993+1027581188
2651+1027508308+1027425312+1027267111+1027293436+1027583890+1027685232
2639+1027395531+1027048909+1026770831+1026731501+1026894477+1026935315
2627+1027140512+1027709735+1028207836+1028221156+1027617503+1027055443
2614+1027102690+1027284388+1027332892+1027467784+1027572267+1027261331
2602+1026787858+1026692862+1026675710+1026471330+1026434324+1026356354
2590+1026137712+1026334427+1026699207+1026570221+1026180121+1026361318
2577+1026997515+1027437563+1027432286+1026915776+1026359433+1026281526
2565+1026846665+1027402191+1027412683+1027475260+1027705086+1027740646
2553+1027528539+1026946436+1026295034+1026047680+1026141042+1026690034
2540+1027296012+1027155905+1026746454+1026468565+1025822818+1025222809
2528+1025614983+1026401214+1026194635+1025184484+1024635806+1024652958
2516+1024572036+1024854762+1025978129+1026845283+1026770831+1026557907
2503+1026794392+1026747899+1025724052+1024736143+1024673629+1025109530
2491+1025616553+1025816598+1025624281+1025597014+1025647779+1025538898
2479+1025691947+1025877227+1025818169+1025928683+1026179807+1026364333
2466+1026777240+1026952405+1026222028+1025253093+1024749839+1024851935
2454+1025294622+1025544050+1025388424+1024981549+1024749085+1025097342
2442+1025757163+1025736932+1025228715+1025430519+1025928935+1025779341
2429+1025419713+1025295062+1025288716+1025269931+1025116504+1025152505
2417+1025210432+1024728792+1024041955+1023886267+1024588183+1025172296
2405+1024913067+1024760520+1025039728+1024990785+1024430170+1023893492
2392+1023697091+1023582493+1023515393+1023695018+1024021787+1024324179
2380+1023972153+1022368465+1019852262+1016758731+1016133591+1023951859
2367+1037200048+1046161159+1047938504+1044595482+1048809678+1054080895
2355+1045108600+1030970891+1023716882+1022642270+1022554813+1019743506
2343+1017748525+1022481556+1026007093+1025577034+1021176930+1014963543
2330+1014118505+1018113494+1020048349+1019572300+1018560327+1017964717
2318+1020302111+1022478352+1021114165+1020254488+1021707011+1022324171
2306+1022661621+1023495162+1023300269+1022740031+1023560189+1024856773
2293+1025133279+1024962324+1025107645+1025383838+1025612030+1025838588
2281+1026012182+1026077649+1025901353+1025639485+1025567987+1025263836
2269+1025123792+1025684910+1026334050+1026203870+1024868836+1023534932
2256+1023770223+1025388173+1026830895+1026750035+1026042339+1026723333
2244+1028527506+1028982255+1027287655+1026395873+1027368075+1027836585
2232+1027533690+1027645776+1028124526+1028175040+1027519805+1026823733
2219+1026697071+1026826937+1027117705+1028004838+1028982884+1029302113
2207+1029376942+1029343643+1028500427+1027457354+1027741086+1029443100
2195+1030152241+1028021739+1025544992+1025282999+1025933018+1027337855
2182+1029877305+1031249597+1030504455+1028645245+1027110543+1026652966
2170+1027353185+1028629601+1029146425+1030255279+1033273416+1034020002
2158+1030286002+1027037097+1027598026+1030471973+1032756717+1033251929
2145+1032301088+1031408866+1031067898+1029958102+1028507086+1028247292
2133+1029360418+1030907623+1030827454+1028471274+1026393863+1026064392
2121+1026564315+1027162690+1027268367+1026811670+1026490995+1026322050
2108+1025984914+1025474562+1024923810+1024569460+1024993361+1026438533
2096+1027681211+1028446269+1029859273+1031258581+1031093909+1030135591
2084+1029623731+1028715487+1027490213+1027558445+1028555841+1028784473
2071+1028350770+1028557852+1030091235+1031730420+1031460196+1030167885
2059+1030191885+1030736793+1029625238+1027873779+1027088113+1027702258
2047+1030060951+1031859720+1031344593+1030330107+1030099277+1031095165
2034+1032656067+1032731586+1032165756+1032218280+1032156646+1032780027
2022+1033272034+1031984623+1031554439+1031668723+1030287698+1029891755
2010+1030038710+1028956873+1028112275+1028337325+1029549154+1031186329
1997+1032722476+1033438717+1032600527+1032145777+1032845682+1032983590
1985+1033313814+1034095710+1033534969+1032472169+1032844991+1033643034
1973+1034256676+1034787134+1034125114+1032479645+1031227921+1030665232
1960+1030904168+1031650377+1031758190+1031137574+1030034438+1028905794
1948+1028968433+1029821576+1029930332+1029461822+1030000385+1031034285
1936+1030771977+1029643773+1029276354+1029812592+1030216451+1030327468
1923+1030582173+1030369814+1029795251+1029641951+1029826854+1030323322
1911+1030858492+1030831538+1030109832+1029392837+1029199012+1029021900
1899+1028668052+1028571422+1029210133+1030058438+1030254148+1030122837
1886+1030072575+1029902185+1029845702+1030317479+1030729443+1030741317
1874+1030856984+1030853277+1030144324+1029241798+1029154844+1029677700
1862+1030350024+1030949906+1031331713+1031155292+1030554969+1030354045
1849+1030720835+1031077887+1030576205+1029739648+1029887420+1030380935
1837+1030700981+1030791705+1030665986+1030614090+1030572624+1030317730
1824+1030143193+1030406695+1030649839+1030342861+1029919525+1029700883
1812+1029063555+1028097259+1027475009+1026996322+1026745198+1027036594
1800+1027453836+1027698426+1028199354+1028878275+1028960643+1028711592
1787+1028840264+1029229547+1029584526+1029613992+1029134362+1028654984
1775+1028754881+1029038424+1028902841+1028645497+1028744011+1029291810
1763+1029790979+1029864048+1029715837+1029624108+1029827608+1030026961
1750+1029838728+1029564044+1029557196+1029820445+1030085894+1030145644
1738+1030291091+1030357626+1029792047+1029341507+1029391643+1029579814
1726+1029986437+1030224493+1030251823+1030387909+1029975631+1028847364
1713+1028278832+1028271795+1028513495+1028698461+1028603842+1028819342
1701+1029275223+1029458493+1029620652+1029392209+1029328061+1029524839
1689+1029578557+1029507059+1028601706+1027799767+1028514814+1029679019
1676+1030292662+1029770120+1029326365+1029679396+1030322254+1030888272
1664+1031105406+1030741254+1030453439+1030720333+1031289115+1031666587
1652+1031638628+1031835406+1031608785+1030936650+1030849884+1031155731
1639+1031762714+1032076980+1031252110+1030862701+1031268822+1031499464
1627+1031492176+1031635801+1031925753+1032344377+1032704444+1032539835
1615+1032274826+1032432210+1032736989+1033082607+1033263803+1033354715
1602+1033251552+1032155641+1029772193+1026470827+1023414805+1022296653
1590+1023288018+1025099352+1026785596+1028202244+1029153462+1029707983
1578+1030187424+1029877242+1029059848+1028990800+1029562724+1030183655
1565+1030652604+1031222518+1031596156+1028853018+1024278943+1023368815
1553+1023711856+1024553941+1025645454+1026535037+1027495365+1028824180
1541+1029673239+1029559834+1029826477+1030058564+1029723627+1029837974
1528+1030512811+1030873696+1030906869+1031086872+1031589811+1032189757
1516+1032558306+1032874143+1033235593+1033608918+1033443177+1032850394
1504+1033453167+1034327043+1034687488+1034410165+1033841885+1033188661
1491+1031965586+1030443135+1029966646+1029513216+1027560769+1024657482
1479+1022875991+1022404717+1021632559+1019995322+1019554080+1021047944
1467+1023080873+1024569711+1025411357+1026421256+1027711368+1028398896
1454+1028845667+1029903253+1031305702+1032364984+1031850987+1028472845
1442+1022144546+1016134345+1014744587+1018464829+1022317763+1024862553
1430+1027065809+1028769331+1029909598+1030825130+1031807699+1032277527
1417+1031783636+1031694294+1031931470+1030645002+1027005306+1023108643
1405+1021436284+1022110367+1023373338+1024180177+1024687702+1025304423
1393+1025975930+1026754182+1027821443+1028797981+1029174824+1029022214
1380+1028597936+1028309178+1028186789+1028065342+1028097321+1028284298
1368+1028369179+1028403671+1028421075+1028257973+1028087709+1028130934
1356+1028398708+1028444510+1027912355+1026859293+1025071959+1022191855
1343+1019031224+1017470762+1018371466+1020536335+1022463461+1023894497
1331+1025065551+1025821184+1026202802+1026927273+1028012692+1028495840
1318+1028227815+1027955016+1027759118+1027377751+1026975777+1026847607
1306+1027168031+1027710112+1028062326+1028527003+1029454283+1030347636
1294+1030925780+1031346603+1031459254+1031297346+1031125700+1030881738
1281+1030672583+1030674908+1030774176+1030766825+1030513628+1030337395
1269+1030402988+1030263195+1030034815+1030417941+1031247146+1031855448
1257+1032078048+1031779300+1030941362+1029835650+1028660324+1027801715
1244+1027767537+1028490751+1029388628+1030151989+1030646384+1030683829
1232+1030822051+1031626314+1032282805+1031298100+1028188045+1024613188
1220+1023180079+1024595157+1027070082+1029006570+1030300704+1031150956
1207+1031690650+1032224626+1032847190+1033349187+1033556142+1032765136
1195+1030017474+1026096497+1023822057+1024696435+1027209623+1029508252
1183+1030681756+1030443135+1029305129+1028496971+1028991743+1030346003
1170+1031514606+1032173924+1032609260+1032982522+1032759356+1030996588
1158+1028161092+1025925479+1024615827+1023777260+1023559058+1024416411
1146+1026224604+1027826155+1028544155+1028788619+1029330009+1030402799
1133+1031415274+1032055116+1032578663+1033151592+1033674134+1034145345
1121+1034554795+1034836642+1035081546+1035446955+1035693429+1035465238
1109+1035278575+1035471332+1035821976+1036540604+1037424407+1037919492
1096+1038164396+1038143098+1037901398+1037997085+1038510139+1039246359
1084+1039864839+1040011355+1039754199+1038310032+1034224319+1028700723
1072+1024382358+1021591407+1019499168+1018841106+1021380493+1026266447
1059+1030609504+1032512882+1030640227+1025440006+1021385833+1022458435
1047+1026919420+1030965111+1033504309+1035330723+1036844126+1037164864
1035+1035280460+1032229527+1030378736+1030883497+1032977684+1035062949
1022+1036484812+1037607299+1038732048+1039897510+1041054427+1042103719
1010+1042886558+1043171106+1041552277+1035554265+1027682970+1024580266
998+1026564567+1029141902+1030582362+1031017447+1030307363+1029004120
985+1028657748+1029498137+1028066033+1021787494+1016060899+1017735394
973+1025026283+1031628513+1031963701+1021429122+1003603654+991156462+988426077
959+988321406+990594841+999014123+1008890138+1015774906+1020500460+1023844046
944+1026110822+1027889172+1029470367+1030734029+1031611989+1032069504
932+1032358513+1032636464+1032448169+1031936936+1031719991+1031991031
919+1032347581+1032541720+1033387135+1035062258+1036075299+1035429300
907+1034161805+1033643474+1033887812+1034926235+1036786827+1038339184
895+1039123342+1039865091+1040904645+1041801579+1042321984+1042665905
882+1042351011+1041291038+1040459696+1039809676+1039128494+1039611077
870+1041609702+1044194513+1046426168+1045960423+1038646037+1026540315
858+1018769168+1016384338+1015629647+1019009611+1026165985+1030674594
845+1030264766+1030005411+1033340705+1037720955+1040711825+1042633360
833+1044320986+1045808819+1046731199+1047166723+1047829874+1048997472
821+1048807102+1045744986+1043378753+1045444416+1049653460+1052746363
808+1054080895+1053918987+1051016265+1039291910+1010663964+969646125+937846427
794+933951147+955045876+977412057+979899737+968762950+965219004+977248201
780+995125942+1007282429+1012936080+1016488130+1019684511+1024608727+1032358827
765+1037917796+1035285800+1025337471+1014984214+1009280929+1007283371
753+1004615438+997699131+988548592+982280105+979936994+980066608+982256042
738+985727170+988073737+984100613+972280319+959339738+949373439+943831120
724+946948902+958315577+973750937+988695736+996862009+991373784+976351142
710+967350009+968782176+968492664+955795855+940760333+941157720+951068290
695+954884093+957279792+966770608+977355323+982985477+985509219+987991621
681+991407020+995140958+998004035+1000181658+1003493705+1007456023+1008937007
666+1007564590+1007303853+1007587585+1009021888+1009663112+1005082188
654+1000653749+1003164611+1008902892+1013424066+1015518316+1015802738
642+1014440059+1010322556+1006072611+1006454103+1011073540+1015337056
629+1017885553+1019649830+1020745741+1021231905+1020381023+1019264316
617+1020456731+1023058129+1025059770+1025996035+1025937919+1026190488
605+1027438317+1028752870+1029416900+1030111340+1031074118+1030699536
592+1029309401+1029052686+1029686559+1030355238+1031041259+1031336362
580+1031636241+1032408775+1033401083+1034111292+1034137554+1035042530
568+1036961112+1036937866+1035390472+1034299964+1031981733+1028149343
555+1026152100+1027628058+1030496413+1031651320+1031247712+1032764948
543+1036321334+1037615467+1035938773+1034811448+1034885962+1034531486
531+1034276027+1034685918+1035242072+1036357837+1037528387+1037857607
518+1037389663+1034726756+1030341605+1029162007+1032310701+1035604402
506+1037528073+1038963633+1039499243+1038236272+1034979388+1031455359
494+1030309122+1031581706+1033489670+1035092101+1037174602+1040439528
481+1042272538+1040913692+1038841244+1038986816+1042091593+1045918517
469+1047156859+1045828924+1044600509+1045770682+1047173760+1046143504
457+1045708357+1045911731+1044473722+1043669899+1043167462+1042549233
444+1044890209+1047195498+1045771185+1045263848+1047960682+1051537487
432+1054080895+1054490660+1052153202+1052562967+1057537949+1062486291
420+1060929411+1057718391+1059856181+1061033328+1061680584+1064729758
407+1069565638+1073741823+1071043607+1061062104+1054080895
##END=
