##TITLE=LSH-R156A
##JCAMP-DX=5.0
##DATA TYPE=LINK
##BLOCKS=1


$$ === CHEMSPECTRA SPECTRUM ORIG ===
##TITLE=LSH-R156A
##JCAMP-DX=5.00
##DATA TYPE=INFRARED SPECTRUM
##DATA CLASS=XYDATA
##ORIGIN=Angelika Moesle
##OWNER=
##XUNITS=1/CM
##YUNITS=TRANSMITTANCE
##XFACTOR=1
##YFACTOR=8.0274626e-010
##FIRSTX=3997.453
##LASTX=373.96442
##MAXX=3997.453
##MAXY=0.8619422318160858
##MINX=373.96442
##MINY=0.40493202286084523
##NPOINTS=2559
##XYDATA= (X++(Y..Y))
2559I45475594I45556898I46175557I46657594I46624181I46224043I45716538I45302069
2551I45164408I45307415I45462229I45382780I45159433I45108349I45380553I45798511
2543I46080516I46125661I45997132I45755223I45499725I45501879I46012354I46891633
2535I47639934I47880210I47705200I47512593I47613426I47985943I48239064I47892832
2527I46920739I45998245I45926371I46645937I47302983I47528780I47830461I48463079
2519I48837898I48570149I48066060I47710546I47442723I47283901I47493659I47934636
2511I47972651I47325630I46488970I46209638I46618687I47061074I47087210I47135993
2503I47926245I49345254I50343632I50217628I49422921I48825647I48506962I47804696
2495I46622993I46010572I46956974I48950834I50776441I52005665I52466763I51694478
2487I49761357I47788436I47310557I48555225I49592213I49152128I48482161I48973332
2479I49614266I49164008I49034737I50484561I51617332I50712734I48987514I47956094
2471I47410721I47165545I48108160I49719850I50262922I50029402I50633359I52060239
2463I52713647I51917826I50065785I47699854I46108880I47936492I53565751I57231964
2455I56258534I53419699I50837921I49041345I48114174I47973246I48110387I48355490
2447I49511057I51806672I53630201I53760361I52873287I51991409I51296197I50818021
2439I50866506I50874823I49548998I47426017I47261699I49721781I51472840I51535284
2431I52233541I53769198I53862903I52089346I49940004I49016323I50259357I52354717
2423I52512650I50912914I50681622I52888657I54747528I54998199I54950308I55051289
2415I54627168I53763704I53188036I53036416I52870167I52579996I52444191I52395852
2407I52201687I52291902I53244096I54468939I54807894I54076152I52921327I52279651
2399I52991865I54608085I55387720I54830541I54008286I53309288I52459338I52174660
2391I53426381I55241965I55595251I54186191I52290194I51681188I53632799I56330855
2383I56515517I54740548I54446589I57205085I59392888I57914850I53944579I49981065
2375I48372938I50326406I54412360I57722317I58786777I58028082I56691046I55960566
2367I56146044I56588356I56880980I57363314I58080281I58327016I57367620I55178926
2359I52820791I52282175I54770249I58413222I60399731I60268455I59071085I58188167
2351I58729828I60267267I60894093I59871807I58262121I56886549I55495755I53916809
2343I53172444I54887714I58773116I61858910I62347555I60987278I59096627I57482487
2335I56153692I54839080I54374714I56346002I59277651I59694867I58440101I58794649
2327I60973542I62011570I61161991I59992910I59460234I59280547I58911742I58652904
2319I59496320I61167039I61264828I58555932I54979711I54080607I57913810I63391523
2311I65961793I65235619I63251634I61800622I61330837I61133701I60625602I60111711
2303I60020828I59890815I59018738I58183118I59465877I62588054I64275629I63599797
2295I61874131I60282563I59741792I60624562I61741222I61743375I61143576I60986610
2287I61191171I61342717I61859874I62995394I63803690I63449067I62403911I61641949
2279I61479561I61446075I61335070I61776343I63166914I64507143I64336737I62711607
2271I61311978I61807528I63785944I65072191I64897331I64238652I63926724I63883732
2263I63627269I63053309I62582708I62501551I62350005I61450901I60121364I59907521
2255I61856756I64486798I65679788I65421394I64838895I64564019I64461552I64200932
2247I63767975I63567572I63987535I64721283I65067366I65076722I65518069I66500706
2239I67071250I66710687I65991493I65494606I65258042I65292123I65716690I66280403
2231I66529886I66504196I66638367I67056845I67497524I67859943I68264239I68644701
2223I68795802I68706700I68527236I68335965I68121752I67917859I67931818I68483948
2215I69523386I70278964I70015150I69084044I68547432I68874136I69528435I69901769
2207I70015447I70107443I70175755I70126749I70017081I69987232I70165953I70655936
2199I71348548I71831402I71828135I71614738I71665525I72057125I72523866I72855025
2191I72911530I72590989I72082370I71844247I72129742I72783744I73514522I74071403
2183I74239730I74014081I73755540I73895577I74502059I75260903I75756528I75739079
2175I75314661I74858240I74616331I74525522I74473027I74506958I74718946I75083146
2167I75420988I75491452I75267883I75102897I75427151I76303460I77343270I78031873
2159I78177108I78076795I78159733I78557198I79158705I79878939I80681071I81498870
2151I82249176I82844223I83203672I83288615I83100760I82763364I82617610I82960054
2143I83626011I84116364I84165518I83919154I83572105I83159641I82825288I82968000
2135I83821514I85052297I86075697I86610156I86721755I86612160I86577485I86864539
2127I87340339I87515942I87133847I86623669I86682550I87388602I88077576I88257932
2119I88201353I88370273I88752591I89085236I89334125I89653775I90080272I90436157
2111I90504616I90227289I89686371I88998065I88388836I88199125I88508602I88871690
2103I88716580I87954543I87036059I86450368I86287610I86333422I86422078I86461654
2095I86270680I85773125I85255521I85047916I85071305I85025047I84794572I84388271
2087I83761593I82955154I82187028I81643438I81248497I80597762I79085939I76139587
2079I71023700I62325651I48722661I31464372I15488322I06493863I06593062I13253147
2071I22078609I29903691I35593020I39279058I41549948I42858026I43222821I42609731
2063I41497601I40615276I40159971I39743646I39010641I37884403I36422401I34847689
2055I33444421I32112137I30344148I27877384I25028451I22226741I19540788I16807612
2047I13989121I11209167I08527744I05849811I03051516I00069154H96830552H93259306
2039H89469242H85844609H82758147H80227899H77958642H75683743H73329913H70871318
2031H68204893H65301460H62401590H59877059H57837906H56020318H54153947H52283121
2023H50604382H49127012H47684242H46273920H45214360H44804198H44843551H44693786
2015H43976300H43063088H42634512H42838924H43192581H43311160H43366254H43623979
2007H43873759H43671723H43026482H42495514H42547044H43096649H43797578H44485067
1999H45057616H45235670H44899461H44473781H44576173H45401695H46671014H47990453
1991H49104217H49966567H50655689H51193860H51598379H52092222H52969571H54194562
1983H55434478H56514829H57546323H58586578H59488207H60173023H60823387H61661977
1975H62672532H63655837H64516999H65358262H66265162H67199462H68195686H69386819
1967H70687695H71766116H72505284H73178739H74052821H75072064H75952828H76424692
1959H76507853H76583291H76929747H77274940H77153168H76564284H75904416H75381764
1951H74858963H74224267H73643921H73342611H73267172H73177997H73060532H73203241
1943H73791012H74639923H75468266H76250351H77150272H78243394H79471579H80764584
1935H82037913H83176625H84188441H85289064H86671170H88246998H89698380H90751184
1927H91365239H91673752H91819283H91905340H91981596H91917666H91468893H90664088
1919H89920762H89590791H89618412H89771146H89971104H90260608H90597484H90864342
1911H91103579H91580418H92447892H93492008H94421110H95200076H95816730H95992111
1903H95508960H94588323H93567150H92416558H90966066H89411920H88197991H87496098
1895H87096702H86715053H86183936H85470830H84738493H84347414H84656297H85741623
1887H87279879H88734009H89724367H90247985H90526798H90694456H90707673H90586347
1879H90641738H91263961H92431185H93635683H94398686H94661831H94631240H94498999
1871H94373589H94249293H93952141H93258118H92160244H90955596H90034069H89630292
1863H89761493H90268553H90889068H91414245H91822922H92204200H92590602H92917009
1855H93128104H93289970H93540939H93882122H94148460H94265330H94310996H94254639
1847H93968402H93566704H93356574H93388873H93378701H93124466H92782986H92684455
1839H92966386H93450205H93893037H94246694H94579338H94902256H95196438H95443545
1831H95569252H95555961H95584547H95831654H96219764H96633935H97209751H98068315
1823H98957989H99543680H99921543I00466916I01254941I01970497I02368408I02550842
1815I02770477I03137722I03571197I03926044I04085163I03980841I03646415I03230313
1807I02868339I02555372I02190577I01705867I01140743I00638065I00321756I00158255
1799I00020371H99845585H99635900H99444333H99484131I00051037I01157153I02402266
1791I03341986I03897903I04334646I04931921I05754471I06688623I07568199I08236235
1783I08628651I08869967I09215159I09866711I10859074I12031051I13089869I13837130
1775I14338621I14734378I14980891I14982525I14867362I14860976I14920599I14747892
1767I14229323I13682168I13553937I13988305I14788209I15635116I16213382I16319264
1759I16060722I15834034I15946673I16345920I16744869I16865305I16590725I16077206
1751I15659396I15490401I15373159I15061602I14584020I14180466I14073322I14304242
1743I14642901I14744551I14558254I14432845I14680323I15237205I15871382I16500139
1735I17154290I17806213I18351957I18708287I18865996I18882851I18867184I18965344
1727I19294424I19827917I20379230I20732738I20801866I20697543I20655740I20820206
1719I21104513I21332091I21444582I21464481I21356223I21109933I20924528I21121516
1711I21805367I22692146I23354835I23590062I23503708I23368348I23495615I24067941
1703I24927395I25657282I26000767I26071676I26113776I26235102I26446495I26767556
1695I27186479I27600428I27869588I27923791I27819469I27713438I27755241I27984677
1687I28345165I28772034I29221326I29647526I30021157I30336945I30545888I30517821
1679I30151541I29510236I28828241I28405531I28444661I28891949I29449870I29837014
1671I30017890I30126519I30240568I30356103I30550566I30961470I31528747I31940172
1663I31988212I31807634I31614210I31445363I31334952I31442765I31769616I32026971
1655I32014051I31892057I31925693I32144362I32360060I32422357I32421243I32597292
1647I32988149I33302750I33289236I33049926I32856279I32864373I33074651I33324505
1639I33340544I33041907I32696566I32586823I32719880I32993124I33349751I33657298
1631I33747142I33665392I33642596I33794440I34019123I34147206I34061371I33748404
1623I33328441I32984362I32818263I32795245I32815441I32804972I32741562I32637536
1615I32530244I32463195I32450127I32467724I32524304I32698199I33027279I33373288
1607I33513696I33410934I33278619I33333713I33559955I33765185I33823695I33801865
1599I33830080I33902326I33906781I33838693I33821616I33918661I34080825I34227545
1591I34252494I34118916I34069836I34505318I35508745I36707452I37666031I38268503
1583I38707103I39218321I39870838I40559960I41100656I41275515I41018460I40717669
1575I41038878I42183308I43538090I44256765I44028518I43221410I42486549I42268474
1567I42549588I43014324I43454410I43908602I44403856I44776002I44889012I44887452
1559I45058526I45503067I46037970I46369352I46312624I45928599I45499948
1552I45310905I45441438I45777646I46123062I46255897I46087347I45869049
1545I45983544I46373213I46521344I46251367I46141105I46775950I47877833
1538I48555819I48297648I47450074I46752190I46608069I46904850I47340925
1531I47669486I47748636I47611050I47407230I47193908I47001524I47073325
1524I47660724I48676179I49864714I51057926I52001134I52365855I52225670
1517I52083777I52207182I52342021I52240595I52089420I52232427I52696495
1510I53175117I53402844I53431579I53538352I53906191I54407830I54698820
1503I54538512I54075186I53783157I53996926I54487799I54687905I54383996
1496I53938639I53729029I53660792I53422966I52985183I52584970I52334596
1489I52123798I51932379I51942923I52191292I52385013I52276532I52004848
1482I51926661I52248243I52837646I53277360I53224865I52815817I52539083
1475I52661002I52993498I53247214I53365942I53435143I53450662I53378935
1468I53442643I54039249I55147667I56099043I56295883I55929380I55653909
1461I55779171I56077659I56182427I55975787I55697272I55695787I56019892
1454I56406071I56702629I57005721I57358933I57668040I57935566I58231530
1447I58433344I58336669I58005733I57720461I57603887I57590076I57692320
1440I57991401I58401639I58721214I58858876I58842838I58742673I58671392
1433I58687430I58701464I58650156I58629069I58680377I58687505I58619491
1426I58608799I58669462I58565213I58083325I57334950I56689635I56417209
1419I56476164I56679463I56954860I57371852I58013306I58852639I59624700
1412I59891929I59417688I58384932I57219490I56478020I56782745I58276452
1405I60168216I61369076I61565990I61283614I61086552I61164367I61475330
1398I61747459I61493150I60463884I58966985I57668931I57194542I57627944
1391I58377136I58888502I59180902I59506344I59928312I60315233I60558479
1384I60735865I61021434I61353410I61336480I60709283I59752931I59063362
1377I59084302I59851833I60977032I61879477I62262760I62371315I62650425
1370I63220375I63788840I63974244I63581902I62725715I61859727I61527231
1363I61830397I62227565I62102156I61502431I61063460I61210551I61727857
1356I62146855I62274863I62234694I62160146I61980384I61546536I60988392
1349I60780638I61264308I62216057I63115681I63719415I64153412I64602927
1342I65101373I65508714I65607393I65388947I65166714I65112733I64877135
1335I64137002I63327519I63200401I63778740I64404677I64773258I65330363
1328I66550231I68174618I69386171I69793882I69963025I70545376I71245117
1321I71422279I71291671I71540338I72129816I72380042I71962158I71223435
1314I70724915I70699001I70897548I71015904I71028304I70854185I70234486
1307I69341769I68849485I69060952I69590212I70028961I70280226I70237383
1300I69877415I69749777I70629354I72357247I73598425I73200069I71448119
1293I69693347I69030286I69532965I70519834I71372531I71974409I72387541
1286I72542874I72381601I71923473I71232790I70599802I70357670I70365689
1279I70363090I70596015I71194700I71625207I71715570I72194340I73422746
1272I74840569I76256459I78182602I80235195I80675503I78467800I74866037
1265I72155730I71758042I74213297I79342550I85254482I89231287I90635149
1258I90520060I89306281I87250941I85608585I85248616I85282401I84723365
1251I84279494I84924288I85931428I85849009I84547762I83102542I82350900
1244I82406885I82943868I83368286I83224685I82655180I82073128I81491075
1237I80662730I79817012I79655221I80373524I81127542I80947335I79964253
1230I79213057I79384799I80244922I81141873I81699794I82037264I82411712
1223I82694088I82556130I82219550I82347485I83037053I83623709I83603736
1216I83120288I82493907I81848073I81297280I81046312I80996638I80526926
1209I79230951I77806967I77530754I78821680I80938054I82945947I84314243
1202I84889316I84996238I85203175I85550595I85554456I85192854I85064029
1195I85279949I85144220I84431485I84022437I84585407I85548219I86066489
1188I86031889I85433204I84002092I82286599I81739815I82856475I84357308
1181I85096254I85380263I85799558I86188559I86159230I85684395I85003069
1174I84457175I84248085I84070923I83502680I83005348I83824781I86414430
1167I89555689I91705179I92804612I93932187I95464503I96558961I96520054
1160I95766481I95022190I94406650I93769058I93200964I92937819I93154705
1153I93755767I94208549I94106676I93878355I94300249I95358547I96180356
1146I96042472I95048104I93891200I93116021I92637993I92258942I92392000
1139I93588479I95383865I96411351I95956341I95029021I95485219I97777642
1132I99968488I99991803I98021407I95347261I92333268I88977646I86493582
1125I86551646I89051079I91927783I93103175I92133383I90367326I89476983
1118I89791659I90481078I90974030I91299472I91330806I90879286I90364579
1111I90336438I90650593I90809342I90560377I89865241I89094220I89163643
1104I90512190I92160337I92738306I92126702I91286404I91028308I91603827
1097I92939897I94659475I96073806I96661131I96605071I96467559I96396575
1090I96065341I95421140I95007637I95447648I96905639I98953702A000840492
1083A001960864A002157035A001699872A001103860A000835220A000999686A001309906
1076A001378143A000987286A000293634I99899956A000395952A001541643A002270045
1069A002055979A001587382A001653094A002128820A002369912A002218218A002147457
1062A002487303A002905781A002877863A002470151A002354988A003047452A004156909
1055A004720548A004447898A003801173A003160759A002628305A002336574A002436590
1048A002759581A002904073A002723569A002478170A002507796A002879274A003344901
1041A003683560A004024223A004573680A005070121A005124993A004840389A004482499
1034A004033504A003310449A002365012A001546989A001217984A001442444A001948984
1027A002587615A003505357A004614962A005432614A005770753A006092556A006998417
1020A008570903A010241029A011418946A012093218A012607629A013061970A013266531
1013A013218416A013214481A013560935A014372573A015473120A016400588A016789143
1006A016717788A016495110A016440387A016945516A018132565A019333796A019924759
999A020178326A020600962A021194747A021668839A022072170A022645239A023270060
992A023571667A023432818A023164178A023298424A024001283A024671026A024842768
985A024727234A024571678A024520891A024923478A025945321A026972582A027420389
978A027634009A028038305A028402283A028472970A028459679A028539276A028460422
971A027972445A027160660A026144165A025058096A024255221A024026009A024020811
964A023597210A022960137A023209991A024873286A026448890A026819180A026837297
957A027305672A028258311A029599282A031171397A032412130A032991955A033565395
950A035237006A037873953A039739062A040173058A039964487A039783835A039857195
943A040305225A041239301A042349947A043000088A043334588A044421250A046616924
936A048598532A049884261A051071905A051657670A050982358A049471278A047713684
929A045865356A044123058A043261822A044074795A045740243A046968650A047980542
922A049363094A051508946A054520414A057636205A059884225A061585315A063701466
915A066012080A067342953A067682874A067994357A068932517A070239110A071175934
908A071434104A071196279A070949692A071512811A073102820A073741822A072562496
901A070507082A067878377A064317748A059731269A054168168A047192294A038329185
894A027084627A011423104I88056192I59814634I35620938I18080941I05894955
887H99492596H99516132I04500226I12725371I23048327I32673993I38932826
880I42305377I44495333I45503809I43900286I39866457I35196668I31865624
873I31417222I34454605I40590774I48814286I57892500I66805135I75023374
866I82475642I89293361I95552862A001249763A006409014A010964604A014606166
859A016946554A017603379A016059034A011765994A004202870I92865127I77963191
852I60467819I40684331I19152976I00310841H88432254H82350064H80167904
845H81082007H82934567H82950977H79866668H73530540H64286970H51031845
838H29373743H00961852G79641817G68329393G63919408G66381271G75769631
831G89823251H04549806H17425806H29231479H41729541H56129541H75638969
824I01393271I23469330I36385054I44956431I53546297I61624945I65832225
817I65489408I61960262I55830329I47290806I36781406I23807913I07731180
810H90152647H72022653H51570609H28578887H05525686G83938717G64083206
803G46686365G32560499G22683568G17993880G16433274G16058976G17328889
796G20904665G25783767G29231459G29461117G28041737G27979514G31567616
789G39766030G50930547G61903496G71600591G80946480G90987431H01727602
782H11823129H19881506H25705748H30080018H34800966H42722721H54505377
775H66193436H73759159H74416873H64160520H41337497H13393016G90251382
768G74936982G67084353G67322773G73567127G79653845G83712846G87152742
761G90874124G95235326H00330721H05488783H09803875H13146354H15713283
754H17455951H18594515H19933185H21841211H23334620H23797425H24148929
747H25603282H28221815H30777977H32289650H32621998H31838800H30116698
740H28018367H25998371H23302840H18372059H10790744H01710227G93472312
733G88758418G88934022G93447586H00989846H10137409H18999109H26290102
726H32529556H38769826H44998438H50680489H55858970H60477081H63980685
719H66439132H68804469H71941942H75677431H79023252H81547263H83659924
712H85793524H87944871H89890542H91688527H93862371H96800777I00015916
705I02749909I04993623I07083490I08892018I10021524I10325136I09671951
698I07536643I03310429H96774641H88168811H78382689H69139266H62337809
691H58831829H57948986H58135281H57998362H56868858H54710755H51875929
684H48968634H46743409H45904967H46799097H49274845H52883737H57198086
677H61964475H66979085H71993843H76885716H81711877H86482721H91093778
670H95489506H99648523I03395595I06451762I08720425I10379042I11671379
663I12633448I12888352I11417664I06307939H95015785H75713666H49169557
656H19691201G93972243G78116926G74739548G82078732G95588983H10716345
649H24743234H36798612H46930743H55404704H62469307H68269417H72722913
642H75504648H76313316H75333427H73475001H72071510H72212958H74221222
635H77582710H81330152H84615905H87086233H88864023H90324315H91881060
628H93830963H96251320H98986203I01657381I03344956I02016978H95154931
621H82502427H68251152H58853139H57808651H63312575H71010167H77797666
614H82818439H86331695H88723985H90303896H91340513H92006099H92370745
607H92563871H92819666H93266656H93837052H94467591H95211808H96148112
600H97333602H98793300I00434172I02032051I03364484I04356699I05169672
593I06152235I07589881I09474740I11566611I13616308I15486763I17155552
586I18699154I20238821I21823039I23343401I24624303I25597213I26317595
579I26854801I27283822I27735491I28289625I28828761I29161256I29341390
572I29730910I30641375I32040559I33747068I35761495I38198410I41052986
565I44227065I47629242I51134999I54620114I58048873I61325565I64032605
558I65350262I64117697I59207113I50619549I40664134I33485407I32510864
551I38086513I47748786I58513461I68558050I77244294I84528902I90583248
544I95413047I98219954I96876236I88560430I72129965I50477952I29793206
537I15308486I06934691H98745037H83546469H59574190H33259220H14753441
530H10522476H20127871H38688447H60844103H82787550I02393653I18782761
523I32013012I42810209I52064397I60307437I67652337I74134888I79940641
516I85328659I90452343I95226306I99345524A002536977A004813733A006362978
509A007179293A006927731A005047474A000680407I92371730I77943663I54936497
502I21942954H80468026H35558919G93623190G58786888G31224502G08812605
495F89907580F74632311F64321754F60239142F62512037F69833548F80086857
488F91402177G02765983G13781700G24081713G33198462G40968524G47765527
481G54135513G60326481G66287938G71948531G77301428G82331408G87030971
474G91492189G95921256H00528525H05354685H10225769H14959933H19564678
467H24123387H28590248H32867101H36983646H41009530H44926786H48813895
460H52804214H56321183H57824987H56401374H53544644H52257504H54200205
453H58493690H63234834H67297473H70601713H73455844H76098360H78677911
446H81345375H84196536H87201767H90318969H93548364H96776349H99758191
439I02343237I04459759I05817363I05960740I04773469I02766987I00817084
432H99636568H99275039H98876536H97018629H92498605H84862567H74304309
425H61293544H46230706H29129309H09687375G88100481G65919356G45774192
418G30060991G19992641G15813873G17418510G24311668G35129210G47715556
411G59984852G70758437G79913724G87923690G95231836H01941668H07991707
404H13431998H18366416H22733484H26287356H28762287H30033537H30199785
397H29599244H28847527H28826663H30322819H33423314H37430636H41501220
390H45193198H48407446H51181757H53680003H56140530H58708721H61361483
383H63938510H66222171H68077850H69548389H70775312H71852692H72739026
376H73290413H73494529H73654317H74137913H74993877H76064204H77339241
369H78900515H80668578H82476959H84225864H85789738H86998468H87875149
362H88723093H89827354H91115088H92236722H93011011H93607617H94156479
355H94430093H94198654H93714612H93594177H94327182H95956767H98060444
348I00050591I01640006I02962638I04251485I05630028I07188777I08934268
341I10648127I12122973I13572648I15482308I17960209I20555650I22914082
334I25290260I28070882I31112497I34074069I37163649I40876344I44912475
327I47675871I46768302I40035897I26974048I09812062H92925473H80571086
320H74831787H75190494H79446779H85141082H90714058H95676024H99953248
313I03454699I06232351I08641719I11138629I13949917I16975568I20017776
306I23041199I26124246I29276717I32420501I35468872I38463931I41755177
299I45884419I51137596I57295967I63721197I69265216I72032547I69929242
292I62539048I52843438I45853976I43898356I43225123I36044465I15737508
285H80020813H30893066G73538763G14770128F60685167F15291647E81406945
278E61556928E56684843E64545453E80420336E99428570F18073532F34366559
271F47472588F57509010F65327928F72053724F78534568F85207126F92555071
264G01482036G12924622G27093850G43205332G59883574G75860960G90438568
257H03194430H13174421H18763436H18945722H14875435H09833279H07225586
250H08578438H13284981H19743919H26516642H32726618H37888690H41842700
243H44883646H47476859H49678696H51213611H52079451H52539881H52624304
236H52200777H51441338H50728381H50119745H49266603H47877072H45886330
229H43128354H39445212H35265628H31296916H27515837H23272694H18348819
222H13079380H07567289H01560835G94995570G88048580G80674276G72623769
215G64061747G55688323G48125792G41571293G35944262G30921856G25808492
208G20107581G14388850G09306597G05029522G01462211F98268976F95316166
201F92921871F91212465F89914486F89095721F89285060F90727088F93173655
194F96197153F99227333G01815422G04294661G07589248G12081948G17201846
187G22096986G26184276G29407582G32532506G36657367G42122384G48511674
180G55642955G63766525G73075585G83829940G96698589H12440005H30955064
173H49561008H61539983H58267001H35061512G95685509G51432706G15260183
166F95012776F90517402F96227967G06258226G17147049G27569946G37390521
159G46845856G55013902G58158131G50148610G27155404F94562296F66738399
152F56007063F63352111F80798330G00289789G18608381G35427104G50319462
145G62549627G72072604G79741684G86481068G92483958G97421495H00817287
138H01662262G98090348G88038407G70698962G48180070G25820521G09636791
131G02773111G04396533G11291473G19955515G27829676G33668694G37584316
124G40809776G44651667G49256857G53822991G57819992G61268056G64206462
117G66659787G68764800G70506801G71691326G72230759G72262612G72372949
110G73627270G76506349G79911272G82500700G84656724G87586516G91335519
103G94908325G97847250H00649109H03767647H07065501H10094270H12540838
96H14518586H16501976H19010395H22446653H27041596H32557696H38092732
89H42550311H45331528H46400221H45469486H40934463H30285396H12644714
82G91100664G72485068G64324001G69741719G84546090H01122161H14750471
75H24793947H32310737H38843557H45865466H53419606H60065805H65301608
68H70121681H74491570H76957517H77182646H76686353H76422316H74639032
61H67010048H49136070H20173832G81515687G32956702F75779190F16817132
54E65017206E27146492E07078957E04433397E14991023E33631455E55890692
47E78720175F00642016F20646846F38022303F53374571F68060956F82194469
40F94146491G02579093G08557480G14677834G22119855G29830589G36756641
33G43011909G48704801G53315264G56724494G59507270G62781364G67243770
26G72236253G76828227G80800502G83985495G86168101G88064618G90990995
19G95658482H01850488H07910328H10981569H10274180H08197902H07149999
12H07166483H07762792H10158943H15951851H24839537H35107622H44677006
5H50126949H46098242H26154150G90907240G61214818
##END=


$$ === CHEMSPECTRA PEAK TABLE EDIT ===
##TITLE=LSH-R156A
##JCAMP-DX=5.00
##DATA TYPE=INFRAREDPEAKTABLE
##DATA CLASS=PEAKTABLE
##$CSTHRESHOLD=0.93
##MAXX=3997.453
##MAXY=0.8619422318160858
##MINX=373.96442
##MINY=0.40493202286084523
##$CSSOLVENTNAME=- - -
##$CSSOLVENTVALUE=0
##$CSSOLVENTX=0
##NPOINTS=27
##PEAKTABLE= (XY..XY)
444.79101460515994, 0.40493202286084523
485.870439476153, 0.6135582332309862
558.1135659734164, 0.5641484864838149
587.8607357075839, 0.5266072163568344
606.2756503049254, 0.5543102627231627
653.0212027443313, 0.5531690128147535
764.9272222204845, 0.4468766757169372
825.8380935809223, 0.7022679459461129
871.167114128225, 0.717329383544528
932.0779854886628, 0.6653375039115305
961.8251552228303, 0.574616909406865
1017.0698990148553, 0.6841465238929351
1069.481579022674, 0.5300045019461089
1123.3097909225953, 0.6506438862549397
1247.9645974276777, 0.6886026863858953
1297.54321365129, 0.6219192746310905
1338.6226385222826, 0.6790470485746735
1349.9548936591086, 0.6887153397822924
1410.8657650195464, 0.6331728700930167
1459.0278493510555, 0.6157740954752698
1493.0246147615321, 0.5843828330228639
1502.9403380062545, 0.5748136649234298
1553.93548612197, 0.6132334477134141
1570.9338688272087, 0.7065514931080391
1629.01167640344, 0.722064317336691
3224.0265869116497, 0.6764217030549251
3310.435032329945, 0.7276845582362024
##END=


$$ === CHEMSPECTRA PEAK TABLE AUTO ===
##TITLE=LSH-R156A
##JCAMP-DX=5.00
##DATA TYPE=INFRAREDPEAKTABLE
##DATA CLASS=PEAKTABLE
##$CSTHRESHOLD=0.93
##MAXX=3997.453
##MAXY=0.8619422318160858
##MINX=373.96442
##MINY=0.40493202286084523
##NPOINTS=186
##PEAKTABLE= (XY..XY)
3986.1207448631744, 0.7587271936071142
3979.0380854026585, 0.7586821924545247
3969.1223621579356, 0.7589963680747785
3959.2066389132133, 0.7606121903336522
3949.290915668491, 0.7593388565556225
3933.709064855356, 0.7604286086859603
3925.2098735027366, 0.7595662480804539
3905.3784270132915, 0.7594064485934607
3892.6296399843627, 0.7604500066902669
3886.96351241595, 0.7613905074194679
3881.297384847537, 0.7618340857368336
3871.381661602815, 0.7603335988496117
3865.715534034402, 0.7626325493455366
3855.799810789679, 0.7594853649727888
3843.0510237607505, 0.76098197780656
3828.8857048397185, 0.7632656102983515
3821.8030453792026, 0.7604107861134958
3809.054258350274, 0.761819303967202
3801.9715988897574, 0.7631561165112337
3796.3054713213446, 0.7665827882328481
3782.1401524003127, 0.7643763430049406
3772.2244291555903, 0.7644389283143553
3760.8921740187648, 0.7643546471817716
3752.392982666145, 0.7639585143793569
3745.310323205629, 0.7661784296895072
3736.81113185301, 0.7613028290647119
3726.8954086082877, 0.7673937690639832
3712.7300896872557, 0.7644409544459155
3704.2308983346365, 0.7691819674355055
3691.4821113057073, 0.7651556145560595
3677.3167923846754, 0.7661207323020697
3671.6506648162626, 0.7693842065117723
3658.901877787334, 0.7695550333241391
3650.4026864347147, 0.7658846390077798
3630.5712399452696, 0.7691779143696387
3620.655516700547, 0.770429134093698
3613.572857240031, 0.7714284070875786
3597.991006426896, 0.7717081320493382
3589.491815074277, 0.7716895950327023
3568.2438366927286, 0.7705621724286215
3554.0785177716966, 0.7735002646802808
3538.4966669585615, 0.7748572831504229
3531.414007498045, 0.775857628613307
3514.4156247928067, 0.7769924412994573
3504.4999015480844, 0.7774978286706044
3491.7511145191556, 0.7786536227357523
3483.2519231665365, 0.77996009709038
3471.919668029711, 0.7801443345817662
3462.003944784988, 0.7816786178892804
3447.838625863956, 0.7822545778951291
3437.922902619234, 0.7827602036819152
3429.423711266614, 0.7851474891790368
3411.0087966692727, 0.7887926114376387
3399.676541532447, 0.7889593241754229
3388.3442863956216, 0.7919713862839561
3381.2616269351056, 0.7920084603172279
3374.1789674745896, 0.7932749402476899
3355.7640528772477, 0.7932731517290226
3345.8483296325253, 0.7917386902118386
3335.932606387803, 0.7907435304897942
3310.435032329945, 0.7276845582362024
3231.1092463721657, 0.6781634103767995
3224.0265869116497, 0.6764217030549251
3211.277799882721, 0.6763101229302777
3199.945544745895, 0.677898169365809
3127.7024182486316, 0.7008460768166104
3089.456057161845, 0.7141156804056917
3049.7931641829555, 0.7099065791291717
3035.6278452619235, 0.7149148592613123
3012.963334988272, 0.7141473896857079
2986.049229038311, 0.7171386486249133
2978.966569577795, 0.7165991076113883
2964.801250656763, 0.7189041983134559
2916.6391663252543, 0.7220255743939447
2879.8093371305704, 0.7344012269039498
2872.7266776700544, 0.7333520062350256
2862.810954425332, 0.7351823455742129
2844.3960398279905, 0.7337689406012757
2837.3133803674746, 0.7340575463449097
2821.7315295543394, 0.7376171953927319
2810.399274417514, 0.7390529520325324
2799.067019280688, 0.7392687205942653
2789.1512960359655, 0.7412304879593785
2766.486785762314, 0.7447184927062419
2746.6553392728692, 0.7452740677735641
2722.574297107115, 0.7476256495252795
2715.491637646599, 0.7480728634804569
2708.408978186083, 0.7484976655628012
2699.909786833464, 0.7488468890847666
2689.994063588741, 0.748630584288532
2680.0783403440187, 0.749478102115691
2667.3295533150895, 0.7487978942695337
2657.413830070367, 0.748520852085775
2646.0815749335416, 0.749185920940215
2638.9989154730256, 0.749605954709775
2631.9162560125096, 0.7496218097511562
2623.4170646598905, 0.7498210674278134
2605.002150062549, 0.755157590505668
2593.6698949257234, 0.7564024934194072
2582.3376397888974, 0.7585048682139296
2571.005384652072, 0.7588447935259653
2562.5061932994527, 0.7592928415345068
2555.4235338389362, 0.7595112334710173
2545.507810594214, 0.7598860870755719
2534.1755554573883, 0.7602019316053003
2521.4267684284596, 0.764281691193424
2515.760640860047, 0.7642862210905692
2498.7622581548085, 0.7656458621327429
2480.347343557467, 0.7641601570151526
2471.8481522048473, 0.7641555669120379
2463.348960852228, 0.7646471863820796
2453.433237607506, 0.7653213744340331
2443.517514362783, 0.7671476013041304
2435.018323010164, 0.7671812187120066
2415.186876520719, 0.7687018521221158
2403.8546213838936, 0.769569874496994
2398.188493815481, 0.769535899867032
2392.522366247068, 0.7695196282003418
2384.023174894449, 0.7677603375243883
2367.02479218921, 0.7678091533272052
2357.1090689444877, 0.7715086351542956
2345.776813807662, 0.768384338682913
2324.528835426114, 0.7698845269485262
2304.697388936669, 0.771862388573406
2297.614729476153, 0.7714900981376597
2283.449410555121, 0.7712630638349139
2260.78490028147, 0.7732055195332503
2242.369985684128, 0.7797007562644005
2232.4542624394057, 0.7792249926384863
2222.538539194683, 0.7777403005866761
2212.6228159499606, 0.778463006622584
2202.707092705238, 0.7778854379132304
2187.125241892103, 0.7789509904548142
2184.2921781078967, 0.7789553413395435
2163.044199726349, 0.7800751338404229
2148.8788808053164, 0.7909046416641762
2144.629285129007, 0.7901266826031925
2136.1300937763876, 0.788578510982634
2121.9647748553552, 0.7864145647472235
2114.8821153948393, 0.7860596192499169
2102.1333283659105, 0.788473070261383
2082.301881876466, 0.7847091568084801
2066.7200310633307, 0.7907564651402815
2061.053903494918, 0.7899203310578357
2049.7216483580924, 0.788087964784342
2029.8902018686472, 0.7891038666669985
2008.642223487099, 0.797077120614807
2001.559564026583, 0.7978321323712023
1988.8107769976543, 0.796532154642057
1980.311585645035, 0.7987558251992115
1967.5627986161062, 0.7919040334645033
1957.6470753713836, 0.7942989474593336
1946.3148202345583, 0.7949888717462219
1939.2321607740419, 0.7939916858926173
1929.3164375293195, 0.7955442678011281
1913.7345867161844, 0.7987386592731877
1629.01167640344, 0.722064317336691
1609.180229913995, 0.7476916914600897
1570.9338688272087, 0.7065514931080391
1553.93548612197, 0.6132334477134141
1502.9403380062545, 0.5748136649234298
1493.0246147615321, 0.5843828322201177
1459.0278493510555, 0.6157740954752698
1410.8657650195464, 0.6331728700930167
1349.9548936591086, 0.6887153397822924
1338.6226385222826, 0.6790470485746735
1297.54321365129, 0.6219192746310905
1276.2952352697416, 0.7000521431050526
1247.9645974276777, 0.6886026863858953
1154.473492548866, 0.7485696084853687
1123.3097909225953, 0.6506438862549397
1069.481579022674, 0.5300045019461089
1017.0698990148553, 0.6841465238929351
961.8251552228303, 0.574616909406865
932.0779854886628, 0.6653375039115305
871.167114128225, 0.717329383544528
825.8380935809223, 0.7022679451433667
764.9272222204845, 0.4468766757169372
728.097393025801, 0.6479973201378084
653.0212027443313, 0.5531690128147535
606.2756503049254, 0.5543102619204165
587.8607357075839, 0.5266072163568344
558.1135659734164, 0.5641484864838149
485.870439476153, 0.6135582332309862
444.79101460515994, 0.40493202286084523
390.9628027052381, 0.6479366429562537
##END=

##END=

