##TITLE=SiO-R451
##JCAMP-DX=4.24
##DATA TYPE=INFRARED SPECTRUM
##DATE=23/11/2021
##SAMPLING PROCEDURE=Diamant-ATR
##ORIGIN=Angelika Moesle
##XUNITS=1/CM
##YUNITS=TRANSMITTANCE
##RESOLUTION=4
##FIRSTX=3997.453
##LASTX=373.96442
##DELTAX=-1.4165319
##MAXY=0.95577252
##MINY=0.26815954
##XFACTOR=1
##YFACTOR=8.9013252e-010
##NPOINTS=2559
##FIRSTY=0.94660616
##XYDATA=(X++(Y..Y))
3997+1063444076+1063519608+1063856425+1064279689+1064609340+1064664249
3989+1064456802+1064259198+1064299241+1064477426+1064466846+1064144828
3980+1063881000+1064165184+1064913814+1065460154+1065321811+1064700475
3972+1064132909+1063910195+1063934904+1063982112+1064020079+1064229334
3963+1064677306+1065127087+1065350538+1065421852+1065427008+1065173090
3955+1064583158+1064088179+1064168399+1064706903+1065159362+1065218556
3946+1065016132+1064820202+1064823015+1065041108+1065277683+1065398884
3938+1065530530+1065733825+1065784716+1065557984+1065361653+1065493434
3929+1065752976+1065888440+1066060598+1066506896+1067108948+1067547947
3921+1067677518+1067543260+1067245951+1066922661+1066748159+1066792019
3912+1066837419+1066556984+1066040643+1065840830+1066178316+1066453260
3904+1065946964+1064919171+1064291675+1064390711+1064815381+1065078741
3895+1064965174+1064564342+1064256788+1064457271+1065005083+1065258332
3887+1064918703+1064334597+1064095611+1064247480+1064384082+1064336807
3878+1064349864+1064703019+1065341163+1065894198+1066068432+1066063343
3870+1066247086+1066520691+1066548078+1066314181+1066062205+1066110752
3861+1066636132+1067465317+1068208322+1068564625+1068413827+1067799321
3853+1067216220+1067338961+1067838761+1068063484+1067882420+1067537769
3844+1067357509+1067518551+1067974693+1068583909+1069209263+1069618532
3836+1069497399+1068764170+1067722918+1066882082+1066535757+1066551694
3827+1066750837+1067182538+1067843717+1068542862+1069160917+1069614448
3819+1069639357+1069151475+1068557861+1068394810+1068599578+1068715757
3810+1068551969+1068134665+1067543796+1067090332+1067281374+1068314992
3802+1069764441+1070531285+1069919390+1068573330+1067454536+1066922393
3793+1066758002+1066785389+1067104260+1067667072+1068138749+1068348339
3785+1068484739+1068666004+1068716962+1068553509+1068421260+1068560004
3776+1068865818+1069114245+1069203572+1069115115+1068955546+1068958961
3768+1069122146+1069095830+1068751581+1068434050+1068480186+1068897223
3759+1069479319+1069869839+1069874325+1069908141+1070624027+1071990645
3751+1072949601+1072755881+1072111109+1071596107+1071187173+1071089878
3742+1071477452+1071917724+1072061490+1071953079+1071837504+1072060553
3734+1072714566+1073322912+1073408221+1072873734+1071732709+1070089674
3725+1068449585+1067572790+1067779701+1068736381+1069839371+1070655633
3717+1071158648+1071539391+1071863083+1071964329+1071661596+1071120145
3708+1070761901+1070782860+1071063161+1071340381+1071427364+1071408816
3700+1071465733+1071408615+1070957093+1070470417+1070702171+1071688046
3691+1072493124+1072373062+1071812728+1071619678+1071645190+1071565841
3683+1071563229+1071980534+1072802955+1073561629+1073741823+1073123031
3674+1071889734+1070541530+1069454677+1068825507+1068746961+1069012195
3666+1069290019+1069389524+1069320687+1069302340+1069504899+1069808770
3657+1070022913+1070260091+1070880356+1071980868+1073108903+1073341393
3649+1072065106+1070338704+1069553513+1069594426+1069935193+1070401647
3640+1070915577+1071224337+1071103538+1070757347+1070724335+1071214694
3632+1071794514+1071946919+1071621955+1071123292+1070576618+1069911020
3623+1069126968+1068288475+1067516944+1067101984+1067248362+1067590267
3615+1067555313+1067031406+1066377661+1066005689+1066171754+1066920317
3606+1067845391+1068418715+1068615181+1068685691+1068647255+1068414631
3598+1068187162+1068210130+1068349276+1068298185+1068066230+1067909875
3589+1067920053+1067936525+1067882822+1068005630+1068435322+1068900035
3581+1069058131+1068826243+1068357646+1067871238+1067581093+1067615780
3572+1067921794+1068301533+1068486480+1068178256+1067319274+1066360385
3564+1065724920+1065388237+1065258198+1065313843+1065390781+1065286455
3555+1065105927+1065149988+1065450109+1065718826+1065826366+1065920514
3547+1065980311+1065699876+1065051956+1064547200+1064612755+1065155345
3538+1065850272+1066482389+1066846860+1066689032+1066058053+1065423392
3530+1065169608+1065153403+1064982450+1064569766+1064098357+1063589516
3521+1062910191+1062198926+1061905299+1062275195+1063002531+1063552486
3513+1063664111+1063459075+1063295287+1063503537+1063962023+1064038158
3504+1063240178+1061845704+1060700260+1060350051+1060618834+1060969713
3496+1060981967+1060611937+1060169723+1060005333+1060204543+1060610598
3488+1061077655+1061547993+1061924785+1062105648+1062165646+1062245129
3479+1062241848+1061859297+1060965628+1059816300+1058909641+1058530973
3471+1058492270+1058568137+1059012226+1060126935+1061472326+1062183123
3462+1062046722+1061643681+1061427730+1061225841+1060700260+1059873017
3454+1059087357+1058672664+1058735675+1059133694+1059515375+1059518656
3445+1059140792+1058752080+1058572690+1058411715+1058127999+1058005058
3437+1058297412+1058708555+1058710966+1058181367+1057477535+1057107237
3428+1057385730+1058112933+1058582132+1058236142+1057274507+1056371732
3420+1055948200+1055944651+1056131541+1056302293+1056286088+1056089824
3411+1055984493+1056193681+1056545162+1056672121+1056447398+1055961927
3403+1055278785+1054558011+1054187178+1054364827+1054721531+1054754410
3394+1054523660+1054514620+1054855588+1055075557+1054734321+1053965268
3386+1053243288+1052875201+1052867099+1053066979+1053260698+1053321098
3377+1053381631+1053674119+1054113788+1054239475+1053667356+1052500551
3369+1051266584+1050538377+1050559470+1051135741+1051905866+1052663736
3360+1053294179+1053592694+1053500823+1053328330+1053319290+1053200232
3352+1052620278+1051770737+1051132795+1050834146+1050569514+1049992707
3343+1049060335+1048137672+1047757933+1048132784+1048968598+1049787872
3335+1050265308+1050256536+1049754190+1048922327+1048097897+1047642826
3326+1047700145+1048054104+1048316727+1048309629+1048199277+1048228338
3318+1048402840+1048513460+1048403509+1048104794+1047715011+1047264895
3309+1046737037+1046113692+1045385887+1044633909+1044091320+1043947821
3301+1044042572+1043967709+1043587769+1043243855+1043261064+1043505942
3292+1043654865+1043650244+1043620246+1043596608+1043585626+1043659619
3284+1043753901+1043650177+1043324342+1043012703+1042817979+1042553749
3275+1042071224+1041483235+1040981224+1040608248+1040256767+1039795871
3267+1039204601+1038608442+1038084736+1037489113+1036719725+1036074082
3258+1035967077+1036303291+1036549777+1036429781+1036122562+1035812396
3250+1035503837+1035241549+1035102001+1034948391+1034513543+1033751253
3241+1032912560+1032237721+1031688235+1031075269+1030445094+1030124683
3233+1030267445+1030564553+1030586249+1030223853+1029644702+1029037696
3224+1028555037+1028322413+1028325091+1028336810+1028046130+1027277746
3216+1026169064+1025153860+1024618034+1024459870+1024175953+1023495691
3207+1022686126+1022090102+1021707082+1021403947+1021178621+1021023538
3199+1020795333+1020348566+1019686852+1018980140+1018437818+1018080110
3190+1017769542+1017540801+1017544083+1017596179+1017276036+1016567716
3182+1015922475+1015618336+1015498876+1015353168+1015117731+1014619336
3173+1013573330+1012133054+1011035488+1010719496+1010660235+1010079478
3165+1008971867+1007964632+1007489740+1007442666+1007422109+1007110202
3156+1006509691+1005799765+1005041559+1004239293+1003527291+1003016174
3148+1002640854+1002344750+1002147950+1001900595+1001328475+1000470631
3139+999719188+999273827+998888330+998321366+997692263+997169159+996634270
3129+995888051+994930434+993895543+992910874+992069569+991397342+990826562
3119+990256987+989637526+989043175+988626741+988377645+988043640+987472525
3109+986832842+986286168+985687197+984854932+983902806+983036524+982211893
3099+981237870+980100863+978996868+978116056+977501282+977059537+976629510
3089+976059199+975283114+974364737+973465845+972682127+971849126+970621118
3080+968903689+967118829+965827609+965143329+964745846+964403136+964178413
3070+964162343+964321109+964580585+964751002+964463536+963505517+962155773
3060+960960309+960232839+959873322+959614181+959354638+959151477+958939142
3050+958553242+958043665+957587925+957066763+956142627+954767103+953255848
3040+951916416+950866727+950128878+949690481+949507006+949483235+949425849
3030+949115281+948510618+947772434+947037866+946293321+945518576+944825859
3020+944316482+943856390+943147200+942056396+940812318+939843920+939426214
3010+939427687+939406393+939029333+938349807+937601512+936878194+936198266
3000+935685943+935393321+935061527+934330843+933166315+931933620+931048522
2990+930598139+930321922+929936893+929353591+928553200+927555272+926597120
2980+925945986+925442435+924687644+923697216+922839640+922155828+921313251
2970+920223318+919189231+918428013+917830783+917207705+916495569+915695848
2961+914826955+913980360+913219677+912403684+911359418+910266405+909549515
2951+909291780+909057415+908420276+907469288+906676865+906350227+906265654
2941+905899508+905043539+904005032+903122814+902416906+901836282+901391189
2931+900855229+899817660+898220828+896449695+894873889+893738891+893348706
2921+893768086+894443996+894655862+894252218+893566130+892798617+891890685
2911+890895637+890106696+889751264+889721801+889690798+889409225+888848824
2901+888136353+887420802+886772346+886180406+885635808+885152346+884702431
2891+884243209+883805883+883446032+883128701+882774809+882394535+882070106
2881+881803063+881474282+881026577+880608135+880376649+880182594+879666321
2871+878707498+877600691+876735883+876224364+875870271+875426852+874834778
2861+874190139+873519117+872716382+871736065+870725415+869906676+869387322
2851+869094098+868857991+868590413+868368703+868278104+868248708+868158310
2842+867981197+867699959+867250044+866697343+866261156+866051767+865981993
2832+865952664+865898626+865678055+865163388+864435918+863764361+863409867
2822+863440133+863640348+863629634+863176840+862407452+861688285+861288860
2812+861151455+860989877+860618173+860114622+859668190+859366796+859181312
2802+859079263+859052880+859008485+858751151+858204477+857572829+857164230
2792+857114343+857345696+857665705+857835854+857689141+857280542+856841006
2782+856535193+856335112+856143602+855933745+855727637+855554474+855463675
2772+855444858+855324194+854924232+854338118+853879030+853732987+853781400
2762+853784681+853655311+853477662+853294991+853041676+852729769+852533973
2752+852585065+852787824+852912574+852819497+852574351+852339182+852180416
2742+852069461+852030155+852109035+852216643+852197960+852049306+851894491
2732+851771817+851606489+851411296+851355048+851543679+851837841+851995000
2723+851917257+851694008+851499886+851480936+851612449+851668897+851470088
2713+851122558+850917187+851015018+851291301+851478458+851461383+851380628
2703+851412434+851566245+851760300+851915650+851921677+851749452+851620752
2693+851776906+852101937+852283202+852275100+852264922+852303224+852312531
2683+852330276+852437950+852592230+852730773+852870455+852983553+852997280
2673+852958309+853000026+853144328+853303495+853433334+853548374+853640379
2663+853686716+853712028+853788498+853980008+854288165+854639311+854937558
2653+855140183+855265334+855323993+855300824+855221408+855168441+855208149
2643+855370196+855690741+856156660+856631819+856984438+857252820+857530777
2633+857734541+857713582+857588699+857713984+858209499+858777333+859125065
2623+859348180+859692898+860142344+860468112+860550207+860440725+860232140
2614+860040496+860026702+860277607+860689420+861040031+861159088+861048401
2604+860905237+861000523+861437648+862025638+862461758+862646036+862737640
2594+862899017+863128360+863384622+863709988+864133319+864565958+864851415
2584+864883489+864722782+864611090+864711130+864872441+864876324+864831795
2574+865027122+865466657+865855838+866016345+866085114+866273611+866587727
2564+866903652+867210470+867581236+867949524+868182885+868323571+868489435
2554+868656102+868811989+869114186+869598385+869976182+870017899+869917792
2544+870034037+870474108+871081851+871626048+871928580+871999224+872075493
2534+872397779+872981818+873645005+874164225+874416871+874464815+874446602
2524+874422161+874477270+874856071+875709764+876826816+877827958+878542371
2514+879070430+879562999+879985928+880158622+880084763+880067822+880354283
2504+880911270+881648918+882505691+883260481+883686558+883934583+884391997
2495+885144042+885853902+886206588+886326851+886650074+887368706+888135884
2485+888495200+888481138+888543546+888949199+889530961+890017369+890353583
2475+890644464+890981348+891405616+891917939+892483831+893120367+893916339
2465+894880652+895838537+896536410+896806533+896702408+896553284+896740107
2455+897320128+897999520+898516798+898880064+899202819+899498588+899737640
2445+899994572+900406251+900994375+901624014+902151604+902563953+902966124
2435+903442087+903957423+904453608+905002692+905714695+906524393+907238806
2425+907762111+908127587+908395366+908638503+908952754+909376152+909818968
2415+910147482+910375218+910685317+911150298+911585347+911858751+912126798
2405+912521603+912847103+912858687+912659410+912577382+912729719+912900070
2395+912882793+912776592+912789918+912894512+912882727+912661686+912293867
2385+911865715+911512225+911468231+911878103+912514706+912828019+912457588
2376+911705810+911256900+911317634+911360021+910956913+910447067+910330420
2366+910420283+910128933+909166026+907552052+905465129+903356242+901699011
2356+900633586+900183738+900396609+901066894+901808359+902372577+902616116
2346+902405991+901823760+901262690+900982790+900895673+900863130+900780633
2336+900460022+899782840+898971600+898454055+898315243+898126345+897542239
2326+896705890+895850791+895018526+894406832+894426519+895026360+895468039
2316+895085220+893934686+892603960+891594715+890969228+890515898+890062501
2306+889527479+888864359+888142379+887557537+887201503+886890600+886375733
2296+885725469+885334280+885411487+885577150+885218905+884253119+883263160
2286+882791550+882726128+882591803+882258268+881983190+881814179+881438793
2276+880730339+880023226+879739710+880040770+880790873+881583028+881952722
2266+881846655+881689831+881811434+882094815+882331323+882568099+882936722
2257+883401904+883807289+884067167+884320817+884853831+885715961+886579028
2247+887260027+888105550+889444446+890920614+891809059+891804305+891165224
2237+890302090+889576428+889309921+889534309+889845211+889965809+890251869
2227+891105762+892263326+893178825+893604834+893422565+892645141+891883454
2217+891937625+892655051+892862632+891711095+889786017+888662737+889350165
2207+891350842+893262393+893963078+893295137+892118087+891591166+891991195
2197+892535927+892528427+891977735+891147613+890223477+889307443+888408351
2187+887812527+888342661+890533107+893662421+896110535+896692564+895711645
2177+894765947+895161154+896411527+896775798+895323201+892890220+891073755
2167+890831421+892013292+893975600+896368805+899155008+902190107+904995996
2157+906651821+906330004+904550836+903205177+903690380+905369776+906365226
2147+905755809+904404525+903539516+903290553+903171361+903306624+904207524
2138+905599989+906445915+906250655+905593092+905108893+904653421+903873855
2128+903046813+902764704+903042661+903270598+903022908+902583506+902561007
2118+903023443+903236917+902574064+901408331+900540375+900132312+899910200
2108+899870559+900064346+900281569+900467120+900850474+901477703+902172295
2098+902843986+903471282+904120005+905092086+906525398+907913243+908591295
2088+908595313+908589286+909069401+909978605+910902004+911338393+910980282
2078+910055275+909279191+909223412+909811067+910560299+911259914+912302103
2068+914209034+916783839+919061469+920367085+921050160+921926753+923488162
2058+925671510+927746113+928535388+927539603+925769877+924773556+924947656
2048+925424422+925711888+926535783+928523000+931264674+934182523+936944084
2038+938644706+938250905+936345448+935144760+936360514+939696940+943199363
2028+944740014+943728895+941573939+940236784+940582640+942156437+944051582
2019+945891686+947960061+950283693+952086097+952617437+952105248+951575783
2009+951933491+953124804+954185609+954357499+953917093+953679648+953920910
1999+954061596+953635386+953212591+953629426+954736368+955832327+956874383
1989+958241001+959977648+961992119+963921683+964677076+963498888+961363016
1979+960153087+960760027+962717714+964969698+966349039+966159002+964810330
1969+963520784+963311663+964272561+965786294+967466493+969290994+970718681
1959+970737162+969257446+967502920+966648960+966792927+967298353+967500242
1949+967119230+966467159+966105701+966081193+965982357+965894973+966396581
1939+967370269+967949620+967612402+966466021+964750332+962985628+962272420
1929+963347956+965520390+967335382+968020667+967801836+967339400+967235743
1919+967685993+968352595+968843222+969370745+970409921+971873835+973174161
1909+973998859+974580889+975158633+975733364+976369766+977172033+977964321
1900+978449458+978678332+978987092+979482273+979905804+980027875+979864556
1890+979555060+979327993+979496402+980214095+981239143+982042212+982256288
1880+981957439+981448598+980944512+980594102+980616534+981097050+981707137
1870+981910834+981625176+981421948+981669504+982080380+982265395+982171515
1860+981978465+981860345+981960117+982345146+982824524+983068867+983033377
1850+983015833+983279126+983889882+984802702+985682911+985935021+985493075
1840+984907363+984587420+984567064+984789376+985285561+985995689+986592651
1830+986658876+986187399+985629141+985223555+984830156+984416200+984242100
1820+984486911+984993743+985410445+985480353+985201257+984733196+984228239
1810+983760311+983396509+983270823+983492934+983993940+984543293+984973855
1800+985372009+985925245+986608521+987223161+987640599+987849720+987895187
1790+987868469+987845702+987844229+987923377+988218343+988740911+989250354
1781+989489005+989481706+989476416+989641477+989971329+990376380+990727191
1771+990941066+991113291+991430488+991955734+992500935+992735903+992536224
1761+992284516+992419711+992792553+993028324+993160774+993449044+993796976
1751+993789208+993322687+992834069+992581691+992396810+992139075+991887367
1741+991719896+991607534+991562670+991565014+991314912+990482179+989506616
1731+989083151+989146564+989349725+989492621+989495300+989332516+989063331
1721+988805864+988639665+988517661+988230061+987695641+987164703+986854805
1711+986810945+986975939+987162895+987070220+986549327+985790318+984920487
1701+983806381+982647009+982089487+982047234+981742292+980830811+979597781
1691+978301473+977107616+976270328+975834074+975465049+974864136+974314449
1681+974188226+974359782+974586112+974642493+974300521+973523767+972505885
1672+971281560+969792670+968464689+967907033+968063522+968548591+969088904
1662+969493419+969673211+969719816+969797692+969927932+969792938+969014845
1652+968280143+968243582+968427726+968226573+967481961+966691346+966217861
1642+966018651+966019320+966140387+966182372+965881982+965306515+964903674
1632+964838788+964999228+965248124+965492266+965736341+966026284+966356672
1622+966735407+967208021+967688738+967890962+967589367+966936358+965937359
1612+964002305+960233709+953668934+943337036+928616680+910405016+892409570
1602+880488541+878925056+887054857+900425670+914422574+926371124+935653802
1592+942891407+948897388+954071373+958483669+962172781+965214911+967707421
1582+969812089+971701676+973442007+974998394+976313318+977392738+978336360
1572+979247907+980271347+981585936+983105294+984477336+985539547+986376767
1562+987136378+987941725+988868339+989750021+990210650+990066615+988954987
1553+985957654+979791166+970246602+959751050+951906774+948694093+949758915
1543+952813634+955154542+956242600+957892533+960912364+965108308+970341688
1533+975790080+980222800+983554271+986421095+989136319+991573317+993583703
1523+995225600+996555992+997552849+998281256+998834894+999230503+999488774
1513+999673521+999835701+999977258+1000058416+1000076629+1000186312+1000454091
1503+1000725553+1000846888+1000645333+999803091+997855984+994737384+991140009
1493+987747804+984967025+983472578+983946799+985859355+987871616+989232476
1483+989921443+990283839+990721968+991459951+992502007+993703163+994810037
1473+995587193+996042732+996375866+996658109+996844262+996954012+997131326
1463+997505172+998026869+998549705+998920136+999077295+999267399+999730840
1453+1000325860+1000892087+1001434073+1002071279+1002876224+1003709828
1445+1004369199+1004851255+1005293134+1005762869+1006234211+1006677363
1436+1007095940+1007538890+1008070766+1008679781+1009244735+1009634786
1428+1009865335+1010031132+1010171483+1010349467+1010697064+1011225190
1419+1011700550+1011928956+1012085847+1012324765+1012453465+1012159035
1411+1011280031+1009834198+1007732610+1004555218+1000095311+995300396+991742730
1401+990124604+990025568+990255581+989126074+984749869+975778898+962801617
1391+948163356+934761338+926167293+925617673+932713588+943638363+954867746
1381+964499226+971946890+977617795+982240686+986265343+989756383+992516336
1371+994280773+994809167+993925140+991787795+989118105+987187805+987560982
1361+990898345+996008180+1001097257+1005110798+1007738971+1009135119+1009688623
1351+1009738175+1009507425+1009305469+1009586641+1010702622+1012650198
1343+1015096638+1017630061+1019955903+1021916470+1023474732+1024724569
1334+1025799637+1026713059+1027366068+1027719893+1027834665+1027700474
1326+1027198330+1026325352+1025368940+1024724770+1024557701+1024711646
1317+1024925387+1025044244+1025094599+1025290461+1025860505+1026742188
1309+1027623334+1028335738+1028998725+1029750368+1030533483+1031195331
1300+1031663861+1031957018+1032057193+1031880347+1031442620+1030955609
1292+1030625019+1030422863+1030166601+1029771996+1029323354+1028923326
1283+1028561332+1028137465+1027577399+1026907449+1026211116+1025532661
1275+1024887085+1024328291+1023874158+1023358889+1022536802+1021384528
1266+1020153708+1019104153+1018288360+1017608567+1017001627+1016494126
1258+1016055929+1015486756+1014568780+1013295239+1011856838+1010437789
1249+1009100768+1007837940+1006644485+1005506741+1004365650+1003174873
1241+1001962333+1000750932+999460717+997990174+996328122+994522839+992613698
1231+990631034+988594466+986475736+984174268+981540938+978483675+975049352
1221+971333120+967323932+962913778+958002685+952519271+946417535+939729416
1211+932542032+924882569+916720493+908109708+899211390+890175332+881154139
1201+872409364+864206508+856638716+849760761+843843437+839265812+836120227
1191+834011742+832306097+830653754+829300930+828809567+829460768+830996196
1181+832878217+834673121+836212634+837505460+838580461+839432546+840047521
1171+840371012+840256910+839521538+838077445+835969094+833236193+829765777
1162+825339151+819757304+812769666+803889428+792391528+777501760+758703445
1152+736294096+711990874+688863095+670264058+658386018+653462269+654091976
1142+658214061+663899900+669659195+674481698+677804463+679423995+679419442
1132+678115500+675950700+673256703+670228502+667155369+664468336+662376391
1122+660631172+658851334+656915342+654831030+652381309+649172111+645008241
1112+640036682+634511283+628613110+622573380+616758373+611490240+606928151
1102+603191831+600441988+598834108+598498697+599517048+601932753+605912746
1092+611777037+619699457+629537313+641054899+654125791+668638031+684347275
1082+700876799+717857843+735071178+752380602+769527578+786099019+801685924
1072+815992592+828844320+840150910+849827053+857753491+863878463+868318148
1062+871247045+872664755+872349299+870084325+865831196+859629888+851516225
1052+841636652+830221585+817333966+802839872+786696784+769091725+750294750
1043+730554220+710129812+689246249+667972567+646280510+624302059+602409251
1033+580944194+559975589+539394056+519128715+499200592+479651070+460574062
1023+442382554+425894078+411631002+398910820+386185550+372548430+358501841
1013+345156272+333377938+324187668+319187315+319128455+321829818+322908033
1003+319534075+312849773+306264005+302249728+301257994+302741426+306243682
993+311626084+318784005+327432322+337256484+348174865+360238120+373282898
983+386950083+401088276+415860092+431302963+446923082+461832002+475388365
973+487864774+500373223+513845048+528145990+542346892+555524354+566951910
963+575771147+580884665+581226169+576069126+565097477+548364023+526518088
953+501131395+474438985+448554265+424980421+404679992+388295776+376268613
943+368824264+365924092+367357572+372867402+382057538+394240487+408502827
933+423915264+439721837+455400178+470551934+484869048+498315059+511130259
924+523489284+535312917+546468944+556989607+567076927+576951076+586669740
914+596144798+605344778+614304902+622942003+631098789+638787179+646201897
904+653510549+660762550+667963929+675098347+682081029+688868318+695652727
894+702693599+709838663+716515532+722363351+727618827+732772723+738085519
884+743513086+748887419+754048815+758871787+763270959+767200798+770621260
874+773518887+776013673+778324449+780540340+782523674+784031112+784803112
864+784633030+783545507+781844349+779867511+777763445+775552040+773350278
854+771543990+770755116+771539370+774030205+777902123+782734670+788337275
844+794544141+800742838+805742387+807586106+802864246+787558311+761539936
834+732910262+714944749+716282908+734656284+760419670+784213516+800586817
824+806291271+796425961+762318297+695455994+597583132+488369429+400502965
815+362673947+382669968+443830764+517889022+583131961+632461256+668351771
805+694881397+714696187+729639459+741373531+751102909+759235053+765722086
795+770816118+775214822+779487504+783733267+787782900+791448777+794600791
785+797184368+799295531+801215185+803150440+804929742+806289329+807375044
775+808512452+809709792+810893939+812272343+813931516+815492791+816615870
765+817461126+818337987+819327745+820531513+822228854+824377851+826321075
755+827438998+827813447+827883957+827868824+827860119+828012791+828341639
745+828725530+829181739+829768389+830383564+831096504+832435735+834921816
735+838477340+842631634+847135199+851973639+856589633+858777199+853982887
725+836709689+804986659+764205073+724225484+689879906+654707285+607086381
715+543263060+473797359+417885009+391137021+397381218+429214901+474112614
705+520914043+562971382+597900463+626079084+649058075+668294184+684710140
696+698916566+711374694+722363418+732050476+740637356+748439915+755837826
686+763040812+769925530+776228151+781812275+786709373+791161780+795694674
676+800745382+806005010+810540650+813896562+816701715+820006401+823691361
666+826755655+829492373+832725611+836628197+840753429+844578541+847865749
656+850838909+854070339+857980424+862426670+865716357+863703895+853221936
646+838420021+829700289+833545823+846295501+859733008+869330338+875300763
636+879252297+882408329+885581234+889176132+893089364+896742853+899522895
626+901497992+903415101+905808441+908528753+911231991+913872083+916487199
616+918708648+919966454+920405588+921079556+922826716+925371322+927952086
606+930342479+932700932+934879659+936549278+937788000+939026253+940555855
596+942512070+945093571+948258173+951342891+953492222+954488409+954872835
586+955320138+956032676+956661110+956825769+956599706+956194589+955285452
577+953042910+948876563+942801477+934947692+925055866+912586489+896846844
567+876432681+848442489+809072050+756587059+694782562+632644194+579012018
557+537214056+504838888+477715882+453293602+430967185+410915283+393529624
547+379822061+371991109+373183627+386229075+411722605+446618005+485294622
537+522518676+554556559+577621629+587030797+579031103+553348774+513523163
527+465782398+418432721+379305519+352069080+337388064+336624635+351433950
517+379694398+414558996+449195221+480422701+507703201+531580782+553346229
507+573963051+592901382+609085116+622572442+634640653+646595832+658754977
497+670474251+680969267+690087888+698236639+705733854+712617232+718868561
487+724430386+729286169+733725050+737915436+740923215+740783600+735564617
477+723741486+703096975+669487639+619578927+558041171+497552367+448274265
467+413553166+392383443+379689376+368466421+356027043+347251063+350718935
458+370528000+400621922+431590027+459837083+485663781+509194703+530244933
448+549087007+566652391+584332515+602428603+618878040+631194544+639276601
438+645207050+651584601+659818192+668910029+676512909+681172897+683312318
428+684923212+688467084+694980098+702680006+708728106+712313428+714446153
418+715691838+716241459+716787664+716829984+713482576+703659653+688209416
408+672524010+662464110+660264758+664565363+673115214+683913365+693823472
398+698319805+696476019+692574371+689007598+685324311+682299993+681902175
388+683079961+679978838+667696150+650436746+636867794+627867895+619132427
378+609216561+599339131+590300127+582186196
##END=
