##TITLE=X9679
##JCAMP-DX=5.0
##DATA TYPE=LINK
##BLOCKS=1


$$ === CHEMSPECTRA SPECTRUM ORIG ===
##TITLE=X9679
##JCAMP-DX=5.00
##DATA TYPE=INFRARED SPECTRUM
##DATA CLASS=XYDATA
##ORIGIN=Default
##OWNER=
##XUNITS=1/CM
##YUNITS=TRANSMITTANCE
##XFACTOR=1
##YFACTOR=1.0056475e-009
##FIRSTX=3996.5625
##LASTX=399.65625
##MAXX=3996.5625
##MAXY=1.079805778939745
##MINX=399.65625
##MINY=0.5884138606471124
##NPOINTS=1765
##XYDATA= (X++(Y..Y))
1765I25107680I25775652I26530336I27182305I27517595I27513505I27105195I26657766
1757I26766645I27161264I27231202I27176378I27251117I26700855I25334506I24352225
1749I24902843I26276127I27064891I27585637I28294149I28978480I29445882I29385190
1741I28886493I28699852I28991815I28450977I27165116I26826093I27613908I28827875
1733I29717813I29699202I29451809I29361541I28797351I28750350I29935096I30232394
1725I28758766I27446352I26784959I27026840I30197188I35639530I39164786I38803299
1717I35012691I30250590I29000647I31452880I32493719I31649064I32854081I33996093
1709I34280589I34549734I32408311I31341334I33700574I37358476I39642146I37888053
1701I36554539I37801519I36721028I34163887I35159977I41500673I49546624I46236517
1693I36145398I31509365I32570770I36191096I40193771I44058289I44501628I40643926
1685I37286167I34906539I33281832I33510851I34857937I38704555I43889666I43542344
1677I41158863I38487035I33522349I31402857I34253562I37945426I38624067I40053835
1669I40632783I37577834I35319235I32639583I29741936I29114919I29713308I30485536
1661I30864745I30902144I32210172I32463551I30042434I29152852I31743718I35421120
1653I36378033I35214861I33750360I33686052I36216463I37718541I37864345I41863049
1645I49679803I52323894I49227870I49370237I47928733I41430260I39105872I43050344
1637I48437210I47755842I40704974I34564610I32981215I33748641I34404878I34383482
1629I33034083I31577110I32750358I37711665I41894640I39112510I34304356I32670877
1621I33396993I32992950I30883119I29571120I30295398I34570537I41082464I42331163
1613I36338856I31448435I30679882I33595251I39969968I47363653I48068017I44556274
1605I44337213I41582228I35291675I31321479I29993359I30228601I32678997I35062893
1597I36059931I41280130I49945155I50058064I40912656I33478726I30601468I30567743
1589I31400130I32026139I32757293I36338026I42252038I41035345I33892727I31162813
1581I34164716I38675928I39526510I39048024I39715048I39535756I38181557I35510025
1573I32148354I30907834I31812530I32893910I33536218I33272704I32112258I32585351
1565I35892020I37573448I34748525I31867296I30889401I30517305I29937586I29490394
1557I29677331I31626245I35662052I37816751I35284621I32095248I30165775I29003077
1549I29277022I30698789I31192922I30448492I30361069I30680238I29924250I29033897
1541I29223561I29920219I30194106I30007346I30235713I31436759I32411749I32059093
1533I30969297I29767007I28855317I29001951I29956137I30446714I30352060I29874641
1525I29499107I30610477I32214795I31760965I30262029I29763925I29596132I29251062
1517I29267835I29344057I29102887I29079713I29480970I29287572I28268959I27991102
1509I28738140I28859169I28187641I27562284I27068210I27198248I27628904I27424837
1501I27427801I28063293I28163163I27579591I27483574I28407236I29515465I29997626
1493I29766177I28930353I28068923I27668377I27562995I27584392I27996496I28734643
1485I29133767I29199616I29473680I29693156I29392954I29040417I29052567I29204772
1477I29254796I28998217I28474567I27877778I27708266I28322302I28809738I28686753
1469I28443094I27980789I27683491I28078288I28296816I28072717I28094469I28215972
1461I28106026I27830125I27698309I28206015I29193689I29578113I29106384I28713247
1453I28585461I28378609I28195998I28191909I28367644I28630269I28837951I28938828
1445I29099509I29210640I28704534I28157117I28717218I29899949I30559979I30143134
1437I29190607I29039587I29506990I29230021I28631928I29016887I29706492I29661091
1429I29572542I29895089I29939127I29740335I29855497I30181481I30349511I29894911
1421I28973205I28394849I28354901I28726997I29290654I29559681I29597376I29952759
1413I30654989I31246147I31277264I30526136I29589019I29133174I29167610I29516532
1405I29578469I29154215I28895739I29051204I29079239I28835106I29078231I29742706
1397I30216984I30632348I30801919I30338428I29739861I29665537I30156351I30464910
1389I30005864I29739505I29868418I29655105I29825151I30295576I30068394I29596961
1381I29625529I29891829I29888332I29856564I30015051I29977593I29834160I29867766
1373I29674249I29382582I29535143I29700743I29701513I30083864I30326574I29882583
1365I29945172I31010134I31831615I31691975I31125888I30546999I29819401I29379322
1357I29484289I29542374I29399415I29570883I30026313I30415183I30879681I31079598
1349I31070174I31073375I30212420I28958743I28511136I28575504I28797114I29240927
1341I29385308I28814421I28036858I26932601I24747319I22394955I21348248I21632803
1333I22699661I23937988I24868940I25444274I25759352I26099443I26705538I27243471
1325I27305883I27290472I27583029I27946057I27940071I27422111I26839310I25877300
1317I23646913I19592377I13695908I07954550I04884249I04988446I06781302I08524015
1309I10651746I13938678I16774862I17761647I17837039I18428730I19580226I20304445
1301I20257741I20020957I19658877I18689814I17048512I14602205I11464870I08143384
1293I04913884I02554052I01906706I02805357I04258892I05529580I07144982I09241003
1285I10416800I10056498I08523423I05944351I03545698I03162814I04900608I07591225
1277I10208941I11555494I11351665I10748119I10259498I09942878I10194242I11109073
1269I11908861I12031550I11994091I11127328I07768916I01610060H92729115H82870867
1261H76683147H75956024H77762274H79596560H81361559H83956337H87755124H91790753
1253H94846236H96581008H96626823H94128893H88590000H80580796H71587653H63926778
1245H59301176H56078611H50561589H41372914H31573107H25266432H23465160H25078427
1237H29205688H35646136H44178634H53226128H61325422H68546513H74614805H79317932
1229H83040439H85855819H87712983H87930326H85743740H81292806H76318518H73593288
1221H74209754H77532070H82482175H87581581H91824834H95046569H97359103H99042902
1213I00231738I00882167I01291485I01374403I00169920H96888856H91053851H82778762
1205H73088782H63651410H57613287H58154896H64983917H74483166H83164016H89874438
1197H94902543H98586524I01557547I04294040I06432261I07893680I09145520I10259913
1189I11154948I12020881I12978209I13980582I14775984I15163847I15480467I16001331
1181I16514312I16746116I16593200I16374079I16533397I16863175I17045074I17306514
1173I17866081I18485985I18875507I19182821I19515503I19860514I20291702I20585977
1165I20628830I20554209I20371539I20164924I20117508I20371005I20764795I20800357
1157I20711215I21284118I22201261I22731252I22817371I22750219I22768829I22667596
1149I22665937I23053621I23324841I23390215I23501761I23494293I23362655I23331479
1141I23363959I23509526I23688165I23652722I23509407I23417420I23549118I23863960
1133I24233330I24452629I24229240I23960451I24133104I24439293I24432595I24173171
1125I23839007I23808068I24169615I24219579I23933306I24033353I24306587I24135890
1117I24009230I24387550I24974145I25439176I25537090I25440777I25420803I25459802
1109I25437043I25359814I25412031I25542306I25639509I25850569I26300191I26724978
1101I26893957I26995604I27032767I26717629I26080358I25721894I25920330I26297108
1093I26817735I27236181I26920569I26402905I26542842I26932186I26890519I26491632
1085I26309200I26852408I27550134I27569693I27545392I28027909I28366873I28274768
1077I27982508I27291302I26497500I26726519I27810803I28632343I28774532I28297350
1069I27843224I27659487I27297585I27048355I27017357I27070640I27825680I28713128
1061I28510366I27926083I28233812I29254381I29963249I30013392I29546700I28758292
1053I28452044I28992882I29554702I29734645I29836530I29532594I28873987I28283244
1045I27688233I27752066I28600219I29155460I29326039I29606385I29835108I30056007
1037I30478838I30627606I29895445I28913164I29040950I30040004I30781174I31001540
1029I31090800I31286925I31519203I31672594I31319701I30953413I31422119I31654813
1021I30867175I30281825I30161863I29924250I30117825I30949857I31811286I32398888
1013I32882056I33161099I33398830I33569646I32793803I31773294I31583571I31564249
1005I31307076I31057728I30948849I31207977I31646160I32022642I32356569I32170343
997I31284198I30406529I29913700I29688118I30191498I31138098I31493184I31392781
989I31237079I31210289I31461474I31574739I31150544I30635370I30626598I31057787
981I31511083I31918801I32452349I32575512I31818931I30565965I29238912I27808017
973I26128426I24242754I22281275I20336392I18178315I16188861I15367083I15206284
965I14333771I12365417I10345439I09582695I09753273I10868437I13299156I15799398
957I17213341I16759334I14933820I13835785I13265550I13227083I14137766I14555145
949I14371111I14174395I14008498I13865420I13754645I13759149I14520531I16517038
941I18873255I20426601I20985990I21492985I22887369I25386248I27874044I28765227
933I28569517I28843048I29919864I30910086I31314367I31805833I32574623I33085055
925I33411159I33694054I33194112I31914178I30856447I30476764I30908486I31503852
917I31907066I32950453I34332213I34982582I34651085I33580670I32051032I30795636
909I30966808I31770330I31429232I31091867I32104138I33131049I33419812I33850941
901I34965809I35734302I34786161I33646045I34644743I36829551I38174386I37888231
893I36445897I34970965I34434454I34884787I35155828I35786993I37231698I38107766
885I37773306I36027807I35173431I37436179I39813910I39385863I38287828I38504401
877I37849883I35707690I35659919I38681736I40463686I39445074I37792984I36744677
869I37951057I38516195I35198621I32359710I32071066I32984356I34370205I34343237
861I32275725I30713073I32936229I36558510I37805134I36857290I34760794I33586123
853I34360485I36288891I38377978I38426164I36761154I36250662I36963501I37253153
845I37526684I38599529I39416980I39502625I39430967I38383608I36455262I36275318
837I37731106I38313907I38038124I37653107I37717711I38438730I39000668I38697443
829I37349467I36839212I38698865I41152521I42154776I41493264I40517029I40543049
821I40921250I40758080I39826298I38463149I38098165I39136692I40679370I41334954
813I40352140I39759915I40577425I40337619I39394516I40108660I39373475I35248052
805I32605621I34564433I37366774I37687305I36974407I39027221I44717192I45961446
797I39531133I33446602I33197787I37243670I39288305I38044051I38080798I40903351
789I44782982I45484678I42308818I39400206I38506831I40362750I44599541I47801954
781I48541643I47654076I45047444I41418762I39642265I42063559I45972944I46467611
773I44518994I43330039I42743030I42536059I42561545I42354278I43769407I45469979
765I43772252I41684054I42588632I43043647I41411057I41844438I45752282
758I49264973I48973187I46303137I43779246I42384269I42870697I43868803
751I43612401I43402585I44155136I44406084I44464406I45203976I44841244
744I43609200I43675286I43808821I41209480I36501314I32585766I29630804
737I26074906I23481906I24226277I27602054I32331557I37087731I39166683
730I38784747I38225713I37922370I38377563I39723405I41176052I42964047
723I46294780I50694623I51527069I47417056I44150809I43702610I43844206
716I44208301I44970749I45107840I44436727I44324588I46356065I50006084
709I50841494I48081709I46575956I46592730I46326904I47409351I50960389
702I52916830I51617693I49819028I47443134I45383505I45221876I45810426
695I45990073I46833603I47852038I47262183I46205756I46452793I47788619
688I48711926I47913975I46948586I48546266I50277659I46848598I41953139
681I39994150I39615593I39299684I38159568I35882596I35161518I37273187
674I37256176I30900366I23246012I17901050I15316407I12839814I08466701
667I04110777H99367227H95557653H95003124H94876997H91400461H86643991
660H83638117H82748179H81721564H82267263H89374674H97554753H97160016
653H93912854H92090600H92675950H95307179I01196831I12489291I23344992
646I24672342I22788448I24452214I30932194I40265428I47674880I53700260
639I61635198I65618552I63751727I57669566I51982084I51055162I53339780
632I59612731I66210184I60656415I52437751I51077744I54964310I58116639
625I59966928I62258599I59284316I54664759I54350095I53735644I50334677
618I50000809I57169862I68739291I67046009I62731929I66074338I64433687
611I56951215I54578818I58911390I67873535I72290685I65059577I59267069
604I59627489I61951048I64591226I66185646I64390835I64765065I67818236
597I65070424I59708689I56750290I53734755I48928024I42482953I33535210
590I22239490I12233364I08011271I11122112I18859030I27205479I34239574
583I40027223I45044718I49239783I53523754I59539651I62508955I55944575
576I50264620I49787438I49191893I49521197I53503721I62294221I78923227
569I86498871I76138252I68494032I65387399I63970907I63303647I65993434
562I73760639I83701034I82489972I70332526I66347513I68712797I68285520
555I68038602I71336558I74985926I77161073I72300821I57768725I35132179
548H98063704H44204949G76860865G14290677F81852783F89033334G10702535
541G39804659G71468488G92294753H02524682H16701691H40049535H61446688
534H69728000H69703699H65062449H58250676H58047439H69877715H88076189
527I00772043I02762446I03402442I07243963I09399432I09832458I15575713
520I24928922I24375874I17427246I13759505I11326297I07550922I04014997
513I03331911I02374168H99442500I00427211I07376490I13508141I17673157
506I18170669I12423680I02471549H91189579H83894281H82821851H84571855
499H86730880H89512833H94159594I02009421I11727436I19895839I24696761
492I28814124I32616290I33352955I30839022I27255503I25942793I26598140
485I25065717I20236285I15222702I11327957I08768978I08133723I07936710
478I05860840I03662281I02548955I02797474I06968773I13203731I16679319
471I18027591I18854881I19659055I21391456I24468454I28187937I32030229
464I36501018I41991724I47040395I49681463I50721294I51546747I52402189
457I53201089I53327926I52088770I49948118I49293364I51681882I55159900
450I57630271I58827108I58752961I57908306I56896746I55441847I53384351
443I50736290I47517874I44608728I41145587I37237980I37175213I40877509
436I43891029I45918712I48475557I51383458I54083381I55898937I56262676
429I55106617I52108863I47088522I41570374I37580442I35943525I36889829
422I40109726I43843554I46144471I46632381I45451132I41134207I31498933
415I16976321I01552509H89026049H77819766H60749970H31553014G97037472
408G75338932G71552296G70691578G54378362G14155008F68678028F56005052
401F85277458G29507399G66674263G93557261H13975571H31708479H47577408
394H60684892H70723675H77713495H82558278H86721160H90712515H93712818
387H94954878H94728289H95295087H99841150I08436533I18160297I26318564
380I32228546I36699928I40515370I43614001I45368272I43786773I29997093
373H84449996H17045220G88419033H20499115H67073181H97144131I13619332
366I22465427I25515279I22987417I17199828I14697452I19884577I29201987
359I37631592I43878226I47953804I49918009I49682471I44386288I27585044
352I01613498H85102973H84003516H81393387H74826695H79837492H95823420
345I01280401H78694413H41589309H23866773H30287068H43788282H62801243
338H86485621I06448264I19972000I28885011I34877556I39397065I43452135
331I47236994I50786669I53883108I56748927I59532776I61426272I61333811
324I56360294I40570609I15940460I01574558I09908205I28576274I43022784
317I51763497I57721546I62067276I64941926I67334594I70028353I72464998
310I74249438I75432939I75950959I75980238I75557880I74247067I73402767
303I74927841I76212398I66758727I36150259I05159380I08624893I35871157
296I56402494I67099529I74055921I77999801I80154915I82064532I83352764
289I82885421I80048347I76666821I74922803I68930911I44020415H95685795
282H53564500H54713743H90225138I24571583I43616016I50645310I47645838
275I35926870I27471186I34237796I49337875I61710708I69045894I68373003
268I53873506I30878021I19830286I30953353I51143059I66407849I75152000
261I80100090I83223733I85249935I86361839I86884362I86682133I84735946
254I79722067I70400331I54607919I31860954I08630701H93557827H84023667
247H73554525H71760306H88763839I13541095I32184034I44380302I54630916
240I64475413I73043295I79320987I83147572I85380270I87260252I89895274
233I93036462I95126675I95889123I96912359I99267627A001741435A001731477
226I97604631I89156238I72885340I35416378H61660415G60760014F65971171
219F05447217E85109455E91558200F14914105F54220138G00889630G43833947
212G77304619G99003989H11380615H18909377H21473275H09458373G82784301
205G70311658G87153383H13369121H36849315H56713333H67627296H68290526
198H64340008H61545313H60137178H61340891H69541774H84114469H99762380
191I12676762I22295915I29652675I35699689I40778587I44626331I47653009
184I50866091I54228533I57225516I59170518I60607399I62589266I64305012
177I65635918I67449696I69196499I70395767I71192532I70583771I67781963
170I63064196I57138034I51134287I43815460I28740274I02386437H77034558
163H67488901H64852575H50703422H32930803H34175353H55135982H74645684
156H74679764H54310293H30082883H27035402H53577954H89133327I14654066
149I26667071I27119242I28665416I39970146I51939410I57771570I58738262
142I54323779I43988409I25684850I02723446H95201322I13660287I40729275
135I59075093I66628452I70497059I78296744I84563115I87947783I90915665
128I91806848I89561585I85564303I78070332I62934928I36951706H99578762
121H60899982H42696708H56142682H89214646I20530442I34940382I39375906
114I52124036I69845623I76567188I64001550I30949560H99180883I00526251
107I30758474I62130517I83119774I94811121A000375263A004578330A009286496
100A012228062A011741929A007726629I98679076I76335146I23827687H44107213
93G86664584G93638283H45031291H99216267I38591587I62755400I77242628
86I87272640I94970676A001568011A007074898A010496669A012190129A010952217
79A001809477I72344325I17344920H73601170H82951830I26487602I63260439
72I82513443I89795582I92997343I94954672I96004224I99676826A003316236
65A001181215I90920585I61837961H97856911H09139027G43154180G44318656
58G98227198H57900983I03086000I36106340I59371324I71365067I65843778
51I26489676H62162906H29325651H54286289H94582604I08422841I03596018
44I09948746I35184515I62390416I82521148I96673738A004543954A010183961
37A014122090A010525236A004727216A007922694A017194881A022784272A028336678
30A037258342A040393365A036626998A036265571A042338722A044698377A038339544
23A031296618A027420958A027020648A030967195A037817376A044542141A045491170
16A036372257A016533547I99269168A001472704A013398287A021017317A025327070
9A029032862A034595700A042294033A049977430A054771181A058884395A065607501
2A072539355A073741822
##END=


$$ === CHEMSPECTRA PEAK TABLE EDIT ===
##TITLE=X9679
##JCAMP-DX=5.00
##DATA TYPE=INFRAREDPEAKTABLE
##DATA CLASS=PEAKTABLE
##$CSTHRESHOLD=0.93
##MAXX=3996.5625
##MAXY=1.079805778939745
##MINX=399.65625
##MINY=0.5884138606471124
##$CSSOLVENTNAME=- - -
##$CSSOLVENTVALUE=0
##$CSSOLVENTX=0
##NPOINTS=45
##PEAKTABLE= (XY..XY)
426.1640625, 1.00491254062628
489.375, 0.9086990765116549
497.53125, 0.8340092676140225
519.9609375, 0.7473511432315499
552.5859375, 0.8785348326075749
587.25, 0.7911072722381399
619.875, 0.9042590070367424
642.3046875, 0.84745583765843
679.0078125, 0.9002569714659949
709.59375, 0.8317060844327949
723.8671875, 0.8376347797099425
797.2734375, 0.864994802712755
815.625, 0.774661993088555
842.1328125, 0.5884138606471124
899.2265625, 0.876683572328135
940.0078125, 0.925025027540185
954.28125, 0.93951390395291
972.6328125, 0.85838500551375
1007.296875, 0.9102712675985499
1052.15625, 0.906666200316305
1094.9765625, 0.8285195606005175
1107.2109375, 0.8797672787600125
1135.7578125, 0.91986320586017
1154.109375, 0.7928716294888675
1184.6953125, 0.8997812670121275
1217.3203125, 0.65970984053117
1260.140625, 0.9421809143092774
1290.7265625, 0.9424679100154175
1368.2109375, 0.9076461002233625
1419.1875, 0.8878075874035225
1439.578125, 0.90452210151875
1478.3203125, 0.8628932619117524
1506.8671875, 0.6857035465919925
1566.0, 0.9548836179600575
1596.5859375, 0.9131392646529725
1727.0859375, 0.8971286816635
1739.3203125, 0.88670108653269
2359.1953125, 0.9147195632700125
2850.609375, 0.8624566580383325
2889.3515625, 0.87852690609398
2924.015625, 0.8281156794911
2966.8359375, 0.8809029856455399
3007.6171875, 0.908263425992065
3030.046875, 0.907000224122135
3074.90625, 0.9099945827962275
##END=


$$ === CHEMSPECTRA PEAK TABLE AUTO ===
##TITLE=X9679
##JCAMP-DX=5.00
##DATA TYPE=INFRAREDPEAKTABLE
##DATA CLASS=PEAKTABLE
##$CSTHRESHOLD=0.93
##MAXX=3996.5625
##MAXY=1.079805778939745
##MINX=399.65625
##MINY=0.5884138606471124
##NPOINTS=208
##PEAKTABLE= (XY..XY)
3982.2890625, 0.931891065733485
3974.1328125, 0.932412606594755
3965.9765625, 0.9295725041906875
3945.5859375, 0.93394468441417
3937.4296875, 0.9320603433602175
3921.1171875, 0.933995467601625
3910.921875, 0.9320189770559525
3894.609375, 0.9342471781539324
3888.4921875, 0.9369105520889399
3876.2578125, 0.936601084183765
3866.0625, 0.9418437307590025
3859.9453125, 0.9394395775518325
3847.7109375, 0.9367700641388375
3829.359375, 0.93855254114622
3811.0078125, 0.9366629546349075
3790.6171875, 0.9343620955050524
3774.3046875, 0.93440024273167
3762.0703125, 0.9389590439786699
3747.796875, 0.954588634395825
3739.640625, 0.9444094724121199
3727.40625, 0.9382502264117125
3717.2109375, 0.936838191728725
3704.9765625, 0.9379381357778575
3696.8203125, 0.9348208729002
3682.546875, 0.935935896633595
3662.15625, 0.9352454964949525
3639.7265625, 0.9358231243285925
3623.4140625, 0.9364215549864174
3615.2578125, 0.9443512977155399
3603.0234375, 0.9361651359925149
3592.828125, 0.937376361977055
3574.4765625, 0.934739691000115
3558.1640625, 0.9342496218773575
3547.96875, 0.9356152831371775
3541.8515625, 0.9342806159333075
3533.6953125, 0.935259562486535
3519.421875, 0.9341010274027575
3507.1875, 0.9347484532067825
3492.9140625, 0.934499007372645
3484.7578125, 0.9343266906791675
3476.6015625, 0.933231931748545
3466.40625, 0.932303827715975
3460.2890625, 0.9326624687669575
3450.09375, 0.932721537484165
3433.78125, 0.9328014070142625
3415.4296875, 0.9342871727550075
3401.15625, 0.932947498432235
3388.921875, 0.9329225835154225
3382.8046875, 0.9333140076692574
3372.609375, 0.9329374852000775
3354.2578125, 0.9334338728060775
3337.9453125, 0.9333988843182575
3325.7109375, 0.9342863380675824
3319.59375, 0.93387637681338
3311.4375, 0.9348223029309449
3305.3203125, 0.9349910435419124
3291.046875, 0.9335977853033974
3268.6171875, 0.934380453600165
3258.421875, 0.9341416776860024
3252.3046875, 0.9340807022611349
3235.9921875, 0.9349158231202075
3227.8359375, 0.9349902088544875
3223.7578125, 0.9349053322054874
3215.6015625, 0.9348468598372475
3207.4453125, 0.93510792894519
3201.328125, 0.9350853984186
3195.2109375, 0.934631270131845
3182.9765625, 0.9351340948874924
3166.6640625, 0.934627991720995
3160.546875, 0.9346481981962125
3148.3125, 0.936328392807665
3140.15625, 0.9337549026405599
3119.765625, 0.92655156223058
3097.3359375, 0.93252734494062
3074.90625, 0.9099945827962275
3030.046875, 0.907000224122135
3007.6171875, 0.908263425992065
2991.3046875, 0.915081780403505
2966.8359375, 0.8809029856455399
2924.015625, 0.8281156794911
2889.3515625, 0.87852690609398
2850.609375, 0.8624566580383325
2799.6328125, 0.9215493016111524
2764.96875, 0.92531387162643
2756.8125, 0.9259109315867124
2746.6171875, 0.9279614508618025
2740.5, 0.9278766928792075
2726.2265625, 0.9285459935276524
2713.9921875, 0.92863241987945
2701.7578125, 0.9291785176470224
2689.5234375, 0.92902527406403
2683.40625, 0.9291512193456349
2675.25, 0.9292275721264249
2663.015625, 0.9306471169849425
2656.8984375, 0.930585783549565
2632.4296875, 0.9309499083963649
2620.1953125, 0.9316347654059874
2610.0, 0.931540531207
2601.84375, 0.93278370460132
2589.609375, 0.93172989463125
2569.21875, 0.9322526875236574
2559.0234375, 0.9331665455537425
2544.75, 0.93369547691849
2528.4375, 0.9329273522958674
2506.0078125, 0.93415920109369
2485.6171875, 0.9362109723999175
2473.3828125, 0.9351759972018749
2442.796875, 0.9362063826247274
2424.4453125, 0.934938531646405
2412.2109375, 0.9364692991071275
2402.015625, 0.9358823117122049
2359.1953125, 0.9147195632700125
2338.8046875, 0.9183845329512424
2324.53125, 0.9189150743576374
2300.0625, 0.9338136133472574
2273.5546875, 0.93573163152469
2253.1640625, 0.93605230435431
2245.0078125, 0.9363502083188825
2228.6953125, 0.9389188110391374
2214.421875, 0.9397116725789649
2198.109375, 0.9404548229515725
2189.953125, 0.94358680850863
2181.796875, 0.9409440583925525
2171.6015625, 0.9420349425633575
2161.40625, 0.937334937345235
2151.2109375, 0.9359692750797675
2138.9765625, 0.9388585506296425
2126.7421875, 0.941538137613645
2106.3515625, 0.941562932858405
2098.1953125, 0.9429485029217824
2085.9609375, 0.9421300114497699
2075.765625, 0.9458285989212775
2063.53125, 0.9433960743868375
2053.3359375, 0.9450672091199624
2047.21875, 0.9446997465291099
2039.0625, 0.9378725112445975
2030.90625, 0.9422659699635325
2018.671875, 0.9384680215020824
2012.5546875, 0.9433416547780225
1998.28125, 0.9438070483280725
1981.96875, 0.9449488946915875
1967.6953125, 0.9478590313932025
1963.6171875, 0.9476762237850049
1955.4609375, 0.9470022146949649
1949.34375, 0.9467276759444074
1935.0703125, 0.9477063841591775
1926.9140625, 0.9487304510987875
1914.6796875, 0.948938232957
1898.3671875, 0.9286972700641349
1882.0546875, 0.943219286584575
1861.6640625, 0.949032170489975
1849.4296875, 0.9496576611107299
1839.234375, 0.95192174371151
1835.15625, 0.9516712851903399
1818.84375, 0.95056001654471
1806.609375, 0.95154945300701
1796.4140625, 0.952296478139435
1776.0234375, 0.940442842672905
1739.3203125, 0.88670108653269
1727.0859375, 0.8971286816635
1712.8125, 0.92799989576008
1690.3828125, 0.956426246027395
1678.1484375, 0.9564489555592399
1657.7578125, 0.9553659385688275
1649.6015625, 0.9681689575690274
1641.4453125, 0.959969801874655
1631.25, 0.9646845297721774
1621.0546875, 0.9698372322406624
1596.5859375, 0.9131392646529725
1568.0390625, 0.9545524542157174
1547.6484375, 0.9687439043464324
1535.4140625, 0.9718049605796675
1529.296875, 0.9735056000047949
1506.8671875, 0.6857035465919925
1478.3203125, 0.8628932619117524
1439.578125, 0.90452210151875
1419.1875, 0.8878075874035225
1390.640625, 0.9311720549234674
1368.2109375, 0.9076461002233625
1321.3125, 0.9546544982731899
1290.7265625, 0.9424679100154175
1262.1796875, 0.9412292660574375
1217.3203125, 0.65970984053117
1184.6953125, 0.8997812670121275
1154.109375, 0.7928716294888675
1135.7578125, 0.91986320586017
1107.2109375, 0.8797672787600125
1094.9765625, 0.8285195606005175
1052.15625, 0.906666200316305
1017.4921875, 0.9789000591266325
1007.296875, 0.9102712675985499
972.6328125, 0.85838500551375
956.3203125, 0.9327090795229349
940.0078125, 0.925025027540185
899.2265625, 0.876683572328135
842.1328125, 0.5884138606471124
815.625, 0.774661993088555
797.2734375, 0.864994802712755
723.8671875, 0.8376347797099425
709.59375, 0.8317060844327949
679.0078125, 0.9002569714659949
642.3046875, 0.84745583765843
619.875, 0.9042590070367424
587.25, 0.7911072722381399
552.5859375, 0.8785348326075749
519.9609375, 0.7473511432315499
497.53125, 0.8340092676140225
489.375, 0.9086990765116549
##END=

##END=

