##TITLE=JMB-278_YND
##JCAMP-DX=4.24
##DATA TYPE=INFRARED SPECTRUM
##DATE=10/7/2019
##SAMPLING PROCEDURE=Diamant-ATR
##ORIGIN=Angelika Moesle
##XUNITS=1/CM
##YUNITS=TRANSMITTANCE
##RESOLUTION=4
##FIRSTX=3997.453
##LASTX=373.96442
##DELTAX=-1.4165319
##MAXY=0.96764785
##MINY=0.62785524
##XFACTOR=1
##YFACTOR=9.0119229e-010
##NPOINTS=2559
##FIRSTY=0.92302227
##XYDATA=(X++(Y..Y))
3997+1024223445+1024468757+1024959118+1025622103+1026094407+1026134752
3989+1025813577+1025272289+1024708514+1024525704+1025009516+1025903461
3980+1026650576+1026952570+1026840066+1026416309+1025760070+1024974661
3972+1024216699+1023722304+1023696576+1024044669+1024390779+1024532053
3963+1024632057+1024858056+1025136703+1025386579+1025619854+1025762121
3955+1025715955+1025514626+1025175461+1024729150+1024542371+1025052705
3946+1026062726+1026973603+1027549878+1027908488+1028092357+1028045662
3938+1027732226+1027100393+1026220998+1025476860+1025324738+1025746776
3929+1026193087+1026277482+1026225893+1026576698+1027395574+1027981506
3921+1027782558+1027141465+1026769694+1026810634+1026840596+1026638605
3912+1026349706+1026096722+1025784674+1025241733+1024562279+1024341042
3904+1025239550+1027006011+1028632851+1029537180+1029562644+1028534964
3895+1026624451+1024678354+1023958754+1024980349+1026423650+1026902436
3887+1026753754+1026849723+1026965997+1026662018+1026748397+1027758483
3878+1028408902+1027823962+1027017453+1026991526+1027221957+1026818968
3870+1026072250+1025593067+1025311444+1025278771+1025888778+1026940467
3861+1027622566+1027565553+1026833519+1025471039+1023877733+1023585329
3853+1026075160+1029007466+1029729911+1028901577+1027871450+1027367928
3844+1027381420+1027350732+1026901312+1026570150+1027273282+1028869830
3836+1030078732+1030283567+1029985211+1029691682+1029253573+1028325565
3827+1027126121+1026231448+1025807096+1025766353+1026354402+1027370640
3819+1027826475+1027913647+1028746016+1030106775+1030626965+1029972776
3810+1028739667+1027606097+1027243585+1027648294+1027856899+1027720982
3802+1028327550+1029691550+1030173643+1029579972+1029193782+1029421766
3793+1029520645+1029099996+1028491510+1028016362+1027745850+1027794199
3785+1028229861+1028713343+1028873467+1028937689+1029321432+1029760402
3776+1029656694+1028945361+1027899824+1026885703+1026558774+1027358404
3768+1028606395+1029274076+1029113555+1028318952+1027188292+1026438532
3759+1026931273+1028352617+1029102774+1028301491+1026634702+1025805773
3751+1027270239+1029647236+1030124699+1028854617+1028025291+1028990601
3742+1030301359+1030238790+1028979820+1027341472+1026255854+1026710895
3734+1028733185+1030890995+1031885406+1031632554+1030844102+1030322127
3725+1030316240+1030405992+1030349905+1030457515+1030848202+1031150329
3717+1030997943+1030382909+1029710929+1029654247+1030382380+1030970296
3708+1030820953+1030381520+1030021587+1029796580+1029812454+1030055451
3700+1030187863+1030071589+1029942749+1029908885+1029772770+1029331816
3691+1028710896+1028476761+1029167392+1030346400+1031078964+1031081014
3683+1030667508+1030176090+1029457349+1028184159+1027053566+1027794463
3674+1030020992+1030868110+1030056311+1029610529+1030291173+1030719097
3666+1030270008+1029648030+1029436251+1029568596+1029576864+1029238294
3657+1029013684+1029359661+1029572300+1028760170+1027531095+1027798299
3649+1030722206+1034077873+1035240081+1034454539+1032857859+1031259525
3640+1030122120+1029485392+1029088818+1028768107+1028542768+1028372128
3632+1028312734+1029010707+1031101518+1033144575+1033044241+1031348748
3623+1029471106+1028158496+1027839571+1028654479+1029695651+1029864439
3615+1029465021+1029342200+1029445775+1029349211+1029547828+1030728159
3606+1032160349+1032513734+1031682026+1030580667+1030019206+1030087463
3598+1030418360+1030801706+1031254036+1031669129+1031726208+1031231019
3589+1030427950+1029993544+1030369152+1030993644+1031140738+1030797671
3581+1030306848+1029973041+1030052012+1030672535+1031606032+1032347591
3572+1032525573+1032123245+1031432282+1030998869+1031262237+1031833751
3564+1031935871+1031504375+1031021753+1030889540+1031120764+1031419650
3555+1031536056+1031524481+1031553318+1031483078+1031018049+1030276027
3547+1029773100+1029825880+1030219808+1030594093+1030841125+1031035841
3538+1031278772+1031635332+1032067092+1032418625+1032552492+1032465782
3530+1032246331+1031979787+1031785932+1031853130+1032268289+1032816257
3521+1033076319+1032770158+1031977671+1031072151+1030459300+1030346268
3513+1030717378+1031363629+1031869665+1031849624+1031325864+1030628750
3504+1030031839+1029723892+1029814239+1030112397+1030261410+1030208961
3496+1030231978+1030471735+1030730540+1030747670+1030470213+1030093680
3488+1029924693+1030093680+1030430728+1030726571+1030965270+1031206481
3479+1031455035+1031745190+1032111207+1032419815+1032451893+1032219280
3471+1032008426+1032021852+1032111339+1031978266+1031624352+1031449809
3462+1031796051+1032469883+1032886167+1032685036+1032050954+1031420377
3454+1031043976+1030919765+1030994107+1031228969+1031522431+1031723694
3445+1031769661+1031717146+1031623955+1031495380+1031380230+1031425338
3437+1031738245+1032175032+1032334495+1031875882+1030928297+1030091431
3428+1029841687+1030060742+1030391838+1030789139+1031321829+1031740560
3420+1031752994+1031467469+1031140738+1030844168+1030639399+1030708647
3411+1031119243+1031676404+1032036006+1031950554+1031570647+1031436912
3403+1031912589+1032719362+1033261973+1033298482+1033098872+1032996223
3394+1032996157+1032929687+1032757789+1032476828+1032001547+1031480432
3386+1031365812+1031819531+1032423850+1032768107+1032866457+1032854155
3377+1032739932+1032548722+1032382512+1032323317+1032431787+1032702960
3369+1032935309+1032843771+1032417500+1031997381+1031882033+1032012262
3360+1032151486+1032206250+1032192427+1032104792+1032028665+1032180323
3352+1032641648+1033207143+1033596838+1033694527+1033576269+1033429902
3343+1033422494+1033579047+1033776408+1033826410+1033597235+1033205886
3335+1033041198+1033381024+1034037329+1034561553+1034676041+1034347856
3326+1033662118+1032873336+1032365515+1032306849+1032519554+1032839340
3318+1033304170+1033832759+1034092887+1033927934+1033592539+1033385125
3309+1033387903+1033652925+1034212798+1034797011+1034995298+1034832462
3301+1034737617+1034823136+1034699521+1034165045+1033559271+1033273613
3292+1033347492+1033634604+1033993082+1034297523+1034497067+1034590919
3284+1034472661+1034067754+1033646972+1033616416+1033929522+1034081048
3275+1033802335+1033436317+1033450207+1033873501+1034406323+1034807593
3267+1034990999+1034979226+1034908588+1034910837+1034976646+1035072152
3258+1035237964+1035440088+1035513900+1035370839+1035143517+1035109256
3250+1035469652+1036097583+1036572400+1036602626+1036285817+1035837125
3241+1035277185+1034519819+1033665492+1033107867+1033244975+1034029657
3233+1034974728+1035626602+1035837257+1035670452+1035332015+1035106875
3224+1035162433+1035475009+1035929390+1036348980+1036550442+1036501697
3216+1036303145+1036041298+1035806370+1035712054+1035749688+1035751209
3207+1035573293+1035248150+1034999994+1035120897+1035668071+1036318027
3199+1036679547+1036697669+1036593962+1036455002+1036086604+1035364093
3190+1034592176+1034282311+1034542373+1034927769+1035000721+1034834909
3182+1034795357+1035020828+1035362572+1035703721+1036054724+1036360026
3173+1036473257+1036336546+1036029922+1035703522+1035547962+1035691220
3165+1036068481+1036512875+1036903033+1037107669+1036972281+1036531989
3156+1036064447+1035820986+1035828857+1035952803+1036008096+1035824756
3148+1035327650+1034616581+1033983822+1033795456+1034206779+1034931473
3139+1035427124+1035418394+1035146229+1035034386+1035218982+1035517802
3131+1035734872+1035822111+1035831172+1035856900+1035943808+1035991296
3122+1035901875+1035811198+1035950819+1036282510+1036517306+1036544886
3114+1036595086+1036830412+1036987626+1036712087+1036163789+1035923503
3105+1036240776+1036692113+1036709177+1036218486+1035651338+1035462178
3097+1035713708+1036049698+1036046126+1035597831+1034938351+1034344019
3088+1033898767+1033502523+1033001448+1032331122+1031565488+1030785237
3080+1029878329+1028584106+1026819497+1024848598+1023077243+1021806566
3071+1021189085+1021207670+1021615025+1022050622+1022265377+1022136934
3063+1021526596+1020312932+1018577292+1016614594+1014723989+1013058788
3054+1011665025+1010574711+1009812913+1009373944+1009277710+1009665091
3046+1010748064+1012559433+1014773263+1016882527+1018547397+1019687249
3037+1020342364+1020654014+1020888083+1021238558+1021673030+1022125293
3029+1022647864+1023191003+1023500604+1023484532+1023440549+1023687647
3020+1024157636+1024540188+1024700643+1024799324+1025083328+1025658149
3012+1026402750+1026995495+1027037229+1026289254+1024902039+1023405958
3003+1022420012+1022303275+1022968046+1023971056+1024873136+1025554508
2995+1026124963+1026613207+1026914143+1026971354+1026822606+1026551366
2986+1026325367+1026366241+1026742246+1027284790+1027768933+1028095333
2978+1028263725+1028274572+1028143813+1028012923+1028153734+1028724851
2969+1029505168+1030017421+1030011336+1029721048+1029579708+1029771315
2961+1030102278+1030219213+1029920261+1029314157+1028693766+1028272191
2952+1028078401+1028057501+1028160679+1028354601+1028624319+1028976116
2944+1029415152+1029905909+1030331518+1030504871+1030311875+1029854981
2935+1029405694+1029210185+1029315479+1029542206+1029641548+1029534534
2927+1029331088+1029082866+1028661357+1027983887+1027231151+1026694493
2918+1026476430+1026463996+1026537874+1026676304+1026872144+1027083395
2910+1027302979+1027602724+1028059750+1028662680+1029306749+1029846978
2901+1030153801+1030225761+1030287271+1030659505+1031449809+1032443824
2893+1033315414+1033857760+1034059222+1034090903+1034188525+1034450438
2884+1034756533+1034914739+1034857727+1034684375+1034527160+1034426694
2876+1034375634+1034415450+1034594358+1034882595+1035176454+1035318721
2867+1035140805+1034623460+1033957829+1033335454+1032791918+1032330460
2859+1032061867+1032100360+1032385489+1032710235+1032940864+1033138490
2850+1033447296+1033929389+1034517570+1035075194+1035534138+1035973372
2842+1036442766+1036797738+1036899991+1036854751+1036876246+1037084983
2833+1037493330+1037969008+1038238990+1038152149+1037854189+1037571772
2825+1037403248+1037369186+1037497497+1037798764+1038200960+1038556593
2816+1038786561+1038972282+1039169775+1039247291+1039085182+1038787950
2808+1038529674+1038346070+1038206119+1038155456+1038269547+1038510560
2799+1038728490+1038834182+1038880480+1038912161+1038870823+1038735898
2791+1038616053+1038609703+1038680804+1038734112+1038762552+1038860902
2782+1039076584+1039296896+1039394716+1039402785+1039405431+1039375866
2774+1039293919+1039282742+1039433342+1039622965+1039686459+1039666683
2765+1039744596+1039985146+1040271465+1040476829+1040600113+1040686889
2757+1040694627+1040548458+1040317035+1040186211+1040237932+1040400305
2748+1040592970+1040726903+1040623064+1040205391+1039744596+1039629116
2740+1039901876+1040227284+1040286545+1040053799+1039730971+1039533544
2731+1039521043+1039589829+1039630240+1039663310+1039780311+1040009750
2723+1040317234+1040658316+1040942122+1041057404+1041040803+1041079825
2714+1041220901+1041250598+1041045300+1040837158+1040910375+1041168849
2706+1041273615+1041152976+1041088159+1041263363+1041530237+1041727400
2697+1041935012+1042207640+1042321335+1042041630+1041470843+1040913550
2689+1040543895+1040365516+1040339655+1040394154+1040412012+1040337010
2680+1040216304+1040088655+1039927604+1039748762+1039693933+1039923702
2672+1040419287+1040926249+1041160714+1041073806+1040876181+1040809512
2663+1040935707+1041115739+1041160648+1041050459+1041000127+1041216933
2655+1041632158+1042000821+1042226821+1042407846+1042584571+1042628951
2646+1042421867+1042030518+1041687187+1041621642+1041842086+1042068416
2638+1042022912+1041784148+1041663641+1041757163+1041890765+1042005914
2629+1042267232+1042718107+1043125594+1043273284+1043170966+1042866789
2621+1042334298+1041727863+1041451200+1041679581+1042036272+1042059752
2612+1041828660+1041820789+1042281849+1042994042+1043591615+1043873106
2604+1043864375+1043792217+1043945992+1044324047+1044501103+1044125694
2595+1043438568+1043005088+1043057272+1043378976+1043677531+1043794466
2587+1043660070+1043297227+1042883258+1042661425+1042743240+1043075526
2578+1043550476+1043971257+1044058826+1043768274+1043403183+1043140079
2570+1042836431+1042571145+1042799261+1043661657+1044666254+1045243323
2561+1045216934+1044778625+1044349312+1044336547+1044776840+1045337969
2553+1045726673+1045904721+1045910740+1045677465+1045146230+1044505997
2544+1044166568+1044395544+1045050526+1045732030+1046121329+1046129332
2536+1045840102+1045451994+1045198150+1045171363+1045257477+1045374941
2527+1045644130+1046108961+1046475772+1046426894+1046048178+1045678854
2519+1045466347+1045286116+1045013951+1044710832+1044561621+1044739074
2510+1045267398+1045897578+1046199572+1045991232+1045598494+1045495845
2502+1045798500+1046270937+1046624322+1046673199+1046458906+1046309232
2493+1046514133+1046899132+1046983659+1046597932+1046098246+1045893609
2485+1045979988+1046109424+1046196199+1046265976+1046178870+1045821517
2476+1045483345+1045609142+1046218356+1046920032+1047412906+1047630109
2468+1047561191+1047293722+1047073212+1047000789+1046833786+1046332116
2459+1045608745+1044943842+1044438733+1044078205+1044003930+1044428812
2451+1045213362+1045834018+1045975623+1045856836+1045754782+1045610862
2442+1045382349+1045341210+1045710601+1046339259+1046888616+1047118121
2434+1047006345+1046804552+1046816259+1046958129+1046806272+1046288795
2425+1045980385+1046370874+1047180028+1047792747+1048027675+1048022715
2417+1047757957+1047217926+1046692578+1046470017+1046476565+1046449845
2408+1046238528+1045868013+1045527989+1045473688+1045825618+1046476367
2400+1047158532+1047556429+1047514960+1047217397+1047016134+1047073014
2391+1047271698+1047427721+1047449812+1047347957+1047197555+1047097816
2383+1047101586+1047166866+1047193388+1047101388+1046848998+1046426431
2374+1045921917+1045557487+1045590226+1046236412+1047593137+1049297426
2366+1050396868+1050183699+1049132341+1048396537+1048495283+1048949531
2357+1048992059+1048380266+1047549418+1046934583+1046383837+1045633151
2349+1044942916+1044880877+1045668337+1046816524+1047593401+1047753526
2340+1047480369+1047094575+1046910773+1046979955+1047061572+1046980352
2332+1046799261+1046626769+1046463470+1046272458+1046067557+1045930383
2323+1045934087+1046003071+1045949696+1045784810+1045773037+1046039381
2315+1046414129+1046765927+1047120767+1047373884+1047324146+1047027377
2306+1046721547+1046533379+1046604347+1047129762+1047873437+1048121660
2298+1047563109+1046786430+1046562282+1047014017+1047721845+1048277287
2289+1048520681+1048484238+1048326693+1048229269+1048225036+1048217364
2281+1048238198+1048492175+1049012959+1049507089+1049717348+1049772111
2272+1050043284+1050712288+1051509801+1051876216+1051438106+1050396140
2264+1049461651+1049308009+1049903597+1050504940+1050566781+1050406127
2255+1050563341+1050890138+1050828363+1050272260+1049617477+1049176787
2247+1048974863+1049053503+1049593931+1050533248+1051370974+1051743473
2238+1051922381+1052270144+1052553156+1052277618+1051339359+1050040242
2230+1048866856+1048326759+1048509106+1048933459+1049296302+1049977608
2221+1051284397+1052648530+1053123744+1052413998+1051145504+1050329603
2213+1050581596+1051558546+1052176755+1051504775+1049396041+1046494688
2204+1044046127+1043397429+1044931871+1047544987+1049732824+1051093187
2196+1052182840+1053043450+1052782992+1051089483+1049350669+1049126521
2187+1049919801+1049914775+1048907268+1048665725+1049818872+1050389394
2179+1048670223+1045971721+1044983394+1046307711+1048129729+1048977376
2170+1049175927+1049644594+1050702962+1051984222+1052603356+1051917355
2162+1050840004+1051465752+1054510562+1058346470+1061182014+1062172060
2153+1060894703+1057957767+1055265217+1054115840+1053862062+1053406094
2145+1052931674+1053197754+1054134227+1054998872+1055284728+1055051784
2136+1054724392+1054597668+1054444753+1053917818+1053322229+1053406888
2128+1054326165+1055342799+1055747641+1055616353+1055410394+1055266275
2119+1055018053+1054567641+1053893478+1052985049+1052033959+1051413436
2111+1051314358+1051667016+1052337937+1053060911+1053442736+1053418264
2102+1053367006+1053511852+1053680641+1053801213+1054051089+1054352025
2094+1054263795+1053575743+1052627431+1051889907+1051450937+1051092327
2085+1050754088+1050578553+1050491051+1050231518+1049953334+1050233568
2077+1051275071+1052584242+1053577661+1054069476+1054170935+1054056579
2068+1053748169+1053037299+1051943612+1051244912+1051895661+1053686263
2060+1055140411+1055157475+1054296203+1053849495+1054143354+1054468564
2051+1054261943+1053575478+1052821287+1052687684+1053613377+1054844436
2043+1055045633+1054183369+1053679979+1054545153+1056439661+1058261348
2034+1058689802+1057014614+1054418893+1053291276+1054557588+1056897282
2026+1058847413+1060190050+1060905021+1060521741+1059091865+1057400606
2017+1055865369+1054442769+1053682228+1054546278+1056984586+1059498294
2009+1060325901+1058992722+1056713083+1055155359+1054847214+1054970631
2000+1054433443+1052866725+1050904424+1049688577+1049894933+1051172158
1992+1052668173+1053956047+1054965935+1055281884+1054359565+1052348057
1983+1050069145+1048362475+1047884615+1048922877+1050676176+1051655243
1975+1051602860+1051435791+1051123413+1049799890+1047925225+1047210981
1966+1048247061+1049981113+1051384533+1052113261+1052169215+1052021326
1958+1052294946+1052915668+1053295178+1053205294+1052806273+1052209957
1949+1051595585+1051395578+1051974301+1053325073+1054999600+1056120867
1941+1056025229+1055075528+1054253676+1054128605+1054503089+1054842915
1932+1054825322+1054525047+1054168289+1053814045+1053528056+1053666751
1924+1054351099+1054787423+1054152482+1052964942+1052468167+1052801974
1915+1052920496+1052391246+1051838516+1051709014+1051551139+1050833456
1907+1049908359+1049512777+1049759677+1050147719+1050273451+1050147058
1898+1049997846+1050031247+1050155259+1049937990+1049248747+1048670818
1890+1048771417+1049284000+1049668536+1049975160+1050418958+1050817450
1881+1050938817+1050857531+1050747474+1050741853+1050953037+1051284397
1873+1051434402+1051351860+1051473755+1052213528+1053242663+1053905847
1864+1054098115+1054172390+1054389659+1054637881+1054640990+1054366907
1856+1054127282+1054253742+1054723665+1055167198+1055258206+1054999732
1847+1054613344+1054308704+1054173316+1054098776+1053872181+1053427788
1839+1052861500+1052287936+1051767879+1051380366+1051294384+1051640427
1830+1052184824+1052317236+1051813449+1051178375+1050953632+1051069773
1822+1051065144+1050738083+1050273385+1049922381+1049692545+1049376794
1813+1048907003+1048544028+1048558447+1048794433+1048890138+1048789671
1805+1048728757+1048946224+1049548096+1050425506+1051231155+1051639237
1796+1051628192+1051498954+1051728922+1052503221+1053214686+1053241340
1788+1052785902+1052392899+1052268689+1052177019+1051911071+1051533678
1779+1051128373+1050697340+1050334895+1050264720+1050632457+1051178110
1771+1051391808+1051262240+1051128506+1051028635+1050855084+1050833721
1762+1051277717+1051869073+1051990836+1051722375+1051527262+1051453913
1754+1051329107+1051340682+1051826545+1052585697+1053058993+1053173018
1745+1053174671+1053194844+1053366874+1053846056+1054361616+1054304074
1737+1053623760+1053034323+1053275468+1053992423+1054395281+1054502097
1728+1054484966+1054328281+1054133103+1054055918+1053978402+1053663577
1720+1053219117+1053178309+1053903333+1054787225+1055136575+1055028569
1711+1054753097+1054452359+1054213926+1054142891+1054145868+1053922249
1703+1053506825+1053417537+1053978534+1054703889+1055205890+1055474880
1694+1055248616+1054609375+1054151622+1054147521+1054126026+1053657822
1686+1053289027+1053935940+1054898472+1054852836+1054129730+1053475541
1677+1053207080+1053212834+1053027510+1052346866+1051534008+1051274741
1669+1051646909+1051873967+1051674688+1051581497+1052072320+1052859846
1660+1053234991+1052946026+1052121793+1051118452+1050978567+1052943513
1652+1055075131+1055275270+1054625050+1054489265+1055151986+1055674953
1643+1055644463+1055424945+1055232015+1055062829+1055167529+1056116039
1635+1057555373+1058162271+1057785671+1057151986+1056834846+1056843709
1626+1056789210+1056580869+1056484239+1056433907+1056058762+1055442141
1618+1055178309+1055596114+1056015308+1055804587+1055146430+1054384103
1609+1053606829+1052688809+1051500277+1049994804+1048166767+1046117625
1601+1044141898+1042577362+1041608679+1041291539+1041548161+1041930846
1592+1041601205+1039816093+1036428745+1031998108+1027562709+1024212466
1584+1022579806+1022551829+1023518924+1025037956+1027195766+1029863315
1575+1031489493+1030954489+1029588372+1029678983+1032713674+1037338828
1567+1040921487+1042705739+1043003963+1042209029+1041132009+1041478780
1558+1044075097+1046182574+1046907598+1047297757+1047761595+1048300502
1550+1048855216+1049208138+1049211709+1049096295+1049259528+1049959287
1541+1051422960+1053305694+1054144347+1053674754+1052872148+1052612748
1533+1053039879+1053386848+1053226591+1052932666+1052908393+1053125860
1524+1053480171+1054219151+1055375274+1056238199+1056410163+1056252419
1516+1056008231+1055581233+1054990473+1054417702+1053976815+1053895198
1507+1054745491+1056098380+1056521542+1056112335+1055533282+1055103836
1499+1054959850+1055121495+1055179963+1054595552+1053343262+1051612979
1490+1049192529+1044962560+1037389557+1026035344+1011790889+996400166+982605528
1480+973784798+972144268+977535518+987919858+1000510554+1012902037+1022907991
1470+1029061833+1032073243+1033638176+1034931341+1036057502+1036280592
1462+1035228837+1033174999+1030424379+1027351128+1024921815+1023883421
1453+1024049167+1025097085+1026876972+1029451926+1032817381+1036433375
1445+1039386515+1040349378+1037105751+1026960507+1006669158+972876237+931097468
1435+900854201+893741862+906312319+931673148+960180577+981846508+994023169
1425+999828256+1002421795+1003587177+1004851042+1007738241+1012106244
1417+1015947509+1018441176+1020269676+1022087594+1024059617+1026017552
1408+1027830708+1029692741+1031781302+1033720917+1035044373+1035880446
1400+1036612481+1037341936+1037992619+1038616847+1039226391+1039610001
1391+1039646709+1039545912+1039631827+1039896849+1039955515+1039611919
1383+1038983525+1038168816+1037219578+1036348385+1035969999+1036497729
1374+1037909349+1039561322+1040932532+1042181581+1043565820+1044882795
1366+1045808620+1046375570+1046803163+1047132341+1047290217+1047359928
1357+1047532024+1047908491+1048428945+1048938552+1049306950+1049516018
1349+1049667544+1049870461+1050135748+1050404474+1050604282+1050646876
1340+1050436948+1049915370+1049075593+1047944604+1046577561+1045081942
1332+1043653919+1042539397+1041900289+1041772507+1042158763+1043007601
1323+1044072253+1044969835+1045422562+1045335059+1044667378+1043382018
1315+1041573096+1039579709+1037890896+1036897080+1036749324+1037375205
1306+1038567109+1040109952+1041831636+1043542672+1045050658+1046259098
1298+1047149008+1047691090+1047856175+1047665097+1047176721+1046475639
1289+1045683748+1044951845+1044413468+1044099172+1043898966+1043681896
1281+1043448885+1043304833+1043329172+1043530303+1043853132+1044155986
1272+1044281717+1044234361+1044208699+1044384631+1044788348+1045399281
1264+1046240248+1047272094+1048324775+1049244581+1050013389+1050666056
1255+1051209461+1051656301+1052045930+1052408971+1052744961+1053008661
1247+1053118056+1053051321+1052941264+1052976054+1053198482+1053493134
1238+1053743936+1053902143+1053930980+1053831770+1053694728+1053620586
1230+1053622107+1053664966+1053734611+1053819865+1053893809+1053942686
1221+1053988984+1054094279+1054335358+1054715463+1055086507+1055216803
1213+1055016465+1054703624+1054632987+1054892255+1055196895+1055256024
1204+1055088822+1054864212+1054591584+1054116568+1053315152+1052141304
1196+1050506660+1048263199+1045384862+1042088920+1038712154+1035523291
1187+1032692774+1030371731+1028775051+1028218353+1029020298+1031244313
1179+1034512940+1038121857+1041377322+1043866492+1045510330+1046484899
1170+1047117327+1047701672+1048215247+1048162336+1046814804+1043753790
1162+1039282808+1034394352+1030391573+1028444220+1029161969+1032230259
1153+1036474315+1040545085+1043676075+1045815366+1047219910+1048102215
1145+1048557058+1048598131+1048218025+1047471374+1046476565+1045281552
1136+1043753327+1041663972+1038905480+1035627329+1032247786+1029402850
1128+1027775746+1027743536+1029107470+1031274275+1033749754+1036359959
1119+1039010378+1041458938+1043429242+1044792515+1045563307+1045836928
1111+1045747110+1045322956+1044313266+1042157705+1038070664+1031162829
1102+1020681991+1006406120+989086100+970726893+954377011+943296484+939899876
1092+944919289+957016913+973161497+989868335+1004572131+1016169209+1024678817
1082+1030659836+1034710434+1037134258+1037965502+1037259989+1035290744
1074+1032583710+1029941161+1028326425+1028456919+1030386679+1033481689
1065+1036804419+1039575013+1041423686+1042366244+1042630803+1042523061
1057+1042359100+1042390517+1042745754+1043446240+1044383506+1045239024
1048+1045643667+1045541151+1045212833+1044894436+1044594955+1044292432
1040+1044052014+1043903199+1043639831+1042590457+1039616417+1033683812
1031+1024817579+1014831400+1007176649+1005310978+1010208561+1019370572
1023+1028741055+1035595251+1039587315+1041744993+1043124338+1044184955
1014+1044867451+1044997217+1044583778+1043778261+1042676108+1041208533
1006+1039156745+1036224770+1032142491+1026920889+1021331815+1017072414
997+1015892613+1018203735+1022720088+1027540817+1031366672+1033842217
989+1035336314+1036613672+1038352750+1040679944+1043180160+1045350073
980+1046936567+1047853066+1048019341+1047495911+1046620750+1045762322
972+1045066399+1044643370+1044744960+1045474085+1046573791+1047728856
963+1048828098+1049828066+1050674390+1051430235+1052224706+1053038291
955+1053697176+1054061407+1054121991+1053965637+1053715827+1053506693
946+1053460263+1053608218+1053816822+1053899166+1053865634+1053966497
938+1054391908+1055018913+1055528916+1055675284+1055360789+1054617114
929+1053644594+1052752766+1052107242+1051569856+1050865997+1049897711
921+1048900257+1048296070+1048346799+1048923009+1049634342+1050198713
912+1050670289+1051301527+1052196993+1053182410+1054021591+1054632987
904+1055049998+1055319716+1055520384+1055757826+1056038920+1056199375
895+1056070733+1055780446+1055724359+1056052876+1056371537+1056277089
887+1055990109+1056038589+1056500576+1057022021+1057434006+1057913982
878+1058600050+1059383343+1060066832+1060532191+1060769567+1060833259
870+1060767119+1060566848+1060211876+1059660667+1058790599+1057374943
861+1055091270+1051591021+1046761694+1041000590+1035053699+1029469585
853+1024301688+1019384726+1014814799+1011074463+1008713208+1008038450
844+1009177244+1012205916+1016943177+1022709704+1028586222+1033965502
836+1038734906+1042967917+1046638806+1049701672+1052257048+1054441446
827+1056219746+1057463703+1058210024+1058688876+1059117065+1059540425
819+1059859087+1060024105+1060235488+1060835243+1061894802+1063023742
810+1063737853+1063970996+1064113262+1064585500+1065456363+1066412677
802+1067024999+1067126392+1066986704+1067036045+1067424550+1067969607
793+1068470285+1068931809+1069531564+1070414662+1071465821+1072378286
785+1073020966+1073496841+1073741823+1073430966+1072433578+1070993517
776+1069313369+1067288302+1064789541+1061909287+1058759116+1055309729
768+1051689635+1048384764+1045747639+1043427919+1040521407+1036002143
759+1028787419+1017879385+1003006206+985078626+965801861+946744482+928539049
749+910711010+892318071+873026954+853901120+837620156+828279237+830411847
739+846740300+875841597+912067140+948124422+978337926+1000421199+1015128566
730+1024712945+1031441079+1036816654+1041481426+1045463635+1048578289
721+1050808984+1052406127+1053628919+1054396074+1054029726+1051112698
713+1043703722+1030163722+1010301157+986020390+960730463+937828379+919188937
703+904110195+889193893+869641921+841617643+804710861+763301681+725742762
693+701353592+696693979+712931291+745735555+787613402+830902274+869920766
683+901622613+925210367+941587763+952612402+960210009+965924881+970823060
673+975391598+979839034+984722530+990563927+996234288+1000429731+1004062921
663+1008121257+1012281779+1015726073+1018406122+1020945558+1023699354
654+1026438796+1028714666+1030295538+1031267198+1031884348+1032465782
646+1033216601+1034033295+1034745422+1035448950+1036242760+1036875916
637+1037043448+1036822607+1036573459+1036604280+1037058991+1037996786
629+1039474282+1041437509+1043329172+1043796582+1041249011+1035369053
620+1028229134+1023406817+1023411315+1027783153+1033850617+1039116136
612+1042672669+1044959187+1046715991+1048149372+1049054892+1049537844
603+1050172852+1051328909+1052611095+1053263034+1053102778+1052688809
595+1052492704+1052395347+1052149571+1051877406+1051896521+1052422464
586+1053485132+1054767582+1055676474+1055970532+1056080654+1056441447
578+1056876316+1057058200+1057042723+1056771484+1055626539+1053046691
569+1048971423+1043367864+1036315249+1029111504+1024326160+1023988054
561+1027778524+1033012361+1036468759+1036684309+1034792778+1033220900
552+1033706961+1036236146+1039180622+1040685235+1040622403+1040728954
544+1042243157+1044351429+1045734543+1046573526+1047979062+1050074767
535+1051715496+1051660798+1048774988+1041209988+1026405727+1001762778+965554168
526+919340265+869385431+823201026+786412502+763815587+759411936+772649346
516+795887222+818149866+831338267+833237735+826738776+816603585+806598490
506+799274636+797100225+802157734+813731068+827334827+838198482+844633682
496+847768839+849579548+851049769+852094909+853354607+856928469+864883165
486+878003574+895558655+914923253+932176406+944696663+952839328+958665844
476+963792800+968817438+973916350+979070688+984036991+988617170+992777824
466+996532710+999755304+1001843006+1001944200+1000062656+997481155+995502451
456+994129390+993019102+992655201+993099594+992922141+990752624+986813869
446+981874353+976081105+969959208+965064205+962041948+959735125+957186496
436+954596264+952051934+949188082+946539713+945548874+946869288+949639287
426+952277999+953197276+951664288+948861881+947303363+948951037+952848058
416+956209148+958493880+960816444+964325357+969493386+975619185+981383067
407+986031568+989676795+992934046+996989207+1003211636+1010863544+1015218318
397+1013879781+1013194441+1017955380+1025212367+1029935143+1030282906
388+1027854452+1025186242+1024061072+1024769826+1026034881+1026058096
380+1023052904+1015710464+1005872240+1002009017+1010639462
##END=
