##TITLE=X8156
##JCAMP-DX=4.24
##DATA TYPE=INFRARED SPECTRUM
##DATE=31/10/2018
##SAMPLING PROCEDURE=Diamant-ATR
##ORIGIN=ComPlat
##XUNITS=1/CM
##YUNITS=TRANSMITTANCE
##RESOLUTION=4
##FIRSTX=3997.453
##LASTX=373.96442
##DELTAX=-1.4165319
##MAXY=0.95219123
##MINY=0.37614089
##XFACTOR=1
##YFACTOR=8.8679719e-010
##NPOINTS=2559
##FIRSTY=0.82444501
##XYDATA=(X++(Y..Y))
3997+929688340+930579253+931246615+931260931+930893879+930593973+930490532
3988+930614473+931086042+931751925+932161053+932197483+932222553+932435956
3978+932634504+932634370+932457666+932164078+931832917+931614474+931572533
3968+931578380+931485223+931335673+931343738+931696878+932357787+933056873
3958+933453365+933267789+932433335+931334261+930773433+931380639+932879430
3948+934133228+934329828+933871500+933745138+934292457+934832449+934708373
3938+934144991+933725579+933697551+934098614+934955248+935838432+935966608
3928+935315041+934731226+934776326+935007070+934684849+933838363+933123818
3918+932990198+933172346+933070652+932618306+932363433+932758446+933621802
3908+934430917+935084432+936007944+937370024+938560574+939043032+939011442
3898+938634845+937795888+936726724+936127987+936574553+937578183+937781571
3888+936968760+936274109+936291585+936142707+935332987+934903830+935454913
3878+936039131+936168047+936475749+937046324+937257441+937360009+938174030
3869+939174434+939481532+939615825+940043503+939778951+938077377+935992485
3859+934785333+934771285+936121737+939400876+943375674+944502641+942887907
3849+940927158+939667176+939121941+939046258+939143785+939202261+939420368
3839+940220342+941349863+941840924+941379638+940500084+939649700+938919158
3829+938502905+938700109+939241110+939538529+939936365+941260402+942498540
3819+941751463+940007611+939371773+939697758+939260064+937616764+935566285
3809+934203870+934604529+936499543+937908336+937959485+937695471+938027639
3799+938779220+939909278+941339378+941974880+941003176+939221887+937901077
3789+937532478+937951957+938818808+939528783+939435289+938677324+938046661
3779+937930314+937905580+937536982+936983076+936723028+937261004+938659580
3769+939977634+940204816+939783455+939669461+939849458+939937373+940157565
3759+940747496+941120732+940749110+940140022+940201388+941568508+943839716
3750+944939797+943855914+942242793+941976628+942882664+942716983+940789438
3740+938253745+936418282+936544442+938760534+940660926+940224240+938633568
3730+937656890+937726053+938470038+939266382+939591897+939463990+939160857
3720+938687473+938058087+937588333+937513121+937843676+938626175+939715636
3710+940412102+940243665+939370563+938162201+937242654+937280563+938071731
3700+938553315+938416738+938271154+938508753+939212208+940674234+943226595
3690+946251601+947678877+946303691+943476898+940858667+939239094+938864043
3680+939503847+940664421+942271896+944406392+945767127+945200047+943986510
3670+943692384+944203407+944315049+943703004+942733316+941735130+940957740
3660+940454648+940247227+940718393+941949272+942821634+942547202+942184586
3650+943656425+946923197+948378165+946558497+943858670+942119725+941593646
3640+941805032+942181091+942208447+941571734+940403566+939133837+938154807
3631+938004249+939277405+941052914+941415665+940511914+939715099+940211604
3621+942550160+945748374+947461375+946936640+945643925+944754355+944312091
3611+944246289+944917617+946159115+946699780+945701258+943915263+942602183
3601+942122951+941841462+941356987+941042899+941133973+941155146+940654070
3591+940003713+940107827+941459958+943241382+944132968+943965942+943170472
3581+942140023+941479652+941579060+941962647+942002169+941889519+942103728
3571+942666640+943729082+945930791+948797577+949870168+948183381+945586457
3561+943858401+943252069+943182503+943262689+943390394+943447122+943377153
3551+943315653+943518301+944229889+945279561+945760943+945021327+943918826
3541+943857057+945026234+946321570+946635457+945861293+944688755+943866198
3531+943846975+944601042+945490476+945793138+945473875+945023007+944740846
3521+944550228+944262219+943808932+943379438+943265646+943459288+943652862
3512+943680084+943645267+943661264+943774586+944038667+944422792+944723303
3502+944677060+944189897+943508152+943110383+943258454+943662205+943789709
3492+943446921+942921850+942679142+942968160+943668321+944478781+945103999
3482+945275864+944929850+944381926+944057218+944118786+944429177+944686873
3472+944674103+944500154+944369962+944129473+943484291+942635789+942147753
3462+942176251+942346503+942432200+942697290+943366802+944054933+944136530
3452+943712951+943696551+944655350+945941478+946349934+945546062+944347244
3442+943682167+943747835+944049220+943996726+943493365+943005127+943042565
3432+943621070+944300531+944663953+944667314+944601109+944745618+945016286
3422+945027578+944564881+943851007+943359409+943506136+944347580+945361427
3412+945783392+945376617+944643319+944274385+944643857+945690907+946937177
3403+947691110+947535645+946660998+945633439+944897923+944528182+944336423
3393+944097681+943743735+943457473+943494306+943807386+943976159+943680218
3383+943198567+943205692+943941477+944808597+945060445+944739770+944555337
3373+944965002+945704282+946137069+945938118+945469237+945320427+945488258
3363+945527444+945526704+946081013+947131222+947719609+947233320+946210668
3353+945555808+945529998+945871912+946386969+946973943+947392615+947395774
3343+946974750+946372047+945944772+945868417+945863107+945545188+945066494
3333+944976630+945519849+946458148+947363781+947817538+947678071+947337366
3323+947330981+947619797+947642313+947111395+946405587+946096069+946401957
3313+947192387+948109984+948523817+947887373+946505802+945512657+945734730
3303+946881928+947975355+948311826+947908814+947183111+946431329+945770084
3293+945406594+945587533+946250727+947009970+947531545+947756374+947763969
3284+947618923+947458014+947551306+947995923+948393087+948184389+947327015
3274+946290719+945467288+944978243+944908677+945230159+945590557+945648428
3264+945574829+945768538+946085920+945866401+944875003+943733518+943129808
3254+942977704+942676252+941933947+941050226+940557955+940718527+941224375
3244+941472326+941355576+941429981+941915396+942057485+941111927+939541890
3234+938515676+938515810+938995042+939151447+938668250+937892137+937517423
3224+937919157+938701454+939138475+939097811+939129469+939528582+939888913
3214+939879301+939866799+940306980+940971989+941254756+940970510+940480525
3204+940126982+939852416+939520180+939415193+940022197+941296630+942544178
3194+943058293+942635789+941646946+940772903+940392543+940257175+940084100
3184+940115758+940603189+941228207+941582421+941766384+942063400+942402223
3174+942518973+942364046+942093041+941882999+941899937+942191576+942518368
3165+942585715+942489600+942566224+942801739+942790985+942240171+941244674
3155+940279422+940003713+940683778+941809737+942649366+942953037+942819618
3145+942366398+941813165+941371169+940977232+940635116+940766451+941624564
3135+942676386+943131959+942870364+942443021+942362836+942702465+943213018
3125+943547942+943383068+942588337+941429107+940394693+939689020+939115824
3115+938481531+937741848+936762952+935422247+934016344+933193854+933358325
3105+934253944+935183236+935691974+936014464+936613739+937417073+937962106
3095+938148758+938270750+938434348+938519507+938611791+938977701+939666503
3085+940439794+941019643+941209118+940910422+940263627+939689625+939585108
3075+940021256+940820961+941705086+942267124+942184519+941679343+941433140
3065+941911834+943029794+944405451+945627457+946406797+946696890+946540618
3055+945882868+944888177+944224781+944527443+945661266+946828359+947356455
3046+947242998+946930053+946678608+946392278+946063336+945914996+945889993
3036+945524957+944573887+943172219+941226862+938257039+934073610+929265164
3026+924970363+922275106+921639335+922772284+924981386+927468147+929467342
3016+930649491+931426411+932483677+934063999+935903226+937547803+938526363
3006+938555466+937736135+936336752+934421439+931858459+928568834+924698687
2996+920674890+917004299+913923103+911383647+909310652+907576479+905880887
2986+904022571+902220916+901034062+901063367+902594623+905256407+908206873
2976+910844327+913054370+914700628+915334450+914606529+912659492+909978686
2966+907024993+904075334+901286785+898737179+896387063+894127483+891869785
2956+889541715+887190255+885165653+883899622+883394513+883253567+883239721
2946+883410174+883661283+883545071+882715322+881343160+879920791+878799470
2936+878085059+877745228+877494791+876826555+875588283+874337307+873818890
2927+874293955+875471063+876845106+878079480+879196230+880302832+881193812
2917+881513950+881253431+880808209+880594471+880662759+880546883+879561334
2907+877421394+874435775+871029468+867398936+863749048+860535844+858290312
2897+857356315+857837361+859578457+862108974+864766524+867058568+868923874
2887+870647158+872510044+874474691+876206377+877431476+878193205+878663968
2877+878828103+878544126+877912320+877410505+877502319+878115574+878679225
2867+878715789+878212562+877412521+876529136+875688364+874872259+873878509
2857+872515556+870861703+869252278+867979526+867005200+866064347+865103532
2847+864434960+864338442+864691783+865097684+865295493+865477104+866158513
2837+867583101+869379782+871053732+872600177+874346112+876432214+878711353
2827+880978931+883137556+885186489+887058113+888530557+889443651+889926781
2817+890271048+890676613+891211229+891880674+892668617+893574451+894609739
2808+895743831+896894390+897967855+898844586+899368716+899482239+899387065
2798+899431964+899784162+900333631+900915699+901433310+901807016+902051673
2788+902334977+902753717+903188251+903498979+903652494+903592271+903240073
2778+902659080+901970882+901111425+899874564+898251361+896571564+895222322
2768+894373484+894099926+894532645+895611219+896880947+897855541+898503142
2758+899155515+900011410+900873422+901365760+901353191+901088169+900922421
2748+900962614+901085346+901197256+901348822+901594017+901855544+902052816
2738+902343648+903056782+904314277+905844793+907230666+908211646+908762527
2728+909114254+909703043+910794118+912104578+913081390+913563848+913872760
2718+914272344+914676700+914875786+914790963+914510347+914209836+914032056
2708+914029099+914207147+914508599+914764144+914847691+914865166+915019555
2698+915369199+915890977+916625350+917519154+918283034+918701102+918968342
2689+919397499+919881369+920033136+919842452+919785791+920198011+920859458
2679+921305217+921293522+920875992+920255008+919703119+919449254+919519492
2669+919770399+920059014+920287606+920414304+920559955+920905432+921363222
2659+921616953+921593495+921629522+922067887+922861274+923588120+923830088
2649+923618971+923440452+923654392+924098673+924423986+924539391+924526015
2639+924360872+923936218+923220664+922361408+921743448+921823499+922656878
2629+923706281+924402679+924780485+925231823+925812816+926272623+926678188
2619+927439178+928654060+929935887+930985491+931870960+932655542+933239559
2609+933695132+934306437+935139615+935941874+936513859+936829695+936778949
2599+936151714+935021857+933957264+933648687+934311680+935569243+936886289
2589+937916603+938486035+938580201+938445707+938473063+938898053+939644525
2580+940425813+941036648+941534901+942008554+942323113+942398593+942458951
2570+942612937+942616029+942520720+942991819+944367139+945887304+946444100
2560+945757919+944360216+942847108+941673831+941305502+941940803+943163213
2550+944235939+944712750+944636329+944354436+944298783+944717590+945440739
2540+945999954+946030402+945536383+944883472+944547002+944681294+944951291
2530+944963994+944735536+944525158+944436436+944390664+944209793+943621608
2520+942605947+941788565+941975888+943193324+944603797+945424137+945589549
2510+945567705+945818343+946428439+947136532+947660125+947853834+947544585
2500+946637002+945528788+944907064+944933210+945139421+945190705+945129070
2490+944899671+944386228+943943224+944201727+945307858+946779495+947981606
2480+948502241+948386903+948203814+948513802+949196623+949677803+949784874
2470+949923872+950413992+951061189+951491288+951677402+951958757+952489071
2461+952823524+952381596+951297780+950344426+949908681+949601583+949035714
2451+948443564+948296434+948725591+949506073+950352290+951084445+951591839
2441+951750664+951520795+951096073+950791933+950826346+951335420+952414800
2431+953954927+955576182+956826754+957433422+957481076+957363318+957386507
2421+957507827+957580821+957572419+957419912+957037804+956580282+956413862
2411+956792677+957643262+958581695+959206377+959546476+959988875+960623369
2401+961033102+960920654+960522213+960204899+960042108+959983095+960062810
2391+960230843+960291066+960126999+959615572+958361504+956044256+952940946
2381+949558903+945935564+941844957+937429642+933050824+928741236+924252793
2371+919430837+914331962+909119833+903946015+899129369+895549046+894144824
2361+894651815+895761037+896980759+899301570+903648999+909724350+916391246
2351+922253934+926039527+927033613+925279478+921694584+917962628+915497443
2342+914501743+914561026+915495157+917325983+919770198+922075886+923607544
2332+924462230+925145118+925800516+926247283+926587921+927249838+928514055
2322+930401474+932976016+936239696+939649700+942374531+944158105+945459088
2312+946741452+948137273+949833604+952205027+955280779+958367486+960599576
2302+961885368+963011999+964731653+967011263+969168140+970457226+970637896
2292+970258879+970215056+970880334+971938273+972980618+973788456+974146434
2282+974016981+973875228+974311443+975243357+975910584+975686764+974656718
2272+973447818+972720166+972745640+973311241+974166195+975510396+977510935
2262+979365285+979809767+978834165+977879466+977960525+978605438+978996418
2252+979036276+978942782+979014902+979996688+982311450+984805604+985653367
2242+984696786+983621304+983689795+984377186+984426857+983512015+982442180
2232+982046965+982339074+982763460+982892173+982868716+983341360+984724276
2223+986546700+987918256+988377391+987953947+987026267+986458919+987120299
2213+989079031+991708218+994252379+995990584+996526073+996219446+995806756
2203+995597319+995358106+994799563+994019484+993494077+993557124+993931166
2193+993862071+992724686+990651825+988438622+986608738+985261311+985237988
2183+987907300+992933316+998107537+1001987027+1004571314+1005319735+1003104046
2173+998645513+994846478+993834513+994814216+995495289+994944609+994153239
2163+994522509+996752650+1000028966+1001617219+999520027+995501607+993002075
2153+993727711+996901595+1000196529+1001705940+1001589191+1001128712+1000708830
2143+999976674+998854681+997224488+995077289+993722334+995124540+999339155
2133+1003976610+1006650292+1006849311+1005449256+1003570238+1001934735
2125+1000673207+999701503+999262129+999563178+1000077091+1000177777+1000293854
2115+1001240286+1002634023+1003224358+1002632679+1001738673+1001480574
2106+1001895885+1002239211+1001908454+1001182079+1000714946+1000550677
2098+1000288948+999900051+999589928+999190547+998439639+997574737+997032661
2088+996809512+996692695+996847421+997445216+998054506+998362881+999132071
2078+1001249561+1004152373+1006371222+1007404493+1007999332+1008830694
2070+1009796618+1010594373+1011442472+1012844610+1014562719+1015317727
2061+1013993354+1010849650+1007383254+1005419615+1006072122+1008539593
2053+1009979102+1007941864+1003337545+1000067144+1001110295+1005776114
2044+1011447311+1016531130+1020454779+1022083494+1020293265+1016205616
2036+1012925401+1012186860+1012756023+1013121194+1013853147+1015926680
2027+1018768194+1021461569+1024242052+1027380581+1029656359+1029285678
2019+1026110383+1022236136+1020560976+1022521322+1026637067+1029350807
2010+1028453643+1025647955+1024171612+1024467889+1024370430+1022928299
2002+1021764567+1022835007+1025944164+1028640631+1028871441+1027334809
1993+1026224242+1026303688+1026566627+1026179680+1024931661+1022413310
1985+1018487242+1014343335+1012157085+1013605063+1018633632+1025145669
1976+1030107092+1031920375+1031542165+1030695680+1029638884+1027704079
1968+1025671748+1025635654+1027892478+1030246157+1031082023+1031219138
1959+1032206167+1033914529+1034607701+1033038806+1030026436+1027923128
1951+1028638816+1032102658+1036343218+1039119669+1039601320+1038359754
1942+1036347654+1034560719+1033882872+1034325270+1034811962+1034232045
1934+1032430525+1030046668+1028037525+1027231435+1027569653+1028115291
1925+1028318947+1028579130+1029162946+1029558161+1029469842+1029498878
1917+1030289913+1031549895+1032592509+1033368891+1034399272+1035840394
1908+1037140503+1037930596+1038545330+1039228756+1039587070+1039270630
1900+1038638286+1038344362+1038624642+1039209331+1039797179+1040428784
1891+1041134054+1041480808+1041314589+1041664502+1043446329+1045741733
1883+1046704834+1046003395+1045009511+1044744488+1044997211+1045263846
1874+1045595477+1046540027+1048517041+1050893035+1051830460+1050492040
1866+1048519528+1047716395+1048220899+1049012875+1049215523+1048912323
1857+1048825685+1049420793+1050471203+1051433766+1052079418+1052651135
1849+1053517986+1054846056+1056393980+1057353182+1057040170+1056015636
1840+1055308484+1055207597+1055258275+1054901641+1054198925+1053805458
1832+1054152548+1054878318+1055426040+1055956085+1056628689+1056764124
1823+1055762443+1054081503+1052550584+1051531024+1050812647+1049915886
1815+1048652342+1047222982+1045709336+1044060390+1042736287+1042541905
1806+1043695018+1045759343+1048294901+1051016640+1053475709+1055261569
1798+1056534859+1057840345+1059534122+1061408435+1062537284+1062209686
1789+1061112494+1060346396+1060211499+1060340011+1060549918+1061035468
1781+1061585744+1061688244+1061561345+1061972691+1063196580+1064610346
1772+1064902052+1063366159+1060880272+1058539767+1056743490+1055625328
1764+1055243421+1055207193+1054850290+1054184810+1053679500+1053402312
1755+1053343836+1053916495+1055480080+1057594411+1059016781+1059072501
1747+1058275081+1057227964+1056190794+1055396466+1055025179+1054994060
1738+1055369850+1056712706+1059393041+1062385382+1063856481+1064000250
1730+1063900842+1063859707+1063962208+1064374562+1065104970+1066020483
1721+1067213991+1069127489+1071846002+1073741823+1072827519+1069979083
1713+1067163850+1065434987+1065019810+1065589309+1066538026+1067289539
1704+1067617339+1067790010+1068188317+1068609610+1068377522+1067453137
1696+1066103089+1064701689+1064020280+1064459452+1065519139+1066385788
1687+1067120162+1068449978+1070065856+1070147385+1068363273+1065974577
1679+1063867101+1062156654+1060190259+1057419522+1054130838+1050103479
1670+1043566238+1033134921+1020454376+1007023393+991084410+969774002+943627052
1660+916575747+890914145+867285346+845448589+821067268+788485914+758606471
1650+740600273+726481563+708304979+686181557+668118160+657408984+652119089
1640+650566123+651828794+655319521+659527281+660857300+657987221+652839280
1630+646349357+638167135+628101527+616732718+604308861+590560967+576858912
1621+565793841+558367871+554534220+554093200+555607585+557677723+560544072
1611+564678233+569510137+573868522+577195383+579761455+582074470+584383855
1601+586573196+588558545+590543626+592603447+594307777+595004646+594346223
1591+592507601+590060496+587546715+585095510+582509340+579594766+576493877
1581+573885997+572790957+574442389+579799162+586968814+592406646+596316920
1571+601129869+607591831+613508895+617398063+619998818+621722438+622579207
1561+623803634+628159801+635190657+639040438+640152753+641692141+644881282
1551+649798277+655874771+662109687+668233095+675098674+683139882+691782180
1541+701473947+712011259+719175534+722482433+725533249+730949169+738257752
1531+744757354+750063649+755999398+763311744+770541821+776373389+781439733
1521+786356997+790392691+793372193+795997145+798393638+800559993+803271179
1511+807320786+812848886+820217288+829529905+836021575+835651028+830517740
1502+821752643+808448560+789421323+765622339+743139796+729222861+725937672
1492+732778785+748704594+768357924+783188424+789517102+787542641+776876414
1482+757257028+731560206+705347052+683436966+669489717+667833512+681843874
1472+706222372+728410049+743080917+751663261+754973453+753337680+750337947
1462+750471970+755146460+763990331+774613003+780667451+780055473+776931664
1452+773461907+768848716+760532067+746197804+727058388+707689371+692571332
1442+684714356+685108361+692987787+707211551+723540641+733090790+731671176
1432+721030422+702924076+680179334+657977878+640110744+627888057+622229362
1422+624047551+634307675+652669566+671525140+679458740+673992342+659567676
1412+642750416+631282266+630463136+640461531+659030977+683659644+710147701
1402+734790683+758198822+782487859+806847268+829042809+848862021+866460032
1392+881021880+892980151+904215406+915909259+926846356+934349656+936711937
1383+932106678+916104447+883497014+833892659+773927763+714571955+668413294
1373+644184414+640788323+651591800+670712530+693788903+718781798+746362409
1363+776306915+804568599+827324768+844791108+858689694+869787499+878032968
1353+883321587+885617596+884688102+880212228+872112880+860652527+846282775
1343+828914566+806963547+778195477+743295194+708009105+680106744+665895145
1333+668912421+688818338+721417370+760689683+800948554+837663128+867498950
1323+888445263+899801839+901455961+893211902+875121688+847875329+812636088
1313+771479314+727747392+684632154+643804456+606148222+572896414+545519561
1303+525183175+512475644+507056968+507434976+511466032+517374794+524481400
1293+533061862+543569667+555985929+569773411+584278128+599131144+614328361
1283+630002657+646190128+662793717+679664009+696654680+713658189+730645567
1273+747646051+764629194+781368352+797463002+812596029+826773752+840207356
1264+852895631+864333670+873678011+880299337+884262305+886334158+887677754
1254+889507974+892715397+897584469+903839146+910862542+917774431+923455709
1244+926751518+926722079+922643167+913782896+899244976+878121354+849929235
1234+815033657+774807788+731521155+687894289+646262719+607869355+572976802
1224+541637080+514385714+492521434+477811111+471373615+472280390+477412906
1214+483187510+487435262+489417687+488805743+486152663+484377960+487970516
1204+499711485+518660015+540968038+561338400+574383107+577280676+572496427
1194+566922690+567259496+576080178+591935548+612019782+634122300+656988228
1184+680062921+703054067+725466640+746649074+766187738+783842880+799155838
1174+811506970+820375979+824975257+823519146+813198059+791216256+756194989
1164+709130225+653704652+596009150+543373908+502159162+475502197+462650930
1154+460233634+464149116+470852274+478038629+484991955+492279970+500767643
1145+510873781+522641467+535971260+550475506+565426789+580110226+594124285
1135+607357122+619825945+631483570+642040374+650842975+656708016+657961075
1125+653266959+642817092+628443777+612346708+595735188+578458726+559643816
1115+538916047+517437807+497772312+482520014+472976015+468887727+469052501
1105+471956086+476245812+481112700+486360520+492059846+498171290+504516066
1095+510986935+517636254+524527509+531552686+538412955+544760285+550400227
1085+555421740+560096834+564613507+568954416+573080041+577162784+581501072
1075+586125622+590591952+594354692+597364306+600128927+603149295+606485230
1065+609923934+613336761+616722770+620115702+623659125+627623975+632178422
1055+637230315+642423893+646861052+648613238+644878123+633391892+614655690
1045+593216164+575932779+567734292+568712717+575368388+584054173+592826932
1035+601009826+608358535+614820699+620530610+625736489+630625389+635128149
1026+639046824+642462944+645759156+649107525+652237317+654886465+657215880
1016+659577422+662052152+664417257+666525405+668582269+670971369+673816915
1006+676842996+679728534+682478435+685312824+688249377+690920370+692803958
996+693608435+693520789+693236611+693722563+695674709+699003721+702935637
986+706695352+709985381+712853578+715407283+717780991+720202085+722901307
976+725907628+728997158+731931628+734696114+737415232+740154648+742924848
966+745741358+748612781+751609019+754913431+758629794+762602307+766565813
956+770392876+774128865+777865661+781571538+784959026+787521469+788590633
946+787002447+780431801+765415590+739273010+703347453+664484873+632176473
936+613071739+607706027+611941075+620801346+631045675+641300220+651036079
926+659929620+667916991+675279949+682321358+688962511+694811084+699680694
916+703904384+708014953+712230980+716393640+720254981+723657054+726572234
907+729143616+731634477+734263999+737071234+739907168+742548654+744888957
897+747012766+749042140+750945354+752587243+754002623+755488912+757282233
887+759258441+761138332+762812886+764262007+765423387+766391529+767492215
877+768988856+770910957+773147012+775467554+777581550+779400277+781137474
867+783045058+785213361+787642857+790290930+793019861+795651668+798106167
857+800433161+802771045+805318163+808208272+811308288+814293839+817093680
847+820106722+823771734+828044422+832526815+837000337+841558547+846248832
837+850636925+853287687+851188747+839914037+815213184+775646813+725204508
827+674088726+635159605+616418226+615412109+621009707+620555412+606492355
817+579449921+547584490+522161765+510901473+513409439+522168285+527678674
807+523538766+509257635+490735641+477723163+477915494+491085823+508681751
798+519939422+519283050+508622367+493779635+479951085+469951715+464649285
788+463782971+466631643+472494969+480801301+490956370+502223182+513796790
778+525075399+535847688+546152240+556067123+565678234+575032389+584054106
768+592664275+600935555+608998406+616873732+624463131+631643067+638406616
758+644983177+651673800+658456639+664939505+670882244+676599818+682628725
748+689151986+695968835+702916952+710102735+717673382+725472959+733070894
738+740167015+746519487+750565263+747725430+731545957+699429921+658498110
728+623600716+607055065+610292264+625773120+645062758+663573594+679881579
718+693775595+705395378+714980411+722921605+729914419+736559001+742737927
708+747945621+752210445+755901468+758411955+757540198+750287470+734643150
698+712177747+689528784+675415115+674453963+684398722+699514476+715096421
688+728819580+739999923+748898169+756228797+762590679+768225648+773286278
679+778059840+782805442+787567510+791997545+795133049+796063014+795638360
669+797683730+804879125+812862328+817674740+820005230+821377189+821485067
659+817514167+804767349+778756507+739886198+697842744+668734306+664213331
649+683150032+714422338+746412887+773071532+793439138+808836717+820841297
639+830611032+839250776+847855165+856670470+864848793+871426228+876005812
629+878440147+878658792+877349677+876518516+878527592+884225338+892475512
619+901596773+910523719+918343190+923580390+924312344+918175896+901908710
609+871078802+820337936+745817107+651216413+552558483+473095622+429885915
599+424156612+444021361+475159510+508138397+538696696+565577750+589112720
589+610264169+629677479+647257880+662742568+676575554+689532548+701556485
579+712024097+721034119+729338333+737419534+745557932+754148677+763066751
569+771322101+778169869+784163488+790339323+796718681+802331133+806564837
560+809845052+812763323+815083126+816009394+815055905+811895262+805250412
550+792913462+773631352+748283166+718919922+688066893+659366574+637381276
540+625608246+624791738+633426978+649348956+670324037+693670002+716217608
530+735407299+749961821+757837348+754125623+734063569+697463728+647991178
520+591522858+536778560+493917389+469477122+463313015+470853618+486633272
510+506151099+526465002+545955272+564032716+580870208+596198893+608814913
500+618662481+627730643+637422679+646986002+655183213+662086498+668565802
490+675242309+682427555+689969502+696898396+702196895+706223850+710418033
480+715321653+719722988+721987541+721796655+719807071+715853983+708738169
470+697753821+683127179+666009945+649446684+637537950+632671499+634405269
460+641017789+651357897+663945688+675672542+684767925+692350335+699248579
450+704398940+707118864+709106162+713183595+720380872+728552004+734466043
441+737436135+739518272+742508999+746561361+750757022+753810056+755015797
431+755560898+757936017+762864910+768049011+770742655+770615487+769275588
421+768284728+769271219+772850198+775936301+775216849+770169123+762199900
411+752958194+743129378+733470814+725740401+721066113+718583385+716547961
401+713982964+711754571+713789053+723987811+739297274+753306292+763357449
391+769849792+772113808+768626912+762072396+761018625+771413377+787149846
381+798127272+801835031+802290469+804643677+809534728+810561681
##END=
