##TITLE=S. Graessle SG-V2445 16-36
##JCAMP-DX=5.0
##DATA TYPE=LINK
##BLOCKS=1


$$ === CHEMSPECTRA SPECTRUM ORIG ===
##TITLE=S. Graessle SG-V2445 16-36
##JCAMP-DX=5.00
##DATA TYPE=INFRARED SPECTRUM
##DATA CLASS=XYDATA
##ORIGIN=Angelika Moesle
##OWNER=
##XUNITS=1/CM
##YUNITS=TRANSMITTANCE
##XFACTOR=1
##YFACTOR=9.3419739e-010
##FIRSTX=3997.4121
##LASTX=373.82813
##MAXX=3997.4121
##MAXY=1.003086808580442
##MINX=373.82813
##MINY=0.43244147402040317
##NPOINTS=2560
##XYDATA= (X++(Y..Y))
2560A071710844A071724370A072321055A073188395A073741823A073632847A073028632
2553A072395579A072108720A072153509A072143682A071760991A071131640A070550776
2546A070027911A069481821A069136838A069217230A069420251A069250152A068772331
2539A068578051A069053766A069959004A070705053A070899397A070557030A069880143
2532A069054213A068360227A068078728A068078026A067954631A067814264A068326220
2525A069585628A070437591A069846647A068451721A067785808A068290745A068813548
2518A068405272A067415431A066554218A066088838A066146580A066916555A068056588
2511A068668459A068405400A067830981A067539975A067277617A066267806A064419814
2504A062682457A062256891A063323550A064593167A064745082A063768130A062521610
2497A061575538A060890038A060571661A061265710A063106237A064724410A065016309
2490A064890681A065313185A065416290A064023087A061617839A060271148A061353376
2483A063210746A063834868A063677083A063725318A063347732A062057315A061264115
2476A061706845A061644381A060165937A058784091A058800169A059754344A061094718
2469A062925355A064033168A063209598A061773391A061771031A063043008A063554390
2462A062384816A060042351A057308007A055420649A056692308A061576750A064825474
2455A063950288A061115199A058080917A055652892A054295418A054101585A054669049
2448A055628009A056810790A057587464A057501394A057471534A058593511A060383506
2441A061196994A060420958A058890450A057213068A055416502A054559754A056619189
2434A060498096A061957463A060888315A060282250A060670045A060164023A058154801
2427A055550424A053732165A053912600A055251316A055307016A054120981A053884973
2420A054739360A054745230A054329170A054994636A056105000A056135817A055213991
2413A054395015A054118173A054154605A054173618A053828954A052875035A051663542
2406A051151523A051992830A053471848A054174958A053588161A052200636A050942823
2399A050562685A050823830A050858603A050653412A050760921A051041782A051056648
2392A050939761A050987804A050939697A050299752A048951019A047174423A045836920
2385A046109231A047334122A047598841A047148392A047636677A049378500A050298285
2378A049391579A047573894A045918907A045259120A045924139A047195478A047957287
2371A047810731A046993925A046067759A045739174A046395452A047689059A048926455
2364A049590517A049477458A048745510A047551436A045850765A044101477A043807536
2357A045982391A048588746A049131263A047896291A046156637A044840125A044556138
2350A045180897A045723989A045624456A045211650A044786467A044125595A043037944
2343A042399786A044107538A048091975A050771640A050253048A047918048A045594086
2336A044226340A043588883A042940453A042751022A044625300A047221446A047149668
2329A045233790A044536167A045511652A045644681A044172426A042375477A041288975
2322A040848287A040278653A039371502A039082984A040029120A040847840A040139307
2315A038479152A037843610A039853597A042810167A043905410A043136456A041834236
2308A041028531A041022533A041421621A041524089A040889504A039595514A037980659
2301A036533287A036388773A038787959A041893955A042247233A040118316A037509920
2294A035878412A036160230A038270580A040160937A039995878A038564584A037601669
2287A037436610A037165320A036726801A037012958A037898799A038258712A037821598
2280A037219233A036839414A036509488A036179371A036195194A036676780A036956365
2273A036135985A034319895A032884326A033454151A035734983A037309833A037019019
2266A035598636A034143352A033419123A033590435A034206708A034570130A034089821
2259A032552167A030397475A028726345A028818923A030785780A032705486A033141006
2252A032659229A032092913A031495780A030672274A029847109A029432772A029599490
2245A030252386A031018534A031406392A031387188A031560540A032354123A033183626
2238A033111146A032018519A030522848A029254698A028459712A027981381A027532080
2231A027108172A027067849A027674105A028548271A028771262A027813642A026273564
2224A025431045A025941661A027190669A028096545A028147269A027548796A026815444
2217A026456551A026717315A027245923A027221231A026301000A025218134A024972684
2210A025602229A026155337A026015098A025500016A025114965A025055309A025314860
2203A025650783A025550357A024701010A023465847A022580197A022367031A022536428
2196A022716991A022787748A022690193A022359694A021909053A021528914A021280401
2189A021235931A021521577A021956458A022105439A021872749A021585444A021415728
2182A021205241A020911556A020785609A020972360A021218385A021181187A020879144
2175A020586734A020382373A020115166A019732412A019358909A019127941A019059991
2168A019056673A018985724A018764264A018306350A017559918A016748662A016344214
2161A016596683A017248048A017772892A017843267A017628889A017602538A017986058
2154A018540507A018859713A018630341A017807091A016815655A016205187A015979516
2147A015765329A015554077A015580747A015624324A015222493A014446903A013793815
2140A013482009A013398236A013525970A013939158A014457303A014659303A014313236
2133A013677821A013252255A013172246A013028625A012498294A011842399A011425382
2126A011121807A010721187A010480905A010701791A011173870A011502647A011610921
2119A011609262A011499585A011278252A011187715A011645758A012778262A014031481
2112A014464832A013553277A011673129A009839876A008926152A009014839A009534578
2105A009958805A010118249A009989239A009660462A009425475A009441426A009394594
2098A008890550A008090141A007609449A007742925A008005538A007692265A006793918
2091A005995423A005774664A005965117A006202464A006342767A006417735A006509229
2084A006636133A006610293A006179048A005450290A004922702A004918810A005238846
2077A005547207A005804843A006064139A006150401A005903738A005500184A005204457
2070A004988292A004632654A004056257A003410442A002927326A002716201A002674155
2063A002620624A002529833A002573793A002886109A003311292A003511825A003383007
2056A003190960A003156698A003117586A002797040A002234935A001780402A001743907
2049A002055776A002211519A001707028A000602789I99475900I98800417I98596821
2042I98676447I98962604I99464224A000079094A000542176A000608468A000305722
2035I99953402I99873137A000096129A000374693A000429181A000161208I99687151
2028I99217370I98928980I98947483I99343189I99994363A000507595A000515825
2021A000135495I99929348A000293472A001006152A001493671A001460940A001137778
2014A000906938A000835351A000687711A000323970I99849785I99358055I98790081
2007I98180506I97789968I97797943I98026422I98099540I97784417I97143069I96408951
1999I95719303I95056645I94534736I94467551I94918703I95486103I95785722I95787955
1991I95524513I94953986I94272697I93930521I94232947I95141439I96311332I97140197
1983I97034348I95906374I94411915I93567418I93913613I94974084I95709286I95556797
1975I94828102I94120016I93687814I93415822I93099103I92759416I92723878I93177326
1967I93722714I93774778I93291533I92714116I92347950I92185316I92140590I92113538
1959I91963856I91639545I91197198I90599555I89700634I88553455I87565337I87170907
1951I87401682I87908853I88357324I88625489I88672958I88494756I88231760I88053111
1943I87897815I87588561I87169950I86811185I86433918I85824471I85129209I84844328
1935I85175466I85729532I86028704I86044847I85976896I85783764I85293055I84568253
1927I83800064I82997677I82112409I81322081I80880117I80747726I80621332I80329369
1919I79997083I79790233I79696953I79628174I79548994I79382468I78934634I78075399
1911I76975817I76093867I75817409I76027321I76122515I75616174I74554555I73215010
1903I71675378I69870773I67786518I65396201I62655605I59693548I56741764I53799039
1895I50687939I47587110I45243177I44535984I45964471I49361601I53777920I57930797
1887I61139963I63582727I65545053I66948465I67710274I67983542I67877757I67369119
1879I66554864I65680252I64888329I64151403I63428451I62744929I62165214I61811044
1871I61870827I62414684I63187722I63743766I63843873I63638363I63467116I63548273
1863I63811780I63996617I63919543I63618584I63239785I62892123I62632955I62490738
1855I62467641I62536612I62606731I62508858I62111811I61455597I60710505I60056651
1847I59644739I59506860I59389399I58890906I57969398I57118648I56821326I57005206
1839I57245744I57324477I57391980I57639153I57930670I57832030I57089426I55983273
1831I54975504I54132027I53220664I52265278I51559552I51110442I50426601I49015214
1823I46942061I44785391I43063984I41768336I40458395I38794603I36929767I35337052
1815I34277219I33538763I32720744I31643046I30348929I28846495I27092868I25199768
1807I23408624I21868610I20656799I19921469I19703262I19661344I19293902I18378264
1799I16982636I15241323I13411898I11975947I11340660I11447785I11807507I11865185
1791I11320052I10263345I09093261I08198679I07668922I07292675I06764577I05949749
1783I05069649I04534023I04470475I04567200I04487319I04248887I04074449I04056202
1775I04121600I04212392I04380385I04748401I05445705I06529399I07890637I09313127
1767I10720558I12228033I13787826I14974116I15374672I15100000I14679920I14503824
1759I14508290I14380301I13995505I13626915I13691739I14303546I15181412I16017296
1751I16757794I17456693I18090002I18666590I19329632I20184337I21117967I21866951
1743I22240008I22319698I22438308I22834269I23362750I23698099I23739635I23625363
1735I23403329I22874082I21780434I20055583I17843339I15331349I12662659I09994735
1727I07558032I05630095I04435256I04044845I04412733I05462421I07006263I08640515
1719I09951157I10822260I11414033I11891727I12279394I12572378I12955707I13779340
1711I15205275I16979765I18652362I19897542I20674919I21286025I22153874I23339653
1703I24432281I25019014I25099852I25068907I25391623I26136779I26841229I27091081
1695I27073791I27251674I27780027I28525119I29329803I30032147I30495804I30741892
1687I30912565I31160313I31607700I32235522I32822127I33192312I33426342I33642124
1679I33748802I33619920I33335486I33078041I32916619I32817533I32738290I32631100
1671I32464574I32289754I32186904I32154938I32150089I32172229I32184990I32058213
1663I31777735I31581604I31691473I32023057I32349474I32591606I32760365I32784738
1655I32606090I32320507I32094006I32030714I32169422I32481036I32829081I33036377
1647I33032294I32897606I32783462I32807963I32985271I33204116I33308178I33239271
1639I33086080I32968682I32912791I32889056I32922106I33054306I33203669I33193014
1631I32962366I32656685I32451686I32393562I32429228I32457237I32323761I31942793
1623I31477031I31201976I31127199I30972732I30590105I30163709I29889802I29692077
1615I29408983I29073634I28853322I28834053I28957576I29063680I28967657I28660509
1607I28394897I28364399I28402298I28259571I28051445I28115503I28532839I29093413
1599I29621128I30054031I30258775I30048608I29453836I28781352I28290005I27946808
1591I27616372I27314903I27165986I27274643I27684960I28255615I28647876I28713593
1583I28758447I29129015I29720022I30154202I30258967I30136784I29931019I29734442
1575I29664386I29838696I30235232I30671454I30981728I31137088I31183728I31227114
1567I31470714I32039072I32748817I33282721I33547440I33608117I33400182I32856963
1559I32253067I32054704I32394519I32911834I33112303I32752007I31939986
1552I31042277I30473855I30424153I30737872I31112779I31355614I31314142
1545I30687596I29296243I27647253I26782275I27193932I28164376I28648514
1538I28564485I28566336I28751045I28493728I27606929I26781509I26626404
1531I26909881I26959966I26402391I25409935I24510758I24179621I24454548
1524I24958975I25340453I25608298I25987289I26514685I26930553I27015794
1517I26904266I26890612I27002842I27017644I26878490I26778829I26800012
1510I26854564I27063901I27732940I28793283I29659792I29790844I29193775
1503I28369248I27797892I27408693I26769961I25976187I25802005I26617216
1496I27751379I28367270I28426352I28408104I28547131I28740582I28937095
1489I29246604I29646266I29791546I29285970I28145937I26949821I26423000
1482I26730658I27256140I27334745I27059818I26945100I27009286I26789548
1475I26160386I25576078I25488221I25833268I26081526I25736224I24898681
1468I24208587I24037404I24030832I23731085I23248096I22954793I22937822
1461I23107665I23452712I23874068I24111032I24049143I23836488I23616622
1454I23407476I23266663I23279742I23342652I23248543I23092480I23237441
1447I23688146I23884212I23359496I22262275I21075793I20218025I19953306
1440I20253819I20731512I21028771I21186556I21432325I21836900I22312616
1433I22718531I22902602I22824827I22600176I22310765I21902490I21376689
1426I20934789I20788488I20876664I20895231I20633383I20190845I19773318
1419I19374102I18872355I18394598I18294682I18730202I19519382I20416198
1412I21166585I21368330I20860713I20240037I20302947I20976644I21506592
1405I21598021I21535941I21278879I20385508I18939795I17730408I17288827
1398I17286594I17032147I16205132I14977944I13792292I13181250I13492545
1391I14557737I15768975I16475849I16386716I15835649I15518356I15780140
1384I16291585I16505581I16227080I15513635I14304439I12653344I11154291
1377I10565389I10957459I11700637I12335350I12886416I13378976I13641143
1370I13619833I13533826I13550032I13495480I13110238I12522101I12265868
1363I12765765I13835934I14714757I14677241I13719238I12591327I12106935
1356I12408340I12823124I12488222I11287640I10025870I09424016I09317146
1349I09210212I09127332I09407619I10048903I10687827I10998101I10934171
1342I10729873I10695101I11042763I11931859I13331889I14690065I15195449
1335I14671562I13834019I13474425I13708455I14064986I14009605I13374255
1328I12485797I11867099I11720926I11851084I12107254I12642880I13588888
1321I14605654I14868331I13647332I11121624I08463589I06812111I06364213
1314I06678890I07398333I08408080I09846329I12008869I14554164I16066680
1307I15459147I13545374I12206085I12328076I13344522I14286447I14587214
1300I14287021I13844419I13488334I12917106I12016334I11394382I11629496
1293I12380650I12752558I12385244I11906274I12147705I12918446I13104240
1286I12247620I11224028I10828385I10606223I09825082I08937582I09226673
1279I11017115I12750325I12476035I10325043I08639558I09231522I11212033
1272I12077202I10827492I09208107I09415275I11299826I12711213I12409489
1265I11424944I11299954I12529566I15142684I18831266I21746746I21663675
1258I19032947I16673319I16280866I16720533I16200156I14684514I13140161
1251I11887643I10868135I10233294I09818000I09215891I08714335I08940070
1244I09635460I10009664I09837077I09221761I08127411I06897288I06248219
1237I06211214I06004109I05284985I04589914I04260435I03892419I03171891
1230I02444026I02100702I02063313I02239410I02873357I04073620I05490749
1223I06649349I07111794I06429420I04687852I03000708I02661276I03801883
1216I05382476I06389288I06646925I06529017I06205790I05430200I04137870
1209I02885671I02326373I02518803I02969955I02966446I01950765I00234654
1202H99095259H99396091I00524830I01352611I01544148I01375134I01091912
1195I00922260I01096123I01626135I02281456I02665806I02470122I01894809
1188I01407801I01029576I00660412I00931511I02619229I05343301I07840552
1181I09230948I09252450I08080324I06377931I04782982I03644863I03736804
1174I05855639I08923864I10215493I08549532I05795409I04669668I06234757
1167I09413361I12041281I12574228I11342829I09889779I08988178I08143106
1160I07076830I06485758I06794948I07283551I07323046I07679705I09268401
1153I10982533I10564113I07773750I05017139I04506077I05815635I06753539
1146I06216764I05290344I05382348I06199793I06320572I05261505I03889165
1139I03231611I03433420I03543863I02506553I00704372H99928527I01213584
1132I03400115I04659460I04400483I03128186I01671818I01027981I02169737
1125I05045149I07991829I09195155I08582454I07527279I06899712I06422146
1118I05877332I05499363I05133261I04299355I03067510I01856272I00590037
1111H99113507H98152250H98685197I00304582I01376665I01187553I00587485
1104I00568216I01122856I01600933I01770393I01926647I02031348I01519328
1097I00127018H98235832H96298835H94494421H92974568H91977773H91547613
1090H91399080H91287807H91353907H91911291H93004428H94213496H94935683
1083H94847443H94075618H93020124H91977773H90878192H89538647H88072389
1076H86719700H85408994H83912876H82333559H81078808H80547712H80954520
1069H82236323H84086612H86084732H87836062H89073586H89668358H89685266
1062H89311890H88491447H86965980H85025027H83864832H84762605H87508561
1055H90212279H91670881H92228838H92461082H92560359H92513464H92260868
1048H91792745H91270963H90982510H91153183H91814693H92711700H93379845
1041H93629890H93920895H94754227H95652255H95882010H95736794H95893175
1034H96379355H96618807H96361426H96073419H96340243H97155072H97787488
1027H97720048H97204647H96596349H95858594H94889107H93920513H93330334
1020H93187926H93157173H92930289H92618420H92616761H93090881H93669958
1013H93833294H93401858H92581159H91781515H91377068H91459948H91834217
1006H92265780H92630989H93015913H93759282H94892233H95566312H95176093
999H94147524H93128844H92311463H91545061H90929808H90833402H91253481
992H91736470H92047446H92399703H92963275H93264617H92615421H91353461
985H90433867H90299243H90845588H92056187H93855752H95424606H96030862
978H96089051H96264254H96579122H96858898H97255562H97995103H98997768
971H99948689I00632466I01004948I01128918I01150547I01232917I01311905
964I01106459I00732190I00926407I02125904I03305240I03789122I04205692
957I04788469I05183729I05257422I05137727I04796381I04202949I03737697
950I04123641I05397087I06202919I05925184I05268077I04855080I04909759
943I05601001I07034401I08634772I09411830I09410171I09713491I10910245
936I12178841I13220744I14507333I15511912I15763807I15862382I16309833
929I16708794I16687739I17022194I18784307I21005163I22223674I22838991
922I23601756I25232435I28294024I32058404I35059827I37504378I40935387
915I45445944I49080676I51285901I53350695I56425938I60124027I63201759
908I65255005I66487744I67613867I71159275I79761586I87470207I89614500
901I89288658I89393996I91239500I94519232I99262287A006200996A015067770
894A024800862A035689555A048936728A061332193A068173475A070437591A070680423
887A068319776A062265377A051239061A033542646A009409843I85201306I66909609
880I50885473I25554768H82030367H29127747G79699459G36174356G00096091
873F75528343F63881542F62228916F67135434F76765612F89706976G03865448
866G17249988G28863356G37890148G42903281G43375424G41784240G42499536
859G48124732G57580727G67938451G77202718G84874780G91008039G95707326
852G99366048H02985659H07718505H12798696H16176812H18132759H20375436
845H23746406H27133264H29276919H30076818H29551272H27565019H23252698
838H13418287G98029565G87450254G85025419G88874274G97808424H10011460
831H22731555H33034025H39878434H44616193H48830768H53226607H59217394
824H67204388H72386727H72593577H69198425H63018078H55809546H50787097
817H49409717H51730298H57553283H65248123H73023418H81673006H92276244
810I02596133I10898824I18535985I26180931I32889886I38437752I43438763
803I48467018I55247496I66936343I79841276I86675540I89091825I89666691
796I88148880I82047266I67643025I44587218I17689064H88991472H54948715
789H12823962G69518214G36141562G13654367F97181759F83068269F69650423
782F57601025F49236700F46511417F50333475F61175336F78402543F97151325
775G11585043G22035536G32285433G45439453G61385558G75988227G86280616
768G92363854G92580274G82387162G68092854G65864788G76297480G91624185
761H05681402H15423617H21097112H25124361H30689327H41139055H58002967
754H76990373H86008041H67236800H13340894G49895713G04331465F77697838
747F64618914F63459485F71383441F84232802F99720163G15730200G29733247
740G41853785G54481940G67120432G75838800G79406667G79557752G78830397
733G79872684G83954995G90273156G97485198H04761744H11366317H16937664
726H22043503H27398110H32978198H38500607H44111447H49710038H54736315
719H59298998H64436867H71183274H79292833H87197840H93785314H98751169
712I01371369I00155411H93517979H79915998H57767470H28123679G97499681
705G73054499G57148461G48865294G46030652G46200942G48266502G52530269
698G58782777G65703366G72415192G78902750G85272847G91308743G96632534
691H01200258H05371064H09464412H13571351H17711850H21830592H25812604
684H29686917H33551085H37236541H40432563H43125244H45528194H47774572
677H49821565H51427361H52068326H51013151H47664831H41656178H32406841
670H18844163G99838956G75123121G46722022G20443650G05032406G06954792
663G24181297G47300588G67779645G82878510G93909100H02972196H11395156
656H19484937H26838494H32864054H37037093H38702671H36851234H30459445
649H19647060H06971244G97295639G95296881H02231762H15214343H29726220
642H42492062H52420774H59898109H65678602H70308853H74233251H77949779
635H81780259H85710527H89627971H93480080H97034038H99595475H99898029
628H96226482H87388930H74598907H62260098H55865182H58563285H68956484
621H80935890H86020801H78645551H61182975H42309011H28560793H18584229
614H06871520G91345239G75290859G62989567G55538264G50927345G46543565
607G40470216G31306247G18903700G06018865F97923150F99209930G10869109
600G30299499G53518642G77190149G99365920H19363328H37337222H53800132
593H69323606H84483658H99799517I15596834I32088136I49600096I68431695
586I88278591A007711406A023946795A032787154A028956036A007420656I65940250
579I07915010H43200468G84913699G43577106G22788667G19292005G26526952
572G38409186G51023560G62404174G71735498G78767870G83503142G86064324
565G86792636G86451417G86137633G86794677G88818510G92140416G96463200
558H01213529H05485718H08526763H10498022H12474130H15389227H19154309
551H23030217H26540725H29619988H32060710H33224796H32398611H29529643
544H25788742H23212949H23397787H26446169H31173911H36054462H39833453
537H41563728H40501088H36294489H29548465H22209646H16898042H15320320
530H17286922H21405409H26526624H32280447H38488229H44624998H50036008
523H54443522H58038761H61135633H63872274H66232923H68199078H69819548
516H71241462H72716015H74449033H76398089H78330939H80138224H81939384
509H83804539H85564291H87059707H88392935H89748878H91136466H92473970
502H93786207H95206910H96635332H96891821H93340479H83823105H69822929
495H56327180H47159638H41342523H35054540H26047464H15239035H05289842
488G98876359G97658870H01754834H09931195H20385453H31435376H41881020
481H51161876H59244383H66285496H72399296H77683401H82311802H86499197
474H90393033H94057689H97482701I00557880I03209854I05623077I08118478
467I10787487I13456369I15974931I18375393I20781725I23240248I25680205
460I28120544I30805568I33820198I36209495I35112784I26317852I07823389
453H84182316H65330492H58442761H61320215H65569116H65840151H64293629
446H66366207H74260814H85517459H96511555I05527053I12640520I18305529
439I22794201I26308601I29044731I31232984I33176999I35117250I37093996
432I39078335I41143959I43349375I45524166I47319712I48419995I48542688
425I46961713I41754363I29921576I09073355H79135304H42780197H05988869
418G78175970G67757505G75120186G92640696H13164479H35287549H59442173
411H83304067I03291394I17427599I24652656I23387378I12928463H96100471
404H79316440H68808843H66250596H68596379H72424626H77233845H83445646
397H88503570H87962456H81578769H75869736H78122877H88938579I02706384
390I14147548I22041389I27599145I31966911I35659768I38831609I41366057
383I43111326I44292321I45524868I47221072I49106516I50625922I51703555
376I52707879I53831004I54990625I56235933I57754956I59467558I60993152
369I62141607I63179619I64439028I65891376I67325669I68676954I69898144
362I70811294I71412574I72121553I73439533I75374105I77340770I78686058
355I79192207I79025107I78490565I78060852I78317978I79580704I81678804
348I84097067I86295593I88046412I89380725I90025838I89240678I86630686
341I83010373I80155059I79594741I81528484I84312083I84135349I76277365
334I60146231I43776345I39042159I50062732I69362581I86613140I97544836
327A003564846A007049322A009232471A010415890A010219121A007585714A000341388
320I84188050I52995823I01864822H30255977G42674611F49932728E70864540
313E25435235E19979915E43653112E82903538F32785211F90943352G48655828
306G92535293H11171016H01288434G73919668G52344666G55986161G85444030
299H26199442H64359857H94993616I18767909I37137127I51373502I62645907
292I71616935I78617023I84206234I89210435I94191348I98970516A003059334
285A006641557A010486966A014901308A019490279A023736883A027284332A030056320
278A032335556A034479722A036582287A038312626A038744381A034726958A015346909
271I58552941H45596145F89861635E43775869D62901608D63579037E20671827
264E98749600F76009801G44405907H01563489H47461235H83650837I12069865
257I34568799I52695374I67022987I76872966I79810204I71027395I45214338
250H99161359H31358302G43544630F47939903E68446021E26930300E29104485
243E66185032F23668010F85423877G38149507G77407079H06638320H30515400
236H51420406H70070038H86741202I01944959I16311747I30170791I44015862
229I58580057I71989545I76163476I59822366I20267409H71885299H37369826
222H28582614H39654294H58045077H75919694H91108521I03793397I14515564
215I23469365I30788596I36920771I42214638I46846038I51265803I55668596
208I59004666I60806401I62415450I65007002I68665597I72607924I76122196
201I79144802I81786184I84004808I85964774I88085077I90479542I92856269
194I95107049I97444474I99852976A001980169A003714145A005496930A007902113
187A010856514A013284922A013392877A008220491I93131771I66027532I33562370
180I05760254H80815621H46585730H05169063G81630713G95977723H37716468
173H78234086I00622321I09361489I16620107I28476182I43252331I56921880
166I67667845I76047802I82984661I88836677I93599256I97248726I99961505
159A001992228A003562038A005052414A006869014A009084384A011544374A013949941
152A015686851A016319076A016330879A016723268A017940184A019698022A021693143
145A023933779A026268588A028180893A029487515A030538990A031326064A031348395
138A030713300A030399389A031089291A032401337A033343836A033075672A031046479
131A026451256A016964189I96610441I56564327H94934471H29007223G90291531
124G99095076H46224222I03911433I49534443I74626652I78991164I66424515
117I45994969I30353140I28094002I38133859I53322877I68150643I81109425
110I92067982A000474034A005804269A008208559A008007452A004648987I96256270
103I79854355I52645990I15090110H73711023H39816354H23310632H25484465
96H38390738H51866964H60451154H65328770H72292299H86852283I08652574
89I32183969I52551881I67794621I77548513I81674593I79703908I70190618
82I50798892I21482474H89204382H67484739H66912042H86022141I14535343
75I42767555I65716939I82388485I94303450A003718611A011740696A017996905
68A022238532A025094675A027340862A029372734A031328106A033058253A033985312
61A033635990A032623435A032451933A033950092A036975123A040925871A044723621
54A047254624A048188828A048333725A049051509A050517257A050633251A046254894
47A033764043A007090347I59766028H95055569H31502114G92815963G92436079
40H24409384H69291513I10970156I43833896I67591664I83022113I91784059
33I96265840I99642617A004334949A010296195A016795302A023871890A031778300
26A039415079A044875982A047589143A048234766A047396522A046023289A046091622
19A049484158A055338343A058574944A056032520A050818790A047668195A048776071
12A053363958A059823889A066550645A070437591A069501408A066847010A067050988
5A069663596A071785747A071963504A070936913A070437591
##END=


$$ === CHEMSPECTRA PEAK TABLE EDIT ===
##TITLE=S. Graessle SG-V2445 16-36
##JCAMP-DX=5.00
##DATA TYPE=INFRAREDPEAKTABLE
##DATA CLASS=PEAKTABLE
##$CSTHRESHOLD=0.93
##MAXX=3997.4121
##MAXY=1.003086808580442
##MINX=373.82813
##MINY=0.43244147402040317
##$CSSOLVENTNAME=- - -
##$CSSOLVENTVALUE=0
##$CSSOLVENTX=0
##NPOINTS=35
##PEAKTABLE= (XY..XY)
430.4687547753024, 0.7402917167436339
482.8613326924574, 0.8098669669959705
511.18164508010886, 0.7691346435736506
535.2539106097336, 0.8670229943430549
549.4140668034383, 0.7382882855993042
621.6308633919498, 0.7301973720284392
686.7675818835478, 0.7740597153981775
719.3359411293472, 0.49225691097191704
750.4882847557637, 0.43244147402040317
800.0488314341537, 0.7028384233576218
814.2089876279792, 0.4857638794454219
842.529300015762, 0.8772507340377651
930.3222684173502, 0.8182352213511891
941.6503933724107, 0.8092490458691445
962.8906276631492, 0.7172370573239121
1005.3710962446266, 0.8074208524054284
1011.0351587221567, 0.8019549867905938
1062.0117210199292, 0.7451708344643494
1124.3164082727626, 0.7616701149579649
1141.3085957053531, 0.7690433883700032
1169.6289080930046, 0.734407724929378
1185.205079906213, 0.671960713718867
1226.2695328683076, 0.6519979851505786
1256.0058608753416, 0.799547019216275
1287.158204501758, 0.7429642705053406
1314.062501270027, 0.6586394335506204
1366.455079187182, 0.6969398879583983
1411.7675790074245, 0.7275813241300639
1428.7597664400155, 0.6198021192577442
1454.2480475889015, 0.7154688860425034
1476.904297499023, 0.6039692783666017
1529.296875416178, 0.7935163406620387
1554.7851565650644, 0.7333686975134565
1591.601562669011, 0.6929729009511336
1605.761718862837, 0.6186525249097293
##END=


$$ === CHEMSPECTRA PEAK TABLE AUTO ===
##TITLE=S. Graessle SG-V2445 16-36
##JCAMP-DX=5.00
##DATA TYPE=INFRAREDPEAKTABLE
##DATA CLASS=PEAKTABLE
##$CSTHRESHOLD=0.93
##MAXX=3997.4121
##MAXY=1.003086808580442
##MINX=373.82813
##MINY=0.43244147402040317
##NPOINTS=141
##PEAKTABLE= (XY..XY)
3212.9394468620553, 0.9321327838737836
3198.77929066823, 0.929028990583892
3187.451165713169, 0.9285272985595403
3176.123040758109, 0.9281880886846391
3160.5468689449003, 0.9274000558182786
3136.474603415397, 0.9222124848033328
3113.8183535052754, 0.920039000773904
3075.585931781946, 0.9116060766043627
3051.5136662524424, 0.8823830510138818
3023.193353864791, 0.8985213669779752
3013.281244529113, 0.9000684651180273
2999.121088335287, 0.8991347581816571
2979.296869663931, 0.8938599854455392
2914.160151172333, 0.8513720659728775
2894.335932500977, 0.8449539570770603
2887.255854404064, 0.8445669443217129
2864.599604493943, 0.8543270855258195
2858.9355420164125, 0.853507879426752
2813.62304219617, 0.8445563346419547
2779.6386673309885, 0.8641969584895528
2772.558589234076, 0.8660699158896056
2732.910151891364, 0.8708121802320679
2725.830073794451, 0.8702811030288137
2711.669917600625, 0.8707006604186366
2701.757808264947, 0.8714038756355643
2689.013667690504, 0.8715025212747639
2677.6855427354435, 0.8710396320732032
2655.029292825322, 0.8677143480557218
2646.533199109027, 0.8672755985147187
2642.285152250879, 0.8669832377047286
2622.460933579523, 0.8661560442179767
2602.636714908167, 0.8684900429771526
2578.564449378663, 0.8707230718140226
2567.236324423603, 0.8691998153255608
2555.908199468542, 0.8657975824032623
2550.244136991012, 0.8674625183336943
2541.7480432747166, 0.8656519681218856
2533.251949558421, 0.8633661898293893
2519.091793364595, 0.8658987905459028
2513.427730887065, 0.8657943631590564
2493.603512215709, 0.8648818167277671
2486.523434118796, 0.8673164276116486
2472.3632779249706, 0.8654619486359701
2465.2831998280576, 0.8659496930932891
2458.203121731145, 0.8645886805339433
2442.6269499179366, 0.8622061044446847
2429.882809343493, 0.8625133068486096
2424.218746865963, 0.8623505855446273
2412.8906219109026, 0.8594179773870715
2390.234372000781, 0.8601982022316464
2377.490231426338, 0.8578684951752801
2367.57812209066, 0.8596858407389035
2344.921872180539, 0.8530915403469376
2335.009762844861, 0.8552748586722909
2322.265622270418, 0.8506478098281348
2310.937497315357, 0.8534209159259142
2303.857419218444, 0.8522363928716846
2293.945309882766, 0.8520879180778997
2281.201169308323, 0.8493043807320636
2271.289059972645, 0.8507689864399864
2259.960935017585, 0.8533654236667508
2250.048825681907, 0.8517273094775832
2234.472653868698, 0.8467230821740042
2220.3124976748727, 0.8521805437491182
2206.152341481047, 0.851422252925063
2199.072263384134, 0.8519004610954249
2186.328122809691, 0.8491271167773111
2177.8320290933957, 0.8488487035343537
2170.7519509964827, 0.8493798405262408
2162.2558572801872, 0.8513340385339202
2150.9277323251267, 0.8559871935241399
2136.767576131301, 0.8489185600125857
2111.2792949824147, 0.8427051926193532
2097.119138788589, 0.8432638080932697
2082.9589825947633, 0.8429509425847665
2074.462888878468, 0.8399324443191741
2064.55077954279, 0.8416392238849015
2051.8066389683468, 0.8413946061667248
2037.646482774521, 0.8441826725015077
2027.734373438843, 0.8451400426577667
2013.5742172450173, 0.8468366291957717
1999.4140610511918, 0.8449872163725392
1993.7499985736613, 0.8457198765570022
1985.253904857366, 0.8437966135616953
1978.173826760453, 0.8407108811099446
1968.261717424775, 0.8417379881671697
1944.1894518952713, 0.8390514877726276
1935.6933581789758, 0.8413084769041563
1914.4531238882373, 0.8326387430382238
1888.9648427393513, 0.8226053743208718
1870.5566396873778, 0.8257042191671886
1853.5644522547868, 0.832353535377649
1839.4042960609609, 0.8367949750817677
1832.3242179640483, 0.8371094492781765
1811.0839836733098, 0.8338802483964539
1801.1718743376318, 0.8327221304314526
1779.9316400468929, 0.8322142390732209
1765.7714838530674, 0.8317152291295759
1736.0351558460334, 0.8414616609869842
1719.0429684134424, 0.8442693977820109
1710.546874697147, 0.8453132540642413
1702.0507809808519, 0.8495686081876538
1686.4746091676434, 0.8563672932188013
1648.242187444314, 0.9241908822602027
1605.761718862837, 0.6186525249097293
1591.601562669011, 0.6929729009511336
1554.7851565650644, 0.7333686975134565
1529.296875416178, 0.7935163406620387
1476.904297499023, 0.6039692783666017
1454.2480475889015, 0.7154688860425034
1428.7597664400155, 0.6198021192577442
1411.7675790074245, 0.7275813241300639
1366.455079187182, 0.6969398879583983
1314.062501270027, 0.6586394335506204
1287.158204501758, 0.7429642705053406
1256.0058608753416, 0.799547019216275
1226.2695328683076, 0.6519979851505786
1185.205079906213, 0.671960713718867
1169.6289080930046, 0.734407724929378
1141.3085957053531, 0.7690433883700032
1124.3164082727626, 0.7616701149579649
1062.0117210199292, 0.7451708344643494
1011.0351587221567, 0.8019549867905938
1005.3710962446266, 0.8074208524054284
962.8906276631492, 0.7172370573239121
941.6503933724107, 0.8092490458691445
930.3222684173502, 0.8182352213511891
870.8496124032822, 0.9137018951995763
852.4414093513087, 0.9151348502999261
842.5293000156307, 0.8772507340377651
814.2089876279792, 0.4857638794454219
800.0488314341537, 0.7028384233576218
750.4882847557637, 0.43244147402040317
719.3359411293472, 0.49225691097191704
686.7675818835478, 0.7740597153981775
621.6308633919498, 0.7301973720284392
549.4140668034383, 0.7382882855993042
535.2539106096128, 0.8670229943430549
511.18164508010886, 0.7691346435736506
482.8613326924574, 0.8098669669959705
430.4687547753024, 0.7402917167436339
##END=

##END=

