##TITLE=NiW- X15666
##JCAMP-DX=4.24
##DATA TYPE=INFRARED SPECTRUM
##DATE=20/5/2020
##SAMPLING PROCEDURE=Diamant-ATR
##ORIGIN=Fabienne
##XUNITS=1/CM
##YUNITS=TRANSMITTANCE
##RESOLUTION=4
##FIRSTX=3997.453
##LASTX=373.96442
##DELTAX=-1.4165319
##MAXY=1.021548
##MINY=0.35914078
##XFACTOR=1
##YFACTOR=9.5139074e-010
##NPOINTS=2559
##FIRSTY=0.99866682
##XYDATA=(X++(Y..Y))
3997+1049691547+1048939058+1048507023+1048648174+1049219730+1049815281
3989+1050121827+1050087934+1049783580+1049254250+1048585273+1048035331
3980+1047965351+1048449824+1049052392+1049258322+1049091297+1048984228
3972+1049098314+1049150690+1048904976+1048505770+1048258867+1048303536
3963+1048558334+1048848153+1049085596+1049415135+1050042951+1050792934
3955+1051092840+1050675215+1049972532+1049527780+1049322852+1049027958
3946+1048673484+1048624868+1049022696+1049570069+1049874235+1049820669
3938+1049475843+1048908109+1048274216+1047891487+1048040155+1048652935
3929+1049314018+1049653894+1049646878+1049559418+1049602459+1049597384
3921+1049215532+1048551317+1048180491+1048487790+1049188781+1049827059
3912+1050217431+1050260033+1049897979+1049283320+1048632198+1048043225
3904+1047660246+1047660183+1047864610+1047936532+1047872567+1047750712
3895+1047473173+1047129913+1047197074+1047959086+1048851348+1049193605
3887+1049019939+1048647485+1048122728+1047454816+1047035187+1047177903
3878+1047484387+1047446734+1047169007+1046970218+1046950045+1047234288
3870+1048006387+1048871521+1049189908+1049091673+1049215470+1049717108
3861+1049995776+1049549582+1048467554+1047145638+1046115547+1046136033
3853+1047415723+1048459660+1048430026+1047953072+1047432826+1046772244
3844+1045920705+1045176047+1044849014+1044986844+1045599875+1046597701
3836+1047526989+1048048551+1048274905+1048396258+1048449385+1048472315
3827+1048514729+1048416682+1047997616+1047521601+1047443101+1047508445
3819+1047078916+1046550777+1046830446+1047742505+1048170342+1047699527
3810+1046723753+1045826856+1045566983+1045986237+1046475346+1046875805
3802+1047684241+1048744655+1049013298+1048202106+1046960884+1045996073
3793+1045625937+1045794090+1046236148+1046584044+1046604656+1046433558
3785+1046446088+1046843540+1047477245+1048116902+1048658699+1049076700
3776+1049281816+1049080960+1048408788+1047655923+1047480753+1047940980
3768+1048264442+1047985274+1047375125+1046728515+1046134467+1045712457
3759+1045432536+1044922941+1044042333+1043234085+1043053778+1043805641
3751+1045239199+1046238529+1046122125+1045502830+1045188765+1045266451
3742+1045156814+1044773270+1044501557+1044583316+1044994300+1045367255
3734+1045140525+1044241622+1043261588+1042721420+1042690408+1043012617
3725+1043532800+1044106486+1044607060+1045005765+1045379597+1045779179
3717+1046030406+1045773603+1044923818+1044099281+1044158799+1044793005
3708+1044898758+1044412218+1044003114+1044015832+1044376069+1044868248
3700+1045221218+1045233748+1044990165+1044802089+1044863173+1045028005
3691+1045037904+1044889110+1044787241+1044766567+1044759237+1044834918
3683+1045023495+1045128245+1044776465+1043771935+1042595994+1042396266
3674+1043400421+1044242938+1044652043+1045656134+1047237734+1048000247
3666+1047606868+1046789223+1045934488+1045028319+1044302142+1044277395
3657+1045236567+1046639802+1047262731+1046577591+1045256365+1044458642
3649+1044896315+1045974835+1046823367+1047256090+1047221633+1046672819
3640+1045792899+1044964854+1044501056+1044499740+1044894185+1045504584
3632+1046161845+1046834331+1047414470+1047457573+1046838653+1046049075
3623+1045496502+1045296210+1045472570+1045976965+1046392335+1046182896
3615+1045389559+1044509576+1043917722+1043646572+1043766359+1044465909
3606+1045485288+1046191917+1046358316+1046220924+1045971013+1045631262
3598+1045384233+1045536348+1046007664+1046251310+1045933799+1045325342
3589+1044864614+1044661252+1044459582+1044169512+1044079359+1044309222
3581+1044561012+1044452189+1043930252+1043245174+1042657955+1042326537
3572+1042311689+1042568930+1043057788+1043862590+1044954705+1045792335
3564+1045791020+1045040661+1044137749+1043602530+1043508993+1043624269
3555+1043750070+1043822870+1043894353+1044045215+1044191064+1044122650
3547+1043820364+1043542135+1043525282+1043752012+1044057494+1044237675
3538+1044108616+1043706904+1043359886+1043350551+1043613368+1043865158
3530+1043881698+1043588934+1043059354+1042473388+1041996246+1041659189
3521+1041425567+1041329086+1041421307+1041594659+1041633815+1041485272
3513+1041341240+1041427760+1041830662+1042471947+1043119247+1043479548
3504+1043416208+1043063802+1042649999+1042246407+1041854281+1041615396
3496+1041701102+1042072240+1042531966+1042914194+1043097884+1043012304
3488+1042746605+1042424333+1041989793+1041418487+1041010260+1041112129
3479+1041684938+1042390878+1042853737+1042786701+1042251920+1041695526
3471+1041433649+1041369495+1041361351+1041406521+1041427822+1041366237
3462+1041400569+1041662572+1041975070+1042167719+1042331674+1042591108
3454+1042951157+1043369534+1043700514+1043666683+1043126013+1042290513
3445+1041564712+1041236176+1041324136+1041593344+1041791506+1041908661
3437+1042007836+1041886358+1041303650+1040527541+1040229202+1040657290
3428+1041229785+1041210552+1040642191+1040309081+1040754021+1041595035
3420+1041940675+1041347630+1040255515+1039554587+1039746546+1040488949
3411+1041100163+1041337544+1041304088+1040950492+1040271052+1039666292
3403+1039497450+1039585097+1039613979+1039677631+1040045700+1040647140
3394+1041082558+1041117893+1040981691+1040981754+1040936583+1040418092
3386+1039561541+1039074312+1039316830+1039903297+1040287279+1040269925
3377+1039928921+1039445826+1039024380+1038800656+1038842131+1039170981
3369+1039609030+1039761457+1039456978+1039062721+1039056331+1039407547
3360+1039667231+1039545816+1039173800+1038857104+1038766763+1038863557
3352+1039012727+1039108957+1039142162+1039198547+1039388940+1039761457
3343+1040265163+1040731781+1040929567+1040746378+1040295799+1039777370
3335+1039370396+1039255182+1039464935+1039757134+1039907369+1039963879
3326+1039942954+1039587415+1038749283+1037748763+1037146947+1037287533
3318+1038022856+1038790382+1039103256+1038993618+1038865875+1039033339
3309+1039518626+1040134413+1040635174+1040857018+1040754209+1040390526
3301+1039997898+1039872160+1040033483+1040175950+1040139049+1040171564
3292+1040505739+1040892916+1040884083+1040464766+1040080471+1040051276
3284+1040237284+1040287341+1040028096+1039616923+1039358743+1039360622
3275+1039452530+1039445388+1039250358+1038765071+1037976308+1037138739
3267+1036587357+1036441633+1036607029+1036912385+1037234657+1037581424
3258+1037958452+1038174971+1038023420+1037592200+1037192243+1037096701
3250+1037433320+1038054182+1038490727+1038352584+1037776705+1037237225
3241+1036968895+1036847668+1036761524+1036818598+1037125896+1037544712
3233+1037808468+1037832839+1037818492+1037984953+1038197963+1037979252
3224+1037021709+1035604817+1034386587+1033908254+1034346992+1035462538
3216+1036610412+1037060114+1036586605+1035699606+1035124855+1035089144
3207+1035239442+1035247398+1035267634+1035632257+1036314766+1036959999
3199+1037333393+1037466900+1037430563+1037209095+1036808699+1036289644
3190+1035694845+1035104493+1034727090+1034762299+1035149288+1035582325
3182+1035784622+1035693278+1035433218+1035214695+1035215697+1035469492
3173+1035846270+1036157452+1036289017+1036249297+1036140850+1036104262
3165+1036234011+1036464312+1036572571+1036402226+1036125125+1036176373
3156+1036828246+1037843865+1038616967+1038660070+1038009136+1037242801
3148+1037009430+1037369479+1037732348+1037606234+1037177207+1036921219
3139+1036951604+1037079911+1037259466+1037581926+1037978939+1038310733
3131+1038656060+1039108017+1039411181+1039278551+1038929026+1038733308
3122+1038483334+1037585434+1035649674+1032114835+1025496926+1014092869
3114+998279566+982156710+972090607+972446835+982279504+996399063+1009503504
3104+1019046417+1024970728+1028151031+1029546372+1030107716+1030717489
3095+1031892490+1033510552+1034976562+1035779673+1035895951+1035665775
3087+1035394062+1035169023+1035034012+1035121409+1035524249+1036195982
3078+1037041381+1037894988+1038402140+1038238310+1037529300+1036789842
3070+1036357118+1036106142+1035735630+1035090773+1034175832+1033104266
3061+1032133504+1031553052+1031423179+1031560821+1031841618+1032346076
3053+1033118425+1033979174+1034714998+1035327340+1035954404+1036617805
3044+1037176329+1037450047+1037312217+1036769480+1036068803+1035609139
3036+1035588527+1035787942+1035810935+1035543607+1035270203+1035291504
3027+1035564345+1035875715+1036216281+1036715852+1037303070+1037712551
3019+1037794810+1037643511+1037494967+1037521030+1037559372+1037099082
3010+1035700734+1033278496+1029842957+1025294691+1019691023+1013497067
3002+1007407673+1001964640+997191022+992386330+986397239+978362375+968323461
2992+957090627+945449565+933447451+920457910+905969530+890272945+874416351
2982+859697294+847301926+838271364+833524247+833664396+838630412+847501779
2972+858669395+870359762+881273458+890829465+898828556+905163412+910069222
2962+914281746+918519080+922918427+927130074+930739341+933468627+935143951
2952+935590081+934657787+932454887+929356280+925510383+920521750+913987980
2942+906329329+898905114+893354574+890867556+891844395+895878993+901918705
2932+908651953+915075960+920824538+925980446+930683395+934953056+938749271
2922+942079683+945029434+947684416+950080090+952288002+954466218+956707271
2912+958914807+960934644+962722613+964293624+965603824+966623641+967490843
2902+968429653+969466699+970365413+970927133+971232239+971469181+971627686
2893+971469119+970754971+969422343+967557189+965300911+962822352+960253701
2883+957549726+954509572+951060939+947470842+944300125+942286491+942163258
2873+944283585+948359533+953722938+959814148+966291972+972810518+978941699
2863+984288440+988560106+991670616+993903149+995790043+997638406+999294183
2853+1000482028+1001230633+1001884323+1002801582+1004096370+1005613001
2844+1007082144+1008247748+1008948112+1009271198+1009590024+1010205498
2836+1010998021+1011631725+1012007814+1012276018+1012519038+1012702727
2827+1012861420+1013059833+1013211446+1013201234+1013156063+1013301599
2819+1013590290+1013754183+1013686834+1013507780+1013327160+1013182439
2810+1013142531+1013298905+1013682574+1014259017+1014957752+1015641326
2802+1016111202+1016287687+1016370134+1016651433+1017166228+1017674507
2793+1017960567+1017985690+1017849990+1017780950+1018020586+1018543213
2785+1018998553+1019070036+1018810603+1018544716+1018487015+1018548976
2776+1018522851+1018384959+1018312222+1018420669+1018615573+1018732666
2768+1018695327+1018479685+1018095265+1017665361+1017355243+1017149500
2759+1016867763+1016423073+1015900823+1015410900+1015000041+1014657659
2751+1014341715+1014089172+1014102204+1014568257+1015389975+1016248781
2742+1016926028+1017405989+1017699943+1017766540+1017619438+1017358125
2734+1017098253+1016968755+1017061602+1017262772+1017299672+1017040427
2725+1016589096+1016100551+1015684492+1015414032+1015284597+1015263296
2717+1015412027+1015803653+1016347831+1016856862+1017231760+1017494765
2708+1017710844+1017908255+1018008432+1017823614+1017212464+1016294328
2700+1015460331+1015059433+1015078855+1015228588+1015295185+1015292053
2691+1015346746+1015569216+1015985212+1016529390+1017116546+1017674132
2683+1018087622+1018240989+1018162927+1018004798+1017831822+1017558981
2674+1017155828+1016789200+1016670040+1016817267+1017067366+1017254815
2666+1017315648+1017269600+1017167919+1017016494+1016773663+1016457969
2657+1016172097+1015952008+1015731605+1015480441+1015200396+1014798872
2649+1014206328+1013603948+1013296524+1013386239+1013762014+1014331440
2640+1015047467+1015779344+1016361300+1016760569+1017093742+1017453228
2632+1017760839+1017857633+1017783143+1017854564+1018343923+1019159814
2623+1019944192+1020392202+1020397465+1020032654+1019536466+1019249341
2615+1019417368+1019985416+1020591617+1020856000+1020723872+1020467007
2606+1020349099+1020417200+1020622754+1020969209+1021433571+1021799510
2598+1021731409+1021163612+1020535734+1020351856+1020548765+1020703573
2589+1020813023+1021307707+1022257669+1023109208+1023322532+1022907663
2581+1022288556+1021869114+1021766806+1021881894+1022106119+1022350015
2572+1022507267+1022611830+1022846517+1023191029+1023324975+1023037474
2564+1022480327+1021969792+1021786040+1022089266+1022789944+1023564423
2555+1024146129+1024525349+1024827385+1025103609+1025265183+1025144519
2547+1024712109+1024302503+1024401240+1025004309+1025471364+1025353332
2538+1025067836+1025311043+1026076501+1026734953+1026896590+1026733950
2530+1026529398+1026330860+1026163584+1026210071+1026526391+1026827612
2521+1026818027+1026505654+1026034713+1025584072+1025520545+1026149739
2513+1027214225+1028083745+1028472676+1028588453+1028640703+1028551740
2504+1028219069+1027877940+1027984570+1028642646+1029342008+1029494185
2496+1029093412+1028629301+1028445298+1028399313+1028202028+1027935828
2487+1027994844+1028483452+1029003948+1029180371+1029054444+1028812427
2479+1028487462+1028100284+1027803762+1027709662+1027713546+1027590627
2470+1027237531+1026819154+1026673869+1026977220+1027468898+1027658727
2462+1027373231+1026929293+1026676688+1026619426+1026639850+1026798041
2453+1027135036+1027424855+1027399419+1027093875+1026792027+1026720606
2445+1026900098+1027217170+1027554290+1027819612+1027915717+1027824812
2436+1027757965+1027999982+1028521167+1028970869+1029140901+1029164646
2428+1029154371+1028974565+1028556439+1028178910+1028226274+1028779285
2419+1029566169+1030214472+1030449159+1030131962+1029341945+1028524926
2411+1028325386+1028982835+1030011423+1030726385+1030929309+1030801252
2402+1030379868+1029588160+1028634000+1027936768+1027666558+1027655407
2394+1027760283+1028028675+1028439472+1028720582+1028602111+1028131421
2385+1027585113+1027153643+1026877920+1026796976+1026931047+1027190982
2377+1027531109+1028100911+1028981269+1029953347+1030857198+1031890798
2368+1033149562+1034222381+1034668011+1034591139+1034466215+1034619394
2360+1034991598+1035295701+1035356033+1035194146+1034812607+1034160671
2351+1033317966+1032489043+1031900760+1031817059+1032445000+1033578214
2343+1034577607+1035025304+1035030504+1034891546+1034843744+1034906582
2334+1034768439+1034104161+1033160464+1032695224+1033047380+1033598387
2326+1033518759+1032781243+1032157499+1032262751+1032823908+1033089982
2317+1032758125+1032196217+1031869309+1031800833+1031700781+1031450870
2309+1031160049+1030855444+1030521520+1030338080+1030521708+1031004676
2300+1031532628+1031936595+1032158502+1032178049+1031981766+1031493221
2292+1030635856+1029631075+1029083764+1029505399+1030694058+1031761802
2283+1032010021+1031743759+1031850953+1032520556+1032951588+1032587968
2275+1031984836+1031956518+1032463733+1032908924+1033036980+1032988802
2266+1032872775+1032782433+1032940061+1033450220+1034053289+1034268742
2258+1033815783+1033009790+1032615471+1033072127+1034067949+1034988278
2249+1035445247+1035452828+1035464418+1035980529+1036879494+1037536442
2241+1037579106+1036963257+1035524750+1033103327+1029887376+1026034651
2232+1020696932+1011044382+991755820+955887433+898548698+823501686+747782752
2223+696042485+685017774+712255369+760465746+811614409+856205620+892221423
2213+920176737+940917150+956061914+968007392+978666039+988546886+997153119
2203+1003848213+1008311651+1010779685+1012113817+1013224101+1014370158
2194+1015463025+1016898211+1019342439+1022675983+1025848956+1027811844
2186+1028120771+1026969765+1025328209+1024676712+1025696153+1027497967
2177+1028848889+1029416499+1028999563+1026793154+1023003392+1020067174
2169+1020400598+1023663598+1027645383+1030938455+1033347223+1034964095
2160+1036479411+1039001826+1042057330+1043557609+1042622809+1040507306
2152+1038688012+1037242488+1035438230+1033333753+1031900196+1031707108
2143+1032408977+1033422967+1034289354+1034673085+1034698271+1034877074
2135+1035303094+1035408095+1034774328+1033777754+1033253060+1033560233
2126+1034007554+1033596257+1032399141+1031516715+1031582498+1032131249
2118+1032485723+1032445815+1032003756+1031059119+1029681508+1028390542
2109+1027886397+1028369742+1029337058+1030260958+1031071587+1031735865
2101+1032053688+1032239195+1032915753+1034169003+1035316188+1035772656
2092+1035505516+1034753277+1033927613+1033500841+1033503535+1033498022
2084+1033302554+1033191162+1033192666+1032921454+1032336303+1031958210
2075+1032118343+1032566667+1032880731+1032856736+1032631572+1032579322
2067+1032736699+1032519429+1031724901+1031350129+1032406157+1034472292
2058+1036367580+1037680537+1038744710+1039605772+1039898849+1039651506
2050+1039618991+1040433754+1041424627+1041157237+1039525642+1038066273
2041+1037779399+1037882520+1037286594+1036174744+1035653621+1036687409
2033+1039399340+1042864450+1045841892+1047887227+1049105331+1049104015
2024+1047485891+1045223348+1044038636+1044454758+1045583711+1046510681
2016+1047077663+1047687937+1048801102+1050211354+1050836852+1049926234
2007+1048194650+1046890841+1046239030+1045576757+1044432705+1043043128
1999+1042159762+1042306175+1043079089+1043538313+1043246114+1042468251
1990+1041568284+1040875186+1040961017+1042210822+1044027297+1045282490
1982+1045797222+1046512685+1047686559+1047988219+1046359193+1043699637
1973+1041694837+1041110437+1041719771+1043163228+1045494435+1048534464
1965+1050920991+1051092840+1049143422+1046573832+1044645402+1043769304
1956+1043804513+1044072781+1043726639+1042582901+1041246450+1040452048
1948+1040429682+1040674080+1040437200+1039682957+1039145357+1039278989
1939+1039850420+1040658292+1041781356+1043063050+1043891659+1043775569
1931+1043023894+1042613160+1043254634+1044682303+1045883303+1046009230
1922+1045255863+1044695146+1044964854+1045538102+1045543490+1044977447
1914+1044472550+1044376821+1044621720+1044969302+1045091658+1044807352
1905+1044428445+1044422054+1044681363+1044657556+1044194885+1043640871
1897+1043261588+1043098322+1043167676+1043373606+1043516950+1043608168
1888+1043820614+1044056366+1043956753+1043357693+1042548130+1042083643
1880+1042324281+1043126640+1043996786+1044506005+1044553118+1044346749
1871+1044185425+1044191252+1044220321+1044094082+1043842918+1043596265
1863+1043452295+1043476227+1043661045+1043864156+1043867790+1043576968
1854+1043153078+1042886440+1042903982+1043074578+1043235400+1043455365
1846+1043947543+1044596973+1044812865+1044331024+1043605850+1043205579
1837+1043340590+1043786282+1044136245+1044176404+1044006497+1043850248
1829+1043764292+1043645570+1043537060+1043606226+1043846363+1044093079
1820+1044309660+1044550863+1044695020+1044498362+1043972102+1043463446
1812+1043306759+1043502665+1043803260+1044054988+1044281342+1044499928
1803+1044624226+1044534261+1044257723+1044078795+1044261796+1044707300
1795+1045091407+1045242080+1045243145+1045182813+1045061085+1044952637
1786+1044961283+1045062212+1045097296+1044932715+1044608313+1044331650
1778+1044203531+1044013890+1043452232+1042418319+1041119271+1039802555
1769+1038360791+1036519256+1034262039+1031743571+1028947125+1025948444
1761+1023454285+1022328151+1022800720+1024467837+1026549070+1028564834
1752+1030694684+1033159712+1035551815+1037279639+1038348825+1039087343
1744+1039715660+1040327813+1040932574+1041434839+1041736937+1041918560
1735+1042210321+1042715844+1043151763+1043307009+1043342093+1043408189
1727+1043493644+1043548212+1043543388+1043421346+1043159218+1042946459
1718+1043183526+1043968594+1044642269+1044723464+1044386031+1043886522
1710+1043351742+1042890261+1042657454+1042745979+1043048954+1043449225
1701+1044012699+1044673970+1044969302+1044732109+1044378701+1044287607
1693+1044408271+1044578116+1044744890+1044884286+1045074554+1045626752
1684+1046682968+1047526363+1047630424+1047379950+1047151590+1047061186
1676+1047120829+1047284032+1047469978+1047670332+1047924441+1048151297
1667+1048170655+1047953385+1047628169+1047356080+1047218062+1047172891
1659+1047155475+1047119263+1047051789+1047008999+1046947038+1046604530
1650+1046098631+1045787762+1045919828+1046428233+1046909323+1047223951
1642+1047483635+1047693200+1047783792+1047842871+1048142588+1048670916
1633+1049010479+1049076575+1049098565+1049257633+1049521703+1049702072
1625+1049756766+1049873671+1050121013+1050311532+1050398051+1050573785
1616+1050896558+1051092840+1051206362+1051137447+1050949372+1050711552
1608+1050591765+1050747263+1051148849+1051578879+1051821585+1051855416
1599+1051806298+1051762193+1051721721+1051672353+1051667591+1051777104
1591+1051914934+1051850655+1051513973+1051098729+1050791368+1050636121
1582+1050625596+1050688121+1050693008+1050588695+1050406572+1050135109
1574+1049780134+1049484364+1049494513+1049981993+1050670328+1051092840
1565+1051202352+1051176916+1051140454+1051239065+1051668343+1052032465
1557+1051671601+1050901256+1050010185+1048977838+1047703349+1045929288
1548+1043205767+1038722281+1030896918+1017541063+994965756+954796070+896524978
1538+846181806+818606966+807544852+810252335+828290465+856948775+888641726
1528+920512979+950616688+974921009+991435115+1002158605+1009603682+1014883637
1519+1018822882+1022455581+1025978516+1028675474+1030167547+1030606974
1510+1029843834+1026534911+1017313894+1000807557+981186825+959325478+933250291
1500+903983963+878184499+865973134+871497800+887500368+905879878+924597134
1490+943496325+959823295+970592144+976559808+979771937+981086836+980478755
1480+977607317+971710321+961521612+945541222+922252582+893025661+867740741
1470+856708387+857773437+862856985+865740389+864395293+861914352+861853519
1460+864312595+867908518+871387411+873837402+875758628+878231737+881309983
1451+884243946+886042753+885534223+881616968+874098590+863805130+852305594
1441+841360386+831473274+821540490+810415351+797585442+781213928+757578708
1431+723600786+681262783+637716887+598359020+565267156+541166134+529279108
1421+532059328+552600451+589971185+635043736+680990255+726614502+770224927
1411+808173733+837157197+855939859+864945799+864593017+855329021+837853238
1401+810706548+771025031+720211608+665123199+614865169+581376480+573362979
1391+587593930+613452975+638097298+647490853+633968975+601938904+562287522
1381+527064367+506176382+502839486+511995472+521739335+516567545+488290398
1371+445450568+405654589+382524799+377490306+381102267+384787279+389465606
1361+402768804+428846497+463799661+499465438+528316052+547616204+560707551
1351+573522236+589746522+608963850+628545865+646475923+662166056+675940100
1341+688636251+700985195+712876607+723707604+733316488+741959809+749858284
1332+757177623+764172748+771060804+777623330+783029212+786279432+786892024
1322+785241948+782654565+781337536+783534735+790201198+800727278+813763743
1312+828003090+842536014+856841330+870571520+883491958+895610726+907161635
1302+918364334+929243885+939655817+949311938+957733604+964380645+968953094
1292+971413799+971595108+968829674+961999506+949855553+931136730+904394509
1282+868119398+821723491+767109781+709732829+657821528+619444321+599151730
1272+596602188+607796054+627594336+651758510+677567497+703389327+728136835
1262+750986736+771031922+786477908+793708972+787936149+766992500+735955870
1252+706741103+690942523+692525188+707347618+728374466+750364246+770985749
1242+789892333+807623917+824784696+841589372+857828569+872907237+885584092
1232+893594586+893491526+880807154+850986561+802064668+738522453+672639760
1222+619935372+591125512+587382612+602137630+626424598+653142699+678347114
1213+700571079+719731082+736294932+750803861+763699490+775285482+785618851
1203+794336538+800545279+802942645+800639192+794898320+790205583+792159951
1193+802918149+818812144+832793059+838530422+832162800+812453606+781956456
1183+748113544+720791371+706370403+703766981+706891526+710872621+715279172
1173+721900339+730939985+739959707+745783966+746797455+743645345+738382744
1163+733320748+730357214+730674035+734643666+742013124+752168003+764198058
1153+776966508+789449460+801043222+811464801+820442548+827574250+832248881
1143+833435096+829606554+819253576+802165095+781193692+763042166+755968102
1133+764852187+787825259+817715080+846576689+869402909+885372774+896956198
1123+907242829+916817067+922687436+919981582+904334177+873438698+828505480
1113+775772273+725985308+690448277+675609934+680003893+695304906+709960875
1103+713602783+701787116+679154422+657232617+646944670+651979852+668470339
1094+689484469+709091982+723531620+731001444+732214349+731249664+734152489
1084+744958803+762816438+783277432+802047815+817312178+829386026+839260483
1074+847662852+854923488+861231154+866888450+872320144+877780657+883154650
1064+888237320+893116065+898079700+903306528+908855127+914800300+921160780
1054+927767538+934352556+940773869+947122508+953597074+960284023+967028799
1044+973447669+979007920+982898987+983670648+979590565+970115878+956131706
1034+937398725+911633342+879701757+851047269+839376385+851250380+880846623
1024+915639435+944417469+959830249+956562237+929963797+878116336+806405812
1014+729328564+665175198+626774122+616108020+626419586+648260321+674076199
1004+699466371+722441071+742324244+759091393+773187709+785386795+796376485
994+806409947+815461308+823609319+831089981+838094942+844700634+850990884
984+857133968+863248610+869176053+874556562+879262956+883621017+888064719
975+892670122+897110317+900952579+903765816+904679942+901558468+890430885
965+866389944+827132568+777646573+730748088+700297424+692430586+703357501
955+724535461+748534615+771037185+790195371+805735583+818277802+828656216
945+837445888+844889211+851062618+855993613+859674614+862132562+863569942
935+864394165+864989466+865468363+865885173+866791468+869171417+873475035
925+878977899+884326017+888419193+890652165+890705418+888143533+881635575
915+868718959+847974787+822878694+802550581+796291218+806386391+826855780
905+849015654+867303381+880507499+889687230+896061743+900221516+902257391
895+901961119+898604833+890511704+874967107+848863978+810292995+761162289
885+709875045+670917323+658443141+676934356+717615015+764926114+806741178
875+838947170+862774099+880484819+893671520+903511645+910986105+916747651
866+921207768+924749185+927720488+930361499+932797206+934961013+936519369
856+936912623+935324571+930763837+922843121+912839230+903594343+897906661
846+896949494+900158365+906183104+913598046+921037611+927406799+932336729
836+936237883+939682130+942785373+945278154+947064870+948486023+949981855
826+951687314+953474405+955218770+956828061+958120280+958943689+959443761
816+959993515+960762294+961540783+962112903+962623500+963425483+964679549
806+966203823+967638509+968730060+969544949+970378570+971326653+972023446
796+972030150+971447254+970911596+971064901+972215594+974304596+976906138
786+979426798+981486981+983031555+984244522+985564746+987409538+989564636
776+991240774+991973404+992073268+992094256+992252071+992437828+992532994
766+992595080+992764235+993092834+993621162+994475771+995650897+996881155
756+997984735+999060624+1000142026+1001085786+1002004674+1003261809+1004808262
747+1006074544+1006644471+1006339303+1004461306+999778343+991928546+982776131
737+975923723+974258736+977507077+981983859+982066431+971851221+948028114
727+914179251+881462661+861824763+859416810+868821141+880095763+883330070
717+868915053+830337554+775118708+730449623+725649065+765187615+825504858
707+878869263+914173550+935124028+947924930+955659387+959900229+962623312
697+965849412+970328011+975236076+979399483+982454360+984746286+986650282
687+988232446+989341226+989845120+989773762+989319988+988709463+987995128
677+987126736+986291110+985883133+986024534+986470226+987014154+987692779
667+988547200+989320739+989633488+989055103+986865548+981485165+969625767
657+946859879+911866463+872239827+844055903+841116928+863215092+896982761
647+927998528+950148065+964553371+974169522+981114966+986458323+990452888
637+993063890+994548758+995416962+996000484+996421304+996828467+997214453
628+997158570+996355835+995285898+994750929+994887820+995142868+995078652
618+994748925+994127061+992333516+987587151+977742265+961308163+939594420
608+918563561+906770886+909499796+924787089+945555945+965105945+980398312
598+991426469+999037256+1003865504+1006607320+1008236972+1009637012+1011075581
588+1011900431+1010724428+1005963716+996070026+979965651+958818577+937220924
578+921085600+914306869+917122924+926541540+938499297+949912689+958938802
568+964460900+966125699+964311605+959336191+951016520+939474069+925928823
558+911851740+897240315+880524164+860664923+839136686+820220391+809993090
548+813770384+832474546+861254147+892318906+918931004+936534969+941547283
538+930479908+900729107+854154146+801500504+760585345+745828573+758573215
528+788659005+823549175+854703774+879050573+896808218+907762323+911288328
518+910751856+914144918+926287369+943586980+959257252+970052539+976897367
509+981771287+985694744+988940454+991805752+994762520+997923338+1000614282
499+1002016138+1002245813+1002547724+1004230002+1007251424+1010156380
490+1011678901+1011994908+1012120521+1012816751+1014308761+1016518427
482+1019207240+1021807090+1023336189+1023192282+1022179607+1021855394
473+1022802662+1024389524+1026048622+1027456743+1027839284+1026740403
465+1024994285+1023696552+1022903340+1022198966+1021869427+1022744147
456+1025050607+1028152159+1031127596+1032993752+1033406615+1033195422
448+1033018499+1032286496+1030917530+1030944658+1033788342+1037117251
439+1037676590+1035477762+1032611086+1029408229+1024387832+1017825995
431+1012591774+1011127957+1013310307+1017738786+1023232566+1028288924
422+1031134049+1030706024+1026576636+1019674546+1012243566+1004829124+996720709
412+988425220+981688714+977472995+976034676+978565173+985743674+995305633
402+1004213776+1012628487+1023008342+1035065525+1044462840+1048836750
394+1049216973+1047291989+1045486102+1045287627+1045003885+1042434545
385+1039674436+1041390483+1046942715+1051092840+1065124689+1073741823
377+1072886024+1060766880+1051092840
##END=
