##TITLE=X8085
##JCAMP-DX=4.24
##DATA TYPE=INFRARED SPECTRUM
##DATE=30/10/2018
##SAMPLING PROCEDURE=Diamant-ATR
##ORIGIN=ComPlat
##XUNITS=1/CM
##YUNITS=TRANSMITTANCE
##RESOLUTION=4
##FIRSTX=3997.453
##LASTX=373.96442
##DELTAX=-1.4165319
##MAXY=0.82801306
##MINY=0.48619545
##XFACTOR=1
##YFACTOR=7.7114726e-010
##NPOINTS=2559
##FIRSTY=0.72673541
##XYDATA=(X++(Y..Y))
3997+942408088+943217428+943713498+943466390+942830033+942384591+942423238
3988+942979210+943933166+944968512+945716094+946058040+946091895+945830875
3978+945239966+944534045+944084274+943972122+943934093+943813438+943760106
3968+943888026+944020662+943934170+943675469+943498313+943572592+943843814
3958+944115810+944161800+943842423+943233351+942580530+942135397+942105330
3948+942546753+943123130+943386778+943446681+943838790+944573001+945091022
3938+945204643+945043100+944357120+942868757+941175644+940346981+940520041
3928+940920189+941026390+940962855+941147045+941680216+942065678+941736640
3918+940834161+940294653+940884943+942446349+944361140+946118793+947264282
3908+947248669+945647303+942651795+939382281+937212035+936596238+937341270
3898+939210689+941551290+943352073+943865457+943050861+941867652+941477011
3888+941682921+941372665+940151351+938994190+938711528+938881883+939264872
3878+940352082+941923458+942739755+941841759+939659842+937617439+937054279
3869+938501135+940933947+942565071+942390929+941099123+940269069+940458515
3859+941311603+942427334+943085488+941755345+938224502+936356628+937822731
3849+940494689+942571332+943234510+942275221+940146172+937960004+936658150
3839+936279026+936461593+937314449+939003388+940922740+942076499+942121407
3829+941587927+941139007+941196745+941768717+942118702+941241112+939534163
3819+938776687+939227076+939925654+940772017+942181850+943743178+944569909
3809+944186997+943118415+942716566+943198028+942871617+940578165+938138861
3799+938271497+940573760+943237834+945302342+946596853+947188148+947270466
3789+947166351+947016247+946650572+946075431+945693215+945532136+944905440
3779+943600572+942764720+943318064+944539301+945211368+944878001+943910055
3769+943033161+942655968+942623582+942866052+943656455+944856823+945578048
3759+945042250+943795120+943214182+943515008+943546157+941936289+938585076
3750+935758377+935158116+935693991+935621413+934387654+933411051+933506122
3740+933575918+932385986+929942275+927862695+927807893+929683651+932450912
3730+935092184+936683502+936751521+935778087+934966660+935104010+936130854
3720+937733998+939642451+941425070+942434600+942067456+940159544+937649361
3710+936368918+936881915+938195440+939348426+939875800+939707377+939255906
3700+939158594+939556810+940146559+940826123+941838435+943258085+944435341
3690+944127559+942066838+940161940+939980378+941104689+942356534+942864738
3680+942525574+941661974+940166037+938077722+937136597+938273970+939542124
3670+939310089+938916124+940659324+943843351+946283969+946872172+946110986
3660+945126809+944308735+943442661+942847038+943087034+943553964+942864120
3650+940177012+936350136+934082809+934946873+938122707+941921371+944756882
3640+945996824+946232105+946154812+945583845+944059772+941748311+938979118
3631+935409088+931341828+929637662+931680373+934957462+937327280+938320887
3621+938184078+937471123+937198972+937904043+938899119+939405933+939596152
3611+940092299+941068824+942404687+943839409+944750235+944602295+943520109
3601+942225444+941423292+941107162+940628793+939651571+938888221+939172816
3591+940055430+940335850+939711010+939584249+941170156+943487723+944820649
3581+944595261+943794965+943707237+944311904+944711897+944679434+944630585
3571+944514181+943795351+942369364+941019279+940589682+940969270+941708582
3561+942616703+943527684+944252620+944739259+944906213+944575242+943970808
3551+943804163+944242340+944506297+943942132+942911346+942397731+943054571
3541+944809519+946818763+947882630+947577089+946744020+946317515+946291853
3531+946282114+946165401+945831957+945093495+944192872+943849148+944503128
3521+945732171+946617181+946660620+946238752+946059354+946224530+946139121
3512+945382805+944352560+943829592+943990131+944213045+943996392+943688300
3502+943914538+944471901+944636150+944310126+944058768+944230823+944688400
3492+945249551+945809465+946186502+946299428+946313031+946318674+946144454
3482+945718104+945335346+945290671+945533295+945945192+946584641+947376667
3472+947929547+947929315+947367314+946325476+945010327+943956122+943631644
3462+943851389+944038903+944016024+944099269+944484964+944955217+945286265
3452+945625506+946171198+946679093+946657683+945991027+945046887+944244504
3442+943865147+944021358+944442916+944596421+944261045+943735990+943411048
3432+943411512+943656069+943982788+944245972+944462703+944697443+944700303
3422+944070593+942987557+942268883+942410330+943103729+943828124+944308116
3412+944399091+944124081+943876819+944142476+944931488+945726297+946017461
3403+945762625+945300874+944916184+944564962+944016797+943200037+942369442
3393+941886280+941869121+942174585+942644452+943142531+943483086+943612166
3383+943735294+944015483+944291421+944321643+944196118+944313063+944907450
3373+945721736+946179855+945886372+945019757+944270397+944141472+944278436
3363+944007754+943536341+943701826+944486819+944936744+944708187+944495398
3353+944675801+944713752+944204543+943578775+943459743+943910364+944513099
3343+944829229+944670082+944149201+943537346+943029141+942727619+942793319
3333+943377658+944366009+945334264+945865116+945905463+945781252+945817348
3323+945992495+946019703+945687418+945101534+944656633+944708806+945228218
3313+945872768+946333437+946456179+946247873+945971858+945973172+946242540
3303+946423484+946251119+945780248+945252256+944865170+944592711+944310126
3293+944162495+944484655+945233860+945899202+946137807+946116010+946078523
3284+946020089+946028437+946498613+947541611+948470833+948451278+947550654
3274+946620737+946247177+946334133+946601645+946878588+946955959+946735131
3264+946567559+946897757+947533573+947802399+947442830+946841023+946412663
3254+946189439+945991027+945714239+945462649+945472388+945835899+946335524
3244+946688059+946984634+947631967+948622328+949203884+948790905+947909451
3234+947541147+947859828+948263609+948243127+947697744+946848057+946226772
3224+946314423+946962219+947577321+947932330+948342062+948975560+949530759
3214+949790619+949997611+950368156+950686914+950683591+950439652+950187212
3204+949957264+949567009+948921763+948313000+948241117+948843233+949734968
3194+950438570+950697040+950523516+950184120+949875487+949424480+948733167
3184+948279068+948547817+949235497+949606583+949397891+948903754+948378004
3174+947838263+947374348+947163955+947187143+947343663+947755482+948491471
3165+949217952+949596149+949698253+949679626+949482527+949089954+948654560
3155+948348014+948306275+948508939+948674424+948630367+948614599+948844702
3145+949156426+949307149+949154494+948579894+947825510+947631040+948353888
3135+949319284+949663471+949403456+949145296+949189431+949425871+949705674
3125+949923409+949979524+949906482+949871391+949950153+950042828+950072586
3115+950114556+950215192+950216893+949947525+949574120+949590661+950311809
3105+951434187+952303662+952634787+952690825+952714245+952651096+952546981
3095+952621183+952763017+952546904+951906682+951314924+951258577+951850645
3085+952821605+953702983+954194028+954375436+954426295+954309195+953850304
3075+952862262+951127564+948466814+944822041+940312121+935452836+931228284
3065+928586239+927734078+927900414+927723489+926138586+923194169+919913371
3055+917366474+916117179+916266433+917451342+918912652+919976133+920409517
3046+920148729+918901290+916308326+912579612+908775923+906077376+904729224
3036+904048346+903459292+903115414+903487040+904635621+905937475+906453950
3026+905650871+903834938+901966987+901118459+901864032+903862455+906141994
3016+908046969+909730188+911591338+913586205+915318197+916521270+917261200
3006+917829539+918496659+919256763+919879362+920237308+920396146+920400706
2996+920251375+920059146+920017794+920246660+920742420+921373135+921927638
2986+922249102+922249257+921850422+921086376+920168285+919352684+918923319
2976+919186658+920105522+921119922+921723584+921992024+922247711+922510354
2966+922561754+922352830+922154881+922295323+922801828+923397915+923802237
2956+923937423+923962621+924157323+924624253+925167549+925647773+926239068
2946+927093315+927985978+928543959+928685793+928673503+928794390+929145070
2936+929740926+930538594+931103223+930585048+928428947+924941697+920968736
2927+917217916+913944537+911126959+908905544+907695438+907681216+908444412
2917+909360648+910166896+911001666+912090112+913435405+914759829+915848739
2907+916866617+918081052+919423253+920617437+921538930+922175209+922481137
2897+922547377+922717037+923273086+924114348+924889756+925381420+925634865
2887+925808389+926006801+926230179+926425964+926558445+926580705+926370699
2877+925830881+925060111+924296838+923730045+923462764+923499092+923606221
2867+923366997+922608748+921662213+921037604+920975615+921422526+922197315
2857+923016394+923615573+924051972+924627345+925358541+925867364+925946667
2847+925859866+925956638+926337385+926908893+927462005+927795990+927991852
2837+928364948+929040492+929861890+930702225+931516125+932176056+932615238
2827+933017937+933582102+934201609+934581506+934583207+934324042+934011854
2817+933824340+933930154+934403577+935054697+935553472+935790995+935947127
2808+936211626+936617030+937074839+937418563+937455587+937085506+936414212
2798+935784734+935615075+936057580+936821780+937416399+937572223+937450640
2788+937460147+937859368+938567685+939321606+939825714+939807472+939225916
2778+938429175+937836334+937505518+937216209+936885161+936689454+936812041
2768+937248363+937905976+938709055+939486473+939960204+940023585+939883065
2758+939808245+939887007+940016010+940007199+939801134+939612770+939663320
2748+939804149+939697020+939321451+938989398+938844318+938635085+938116291
2738+937444379+936923962+936508664+935874781+934928400+933935410+933213335
2728+932965687+933295498+934103060+935052224+935852829+936513070+937176789
2718+937827059+938326066+938658505+938968297+939385605+939918157+940472428
2708+940952575+941377534+941841604+942307684+942576279+942523487+942222893
2698+941825991+941507774+941455678+941664602+941824445+941676428+941389283
2689+941301323+941406365+941429167+941340820+941426848+941806822+942218487
2679+942366659+942237270+941981660+941718089+941534208+941490924+941546962
2669+941624951+941749471+941951052+942104557+942075958+941958936+941979573
2659+942241134+942679620+943199883+943766057+944359362+944850562+945033825
2649+944936435+944923991+945266710+945786199+946164551+946363040+946502400
2639+946547540+946351756+945891859+945344699+945020530+945186247+945808305
2629+946528294+947037503+947346986+947492762+947217829+946328336+945212991
2619+944541620+944478780+944646662+944858755+945349878+946170270+946927205
2609+947352397+947623697+947919499+948172944+948390293+948682076+948878634
2599+948627584+947973372+947420492+947312359+947488124+947691406+947984271
2589+948446177+948719332+948301792+947252456+946269515+946038021+946614012
2580+947475448+948177968+948764085+949315883+949590738+949630081+950066402
2570+951097033+951941851+952100766+952237576+952987013+953768682+953604820
2560+952440471+950958678+949669037+948833726+948815021+949795643+951313687
2550+952489707+952700795+951989155+951040686+950713271+951304334+952333033
2540+953102258+953236130+952753510+952037308+951650300+951858374+952460413
2530+953162006+953807483+954229583+954228887+953749745+952917913+952013734
2520+951461395+951613044+952407621+953354775+953927675+953941201+953584724
2510+953234120+953218198+953562077+953955037+954149739+954225718+954194646
2500+953743871+952828639+952099761+952183393+952857547+953404011+953490889
2490+953330814+953218739+953294487+953655988+954395918+955430569+956331656
2480+956484774+955697077+954639857+954234607+954553520+954872124+954841979
2470+954893302+955362551+955905769+955945421+955336271+954549269+954247360
2461+954561095+954937359+954883099+954480168+953990128+953516164+953270294
2451+953556202+954247051+954787410+954877843+954686542+954346296+953817995
2441+953316283+953264265+953657457+953986804+953932390+953679794+953510522
2431+953523353+953776798+954281524+954833168+955165530+955223268+955097511
2421+954922983+955005996+955613213+956412505+956642221+956072800+955273972
2411+954831081+954854191+955244523+955871992+956492426+956845271+956831513
2401+956529141+956163697+955949363+955827084+955562122+955191500+955074710
2391+955414646+955944802+956018927+954805342+951658493+946676233+940688231
2381+934403422+927828685+920730131+913218443+905505173+897499657+889041665
2371+880244895+871409479+862770775+854458944+846838891+840859623+837435136
2361+836339887+836568367+837891476+841050151+846488210+854054313+863450416
2351+873535977+881822300+885677853+883787873+877301483+870151682+866192325
2342+865675154+866496706+867296694+868155579+869476369+870978645+871995518
2332+872543838+873384095+874888071+876616662+878168947+879768999+881990568
2322+885308313+889847372+895231325+900579028+904930496+907950506+910183205
2312+912479981+915261386+918502610+922164079+926155205+929973888+932980372
2302+935162831+937203455+939691532+942575351+945287966+947158390+947983652
2292+948413095+949344249+950849076+952226755+953074277+953608607+953951636
2282+953882458+953466542+953311105+953865917+954792125+955328310+955112120
2272+954407822+953715813+953421402+953713263+954610099+955941788+957198425
2262+957599114+956788615+955360154+954164888+953345036+952687501+952476567
2252+953086954+954153835+955172795+956552483+958902669+961441373+962394246
2242+961291732+959770906+959496051+960180252+960441040+959986632+959833514
2232+960552652+961457372+961673253+961223869+960862444+961231366+962282171
2223+963438558+964192479+964229502+963251508+961451653+959974806+960088814
2213+961920669+964268458+965558023+965219786+964378215+964621458+965925862
2203+966685966+965807139+963866842+962290750+961939761+962465975+962945581
2193+962988247+962758453+962157496+960829208+958949663+957447851+957389572
2183+959076965+961506686+963238446+964055360+964845841+965671412+965356209
2173+963575445+961889365+961838661+963235354+964946477+966196544+966736439
2163+967253996+969387064+972933983+974031860+970200036+964993548+963180089
2153+965450353+969268418+971805731+971987061+970974130+970392342+970202432
2143+969354678+967618280+965386818+962884055+960852628+960711027+962882045
2133+966037087+968639095+970158375+970623991+970136192+968944404+967395675
2123+965936297+965231458+965583375+966240833+966231635+965791913+965897573
2113+966574277+966852224+966338996+965781246+965942016+966626914+967045922
2104+966863973+966589040+966803220+967316140+967463152+966986638+966134709
2094+965130976+964137137+963504876+963506809+963994376+964699833+965474932
2084+965897109+965398643+964373577+964252690+965685711+967524523+968414557
2074+968477165+968514961+968601144+968480643+968463329+969010567+970040889
2064+971089993+971599976+970982865+969136478+967027681+966200177+967340564
2054+969254042+969533921+966806930+962389300+959462505+960481310+965361233
2044+971908763+977708633+981535510+982907159+981311977+977406956+973824172
2034+972428252+972002288+971122611+971145258+973442884+976266955+977320233
2024+977405642+978712984+980749280+980509980+976659374+971816475+970036792
2014+972766643+977602973+980533786+979755286+977393430+976294317+975984370
2004+974248668+971559242+970835079+973420391+977299673+979151083+977489506
1994+973750512+970631720+969785666+971115423+973576447+975603854+975368419
1985+972258593+967872112+964577787+963759867+965843467+970379744+975265000
1975+977953962+978011778+976540342+973874954+969978513+966162689+964261038
1965+964433634+965401890+966170882+966407014+965881341+964263048+961321800
1955+957300143+953220980+950551419+950279191+952317652+955575262+958446560
1945+959652647+959119554+958142797+958258350+959778945+961795377+963260397
1935+963936019+964339800+964706790+964604840+963805780+962639653+961147194
1925+958934436+956330960+954569597+954193023+954575703+955316561+956646240
1915+958195974+958813240+958027629+956820924+956463441+956909657+957235912
1905+957241941+957458054+957975611+958219935+957729045+956571498+955141105
1895+953925974+953239144+952948444+952662612+952268957+952305517+953621361
1885+956449219+959855774+962341146+963321227+963560605+963953797+964610250
1875+965274046+965922848+966598393+967009826+966633175+965446024+964401790
1866+964392824+965331012+966634721+967833156+968707190+969249868+969697706
1856+970426661+971549348+972636790+973036706+972516058+971481253+970499548
1846+969796642+969404532+969422928+969705976+969836757+969612683+969198545
1836+968802570+968310752+967336700+965659973+963885160+963297421+964200595
1826+965551066+966380812+966456482+965806289+964451876+962741758+961216758
1816+959947676+958564201+956920323+955290745+954089373+953628317+953993297
1806+954907988+955785810+956220508+956468543+957169131+958470907+959858170
1796+960822020+961201222+961183058+961362456+962271195+963641608+964793977
1786+965239728+964902806+964205773+963721143+963678245+963847364+963781123
1776+963116245+961623244+959275610+956761871+955340367+955326377+955941788
1766+956339617+955975952+954577713+952355757+950212023+948827079+948035439
1756+947612876+947559079+947585514+947096633+945875241+944838504+945170325
1747+946653664+948254643+949425253+950236216+950884785+951548504+952339912
1737+952979052+952925951+952351120+952663617+954506371+957238077+960044525
1727+962167931+963308551+963825026+964135359+964035728+962940016+960885710
1717+959534929+960587975+963271295+966164390+968611965+970244789+970736685
1707+970242007+969780797+970143689+970574523+969710228+967574145+965920993
1697+965386818+965434198+965829168+966030904+965210279+963180553+960642931
1687+957969273+954536670+951033730+950761193+953917781+957696659+960515320
1677+962018755+962571171+962955165+963466693+963807480+964345906+966212544
1667+969118469+971401331+972211753+972022384+972060104+972771667+973418845
1657+973211312+971563184+967897155+963629087+962648001+963880522+964719852
1647+965371127+967739167+971897014+975807677+978452737+979873777+980287993
1638+979815189+979139103+979891168+982189103+984531404+986134703+987161083
1628+988168371+989391386+990682573+992164057+993978676+995506767+995920597
1618+995241033+994829909+995691808+996579523+995804734+992227360+984619519
1608+971576401+952665009+929722221+907046714+890042770+882171048+882693629
1598+888075264+895011116+901918292+908565994+914949043+920604683+924719247
1588+926427587+924841602+919257613+910358275+901417508+896646723+897668620
1578+903313053+911889304+921091091+928171637+932526737+935323137+938256888
1568+942155802+946114078+949165933+951057846+951496718+949684804+945707360
1558+944348232+948328613+953052326+956382670+958457845+959818751+961066963
1548+962274596+962731400+961843762+959891793+957608621+955883586+956805310
1538+960492131+963583947+964375046+963523813+963151336+964334622+965679219
1528+965917824+965319881+964788566+964406118+964064945+964840971+967466862
1519+971030400+975139321+979974336+984514323+986915599+985611426+978639864
1509+961449566+930642245+902395270+893284303+894977339+898516452+900891217
1499+902215872+904790363+910386719+917282919+922479900+922919855+914068825
1489+894546041+873623628+862467475+863739648+873994791+887968677+901122247
1479+911232078+918093573+922217025+924584988+926978303+930460219+933341797
1469+933263189+929064763+920865085+911475166+905374856+903456510+903144012
1459+902255524+901229917+902777796+906386318+909272998+910475529+909872254
1449+907101283+901638567+893378601+883076696+872816838+866009448+865157906
1439+869882701+878405079+888688588+897827072+904128267+908230463+911423224
1429+914583600+917660885+920042219+921487220+922300811+922628149+922097607
1419+920875520+920574925+921970227+923406572+923087350+920530327+916597790
1409+912818990+910446003+910217756+912462822+916449000+920373344+922918000
1400+923974988+924135990+924047103+924283852+925368280+927124078+928642431
1390+929350826+929730723+930889661+932950846+934690568+935206424+934828459
1380+934537063+934814701+935227293+935207970+934939298+935092416+935873930
1370+937082105+938623800+940342034+941839981+942916447+943964006+945583768
1360+947703618+949631704+950899626+951707884+952630613+953909588+955249084
1350+956296797+957016090+957574612+958035977+958163898+957499406+955812862
1340+953708084+952523330+953031534+954748145+956833291+958786497+960377196
1330+961600288+962711613+963994067+965489772+967067255+968586690+969935538
1320+971091926+972174807+973272220+974286233+975125949+975921994+976752744
1310+977031851+975147514+968633684+955175887+934804421+912001302+894558177
1300+888091805+891175196+897148822+900853729+902574746+905644224+911943332
1290+920482482+929134945+936545533+942503237+947299837+951200761+954365619
1281+956928207+959039942+960867700+962516757+963941816+965040852+965882346
1271+966682333+967467248+967974371+968053674+967987588+968221555+968901583
1261+969826013+970785225+971811296+973064378+974541533+976005007+977202051
1251+978076009+978766858+979487774+980378426+981412845+982458007+983386534
1241+984090368+984480777+984559694+984416160+984097170+983526976+982525484
1231+980816139+977924668+973026581+965097199+953617651+939419846+924927784
1221+913466323+907767939+908322056+912765271+916882307+916554119+910084579
1211+900082727+892553184+892543986+900387109+912401451+924484120+934487672
1201+942098914+947796757+952173113+955694990+958684933+961376755+963920019
1191+966269664+968130890+969233636+969785821+970488264+971923217+973995918
1181+976154802+978147737+980291085+982880339+985681531+988287480+990710631
1171+993339845+996372686+999276988+1000881523+1000407019+998366935+995692658
1162+991761049+984092455+970567180+951192568+926419316+894594891+854772292
1152+813702795+785933185+782462245+800632084+827704429+852121281+869402399
1142+880598281+888783118+896367307+903787789+910265214+915459567+919866222
1132+924006601+927910462+931333094+934139156+936423642+938420286+940425356
1122+942704586+945302729+947948329+950171367+951392217+950620055+945855841
1112+934588617+916691393+897162271+883927079+881618864+888397578+898983150
1102+909291934+917908378+924951900+930888888+936067396+940602977+944449795
1092+947626325+950343190+952839460+955183771+957323795+959212461+960855102
1082+962345938+963785220+965080272+965771121+964542077+958856061+946698571
1072+930055201+915423780+909057117+911979969+920348224+929673371+937712742
1062+944124544+949044042+952582305+954960856+956438321+957216975+957613955
1052+958021446+958511486+958714536+958178661+956726162+954514796+951878779
1043+949097838+946326635+943766985+941786185+940772017+940974140+942503546
1033+945302188+949088099+953550637+958566829+963892812+968400490+969183241
1023+961373663+941217923+912430358+887618769+877722114+879884708+881405225
1013+876242562+871641900+876972444+892057269+909426502+923064703+930987128
1003+932715024+929275619+924943011+924869273+930159934+937371414+942908332
993+946066002+947985817+949676225+951537915+953653669+955872456+957811671
983+959069777+959551315+959514756+959264866+958941856+958633919+958488298
973+958636315+959087555+959667410+959997376+959679004+958777067+958198061
963+959156500+961772343+964444842+965268481+964051418+962447115+962150617
953+963448993+965539086+967696346+969830342+972194903+974903189+977732053
943+980301597+982429563+984213110+985763540+987119885+988446782+989933522
933+991405422+992374141+992393155+990742475+985686169+975188866+959558736
924+942851134+930101191+923070422+920019185+919535792+922594526+930250754
914+941125635+952269034+961548269+968490228+973528061+977203288+979955399
904+982192736+984247428+986187494+987802773+988939219+989774143+990637897
894+991620838+992516129+993212079+993999313+995285631+997064540+998940762
884+1000653198+1002283008+1003990653+1005810605+1007660779+1009462257
875+1011385164+1013852990+1016964670+1020152949+1022854201+1025278124
867+1028075529+1031524441+1035394834+1039342057+1043180682+1046946110
858+1050713935+1054218885+1056833104+1057931290+1056653783+1051050162
850+1038351695+1017154658+989534379+960482702+934472059+912313877+892489185
840+876479312+871230004+883747758+912699185+946604814+971265449+978991859
830+970342102+947916098+911075790+858434457+794774785+733794877+692727544
820+682457484+700872421+735411547+772429243+804369377+829911544+850480341
810+867759681+882905723+896387867+908172648+918201398+926704297+934099350
800+940779128+947052266+953172208+959374854+965882501+972747552+979716331
790+986463432+992958170+999401199+1005844073+1012048806+1017657838+1022306731
781+1025471126+1026267635+1023244687+1013829338+994159697+961123387+915911270
771+865012749+816678207+776090712+743667572+717997948+700592618+696488954
761+708815716+734065327+764444210+793610900+818851777+839644879+856345601
751+869867397+881281787+891209746+899651198+906599107+912618413+918315096
741+923512077+927693808+931068828+934581506+938999369+944344367+950184120
731+956252353+962540640+968964036+975458465+982197837+989192278+996145443
721+1003211844+1011288547+1021034171+1031422259+1038127776+1032723649
713+1005808518+954418179+888439703+829538140+799836347+807219265+841009572
703+882489961+918708211+946423793+967433549+983957423+996786361+1004228640
693+1001030313+979060882+932743468+866777359+795902960+733540968+683894215
683+647911633+630483270+636092960+661076720+694880399+728023142+756005464
673+776723050+788897853+794600024+801845436+817361172+834034996+843610652
663+846579339+847111041+849015397+853593412+859820947+866225406+872115555
653+877436360+882421866+887753801+894180598+901233240+906586431+907611188
643+904445170+901027640+901506086+905638040+908968848+907201533+899721380
633+890203849+884524634+886651209+895714023+907523846+918491944+927257100
623+933512461+937127708+938537695+938412866+936520336+932657595+929244470
613+930289323+936456801+943636745+947877606+949687587+952076264+956303444
603+960953342+964139533+965641809+966837075+968789431+971106148+972948515
594+974294039+975724896+977607688+979896734+982358376+984792502+987288153
584+990141596+993202958+995604544+996563060+996263625+995834878+996798728
574+1000087797+1005048491+1009907932+1013656974+1017119180+1021671920
565+1027435616+1033382653+1038879146+1044638901+1051878825+1060509104
557+1068652203+1073741823+1071937871+1054217107+1005526088+916453638+801713960
547+700781910+651035371+659488958+703503336+755437125+800147531+834280480
537+859882009+880192567+896234053+903922435+894289350+859050022+800004538
527+735760064+695267408+694259037+722222190+758934191+792121686+819378532
517+842622764+863105842+880440138+894286258+905360325+914931807+923772556
507+931840139+938987852+945113669+949347573+951075855+951802259+951280683
497+940863533+906746661+846161955+779147514+736295862+731293274+751473593
487+776576888+796760531+813197450+829945322+847963202+864981213+878380577
477+887420048+893459682+898533148+903916251+909685667+915315801+920528008
467+925170022+928998058+932027421+934267154+935238655+935042407+935607268
458+938930191+943759101+947464704+950071040+952660216+954416788+954018726
448+952509030+952263469+953819000+955590489+956508503+957210328+958407449
438+959635643+960069259+959882286+959957183+960614796+961953519+964423586
428+967498398+968960636+967137746+963064999+958652006+954739024+953831831
418+959470466+968079567+972933752+972034597+967472736+962389068+958342987
408+955618778+954751855+956126365+959030821+962040551+963845277+963329034
398+960542913+958811849+961606394+968248608+976541811+985053367+991203376
388+990729026+982524943+973435232+973043508+981329677+990596236+996324996
378+997117177+990461900+975931733+959738443
##END=
