##TITLE=STM 177
##JCAMP-DX=5.0
##DATA TYPE=LINK
##BLOCKS=1


$$ === CHEMSPECTRA SPECTRUM ORIG ===
##TITLE=STM 177
##JCAMP-DX=5.00
##DATA TYPE=INFRARED SPECTRUM
##DATA CLASS=XYDATA
##ORIGIN=Rieke
##OWNER=
##XUNITS=1/CM
##YUNITS=TRANSMITTANCE
##XFACTOR=1
##YFACTOR=8.3431639e-010
##FIRSTX=3997.453
##LASTX=373.96442
##MAXX=3997.453
##MAXY=0.895840401557379
##MINX=373.96442
##MINY=0.6268065540540568
##NPOINTS=2559
##XYDATA= (X++(Y..Y))
2559A002403474A002677308A002468699A002063484A001828728A001576398A000887275
2552I99906599I99256127I99230980I99559181I99907958A000244375A000626228A000953215
2544A001113530A001236979A001572826A002127424A002603938A002689524A002300241
2537A001680702A001334640A001585756A002130139A002372539A002248946A002239944
2530A002573432A002931425A003001937A002897419A002891131A003083238A003504313
2523A004212439A004977718A005229333A004710313A003945105A003543605A003515529
2516A003608045A003713921A003773575A003672843A003397794A003065091A002717815
2509A002268021A001675487A001160752A001116886A001688203A002565860A003176540
2502A003138747A002666020A002336819A002503991A003034372A003496025A003595186
2495A003397865A003120601A002813118A002320673A001663913A001241124A001415583
2488A002062127A002745392A003115386A003001437A002517208A002153215A002256019
2481A002557358A002474129A001958323A001660556A001845803A002120137A002261590
2474A002491203A002915279A003429942A003993900A004451837A004390685A003899240
2467A003682630A003869449A003899883A003634479A003661555A004193864A004864483
2460A005453374A005837157A005294560A003361358A001951393A002304956A003378362
2453A004219297A004795757A005458803A006169359A006493131A006159143A005216475
2446A004056268A003349642A003313278A003523316A003728138A004218011A005031513
2439A005481379A005125387A004546641A004380469A004343748A003980683A003634907
2432A003552678A003451232A003361144A003606188A004112849A004559786A004678879
2425A004365037A004068699A004542569A005712849A006638585A006729387A006556785
2418A006474199A006023547A005127244A004456982A004434191A004755678A004863983
2411A004542569A004101848A004046123A004544141A005279200A005800936A005832299
2404A005420011A004880772A004484487A004336604A004512564A005057732A005740354
2397A006060982A005858016A005597685A005816367A006444479A006927708A006850051
2390A006393684A006138782A006409759A007021153A007201614A005994899A003933818
2383A002743034A002864056A003859376A005413938A007015295A008040263A008354676
2376A008222296A008072055A008122921A008048264A007576038A007122386A007191826
2369A007727493A008240299A008366178A008187790A007847086A007283200A006623224
2362A006220153A006232513A006615224A007346783A008312526A008955212A008593361
2355A007385932A006167858A005612831A005811724A006310455A006623940A006782682
2348A007014723A007256409A007430583A007754784A008440620A009221759A009372858
2341A008563499A007564536A007170608A007366858A007756070A008006186A008137138
2334A008414544A008760034A008637084A008149496A008103346A008262303A007683843
2327A006411187A005619261A005762929A006364322A006905490A007231976A007516312
2320A007795863A007699274A007078449A006682879A007253909A008523635A009262124
2313A008094559A005798078A004645444A005084737A006152498A006956785A007174823
2306A006952284A006564572A006204579A006045837A006362679A007317992A008519349
2299A008999148A008478556A008054266A008282592A008807114A009238620A009328421
2292A008882913A008083342A007429440A007023725A006611652A006202507A006162357
2285A006646229A007342782A007856588A008090058A008097416A007867161A007393077
2278A006839692A006524708A006638299A006986790A007188112A007184611A007230691
2271A007398863A007498453A007489594A007629619A007989183A008312883A008376180
2264A008227511A008072340A008023046A008104489A008356748A008721956A008916276
2257A008525493A007323707A005907169A005590970A006690380A008105775A008693594
2250A008197291A007226475A006566144A006508419A006717028A006666447A006273806
2243A005854803A005515885A005153249A004937854A005231405A006021189A006903989
2236A007491737A007651980A007541532A007448372A007522027A007698202A007839442
2229A007844228A007707204A007552319A007513812A007598113A007737281A007888379
2222A008019688A008120206A008261588A008505274A008716312A008613794A008065696
2215A007301489A006780110A006788469A007154320A007431441A007383361A007212902
2208A007180682A007200328A007072734A006878556A006848908A006935995A006835477
2201A006463411A006123851A006117635A006446837A006981575A007558820A007856445
2194A007598470A006941710A006299025A005928387A005925244A006279021A006738460
2187A006959642A006900560A006813545A006894345A007134459A007358999A007325136
2180A007018153A006846122A007201685A007905739A008421974A008572787A008692164
2173A009053515A009476090A009610900A009400791A009032797A008559427A007904882
2166A007175324A006638728A006431048A006499346A006751605A007086165A007372573
2159A007520028A007539245A007567179A007860303A008579645A009469661A009943960
2152A009670911A008943710A008267661A007768286A007279628A006836692A006719099
2145A007045586A007649694A008329172A008907846A009100238A008698238A007958392
2138A007504882A007695845A008267304A008727671A008914848A008938065A008801184
2131A008467697A008112490A007926600A007839728A007710705A007600185A007646836
2124A007848515A008083271A008229011A008233655A008154284A008109561A008156284
2117A008256302A008383967A008605221A008970000A009343424A009479234A009277411
2110A008862410A008460767A008336173A008671090A009293201A009666196A009412222
2103A008781252A008425046A008747461A009572536A010380966A010737172A010495844
2096A009798434A008971929A008332887A008000542A007882378A007746139A007310705
2089A006413831A005120029A003577397A001856305A000060199I98427122I97139393
2082I96137143I95273561I94554504I94053844I93657559I93102174I92294530I91438449
2074I90813838I90563436I90712820I91266347I92196155I93385082I94623658I95710067
2066I96547431I97161039I97703922I98415478I99395937A000432908A001236123
2059A001800866A002322030A002815190A003105599A003170753A003226834A003425656
2052A003682844A003897240A004148284A004532781A004945855A005192399A005246909
2045A005272985A005416939A005677843A005973181A006242157A006437548A006471198
2038A006302525A006091488A006133352A006533566A007006794A007165822A007023939
2031A006982146A007304489A007885236A008524921A009093094A009462231A009623474
2024A009773215A009980466A009980680A009591111A009073304A008832904A008968643
2017A009267839A009477091A009498594A009439726A009507167A009815079A010323813
2010A010950639A011578465A011944244A011777858A011166820A010573857A010419473
2003A010786538A011425080A011884448A011856943A011517311A011272125A011180108
1996A011005149A010765320A010761248A011084806A011517454A011876589A012130349
1989A012213721A012022187A011612757A011213829A011011506A011054657A011320848
1982A011704987A012005112A012066480A011915025A011727491A011764069A012253157
1975A013131884A013952316A014233581A013905451A013321347A012841690A012487413
1968A012094485A011727491A011679840A012010684A012388538A012513274A012433974
1961A012318097A012139279A011771642A011268338A010899415A010879983A011124527
1954A011332207A011330064A011201041A011034297A010773322A010432618A010195219
1947A010120062A010010328A009694772A009218973A008700667A008185503A007638834
1940A006968430A006140782A005312777A004760608A004664233A004979932A005445444
1933A005701204A005545533A005147177A004937568A005177682A005637621A005825940
1926A005531959A004973074A004438122A004026977A003708706A003432657A003196042
1919A003074379A003144963A003416011A003876806A004481058A005060518A005432299
1912A005609759A005757142A005939175A006065197A006065269A005985397A005904383
1905A005892952A006042550A006353891A006644086A006797827A007003578A007425368
1898A007835370A007928171A007786575A007685629A007643334A007473377A007158963
1891A006937281A007024725A007394291A007866875A008318670A008682592A008855623
1884A008763892A008439691A007951319A007387361A006967286A006975645A007462803
1877A008125993A008564571A008609150A008368749A008086843A007990183A008139852
1870A008373251A008469768A008379038A008200935A007981539A007618759A006986290
1863A006122850A005271127A004674164A004334389A004003259A003389221A002409618
1856A001294633A000389186I99834873I99535106I99378363I99345572I99439517
1849I99577542I99511816I98963861I98005833I97124176I96688027I96538071I96239304
1841I95522034I94412765I93146539I92013051I91176474I90614159I90202157I89847309
1833I89568545I89444237I89434592I89360150I89144683I88925859I88828056I88788263
1825I88711535I88672957I88862705I89389227I90146005I90831841I91137610I90982511
1817I90508641I89815089I88833056I87529681I86098569I84808411I83710358I82586944
1809I81231131I79769371I78638598I78221952I78598091I79612200I80978872I82332327
1801I83437524I84354901I85198123I85850882I86176369I86331182I86584799I86942077
1793I87157043I87053525I86710393I86371904I86193015I86112286I86052633I86147935
1785I86546649I87089032I87461598I87642344I87947184I88628949I89571116I90393763
1777I90807121I90843986I90763257I90806265I91097174I91678135I92504568I93418159
1769I94202870I94696029I94870275I94884563I95038519I95541894I96275239I96919854
1761I97370076I97818157I98369254I98852555I99138249I99386079I99805011A000332033
1753A000698170A000758966A000652090A000580649A000541142A000385971A000012119
1746I99284489I97944751I95843162I93121820I90023411I86750114I83628201I81153474
1738I79762369I79697929I81005448I83398017I86233593I88924787I91330287I93543038
1730I95444234I96786759I97657985I98502279I99594545A000712029A001436087
1723A001655483A001668486A001805010A002076058A002314458A002581862A003171682
1716A004152857A005179825A005888166A006258232A006478771A006664590A006852052
1709A007080878A007338281A007517456A007545675A007476949A007415652A007397577
1702A007375431A007326636A007348354A007554677A007850300A007962178A007783075
1695A007534315A007500738A007734709A008050837A008215437A008173001A008123635
1688A008282378A008576073A008751104A008751390A008780824A009017366A009397791
1681A009662909A009575680A009191040A008895558A009032011A009499809A009877018
1674A009928241A009827725A009860945A010075054A010280948A010305167A010171357
1667A010057194A010082198A010147567A010050193A009732279A009341924A009072876
1660A008987432A008953997A008741102A008224082A007512526A006869983A006524493
1653A006488987A006522850A006365965A006049409A005866305A006035263A006491559
1646A006992434A007350998A007590826A007890594A008362821A008904131A009289486
1639A009406292A009399791A009552818A010008114A010660944A011294343A011710131
1632A011805291A011696986A011680769A011920740A012287877A012582287A012752888
1625A012854335A012923776A012947637A012893485A012776464A012693592A012756318
1618A012991288A013306058A013522811A013502308A013309845A013169248A013182179
1611A013194253A013058729A012916346A013026723A013372142A013654620A013710988
1604A013713202A013889447A014208791A014448046A014491698A014503272A014771034
1597A015368996A016022971A016374176A016303021A015940956A015471658A015000789
1590A014556638A014166140A013917596A013898807A014075767A014296092A014395681
1583A014254513A013878875A013541386A013628544A014142922A014571784A014463193
1576A013958175A013587894A013730991A014334884A014979071A015255406A015204325
1569A015200896A015407861A015714987A016113630A016612219A016944706A016908557
1562A016786321A016989143A017538812A018167210A018606931A018669371A018361387
1555A017999609A017997180A018499341A019282837A020008752A020502554A020707877
1548A020536060A020061476A019700840A019759351A019993535A020049688A020066191
1541A020394321A020991642A021474228A021594249A021378209A020927772A020342240
1534A019776997A019348635A019010217A018659297A018231507A017568460A016534348
1527A015426722A014840046A014952066A015351994A015649762A015846797A016076052
1520A016365889A016750815A017375926A018348599A019516450A020500626A021042008
1513A021266119A021526237A022012538A022606072A023105661A023454295A023693266
1506A023858295A024006321A024205285A024437184A024625003A024730879A024736166
1499A024600642A024330522A024070833A024115627A024708518A025695908A026519269
1492A026716304A026342523A025851864A025651472A025714410A025622466A025145167
1485A024649793A024654150A025155169A025702052A025936594A025843934A025625038
1478A025491800A025527092A025659402A025763920A025794568A025798355A025779709
1471A025655329A025444220A025360706A025560741A025945024A026320734A026586638
1464A026709160A026709017A026703016A026789389A026864616A026706659A026288014
1457A025840218A025521877A025252258A024956348A024715876A024647436A024857829
1450A025374851A025915947A026081620A025949596A026030825A026537058A027161383
1443A027627038A028021894A028509766A028984208A029149880A028893763A028443255
1436A028111053A028008677A028041612A028035396A027842433A027430574A026886406
1429A026341023A025926734A025727699A025684120A025575529A025184960A024551347
1422A024030897A023967815A024284085A024544273A024437898A024086764A023903302
1415A024201570A024904552A025690050A026424038A027166384A027729199A027716911
1408A027139665A026606927A026791889A027754560A028755024A028904693A027998890
1401A026466688A024845757A023670476A023373852A023896802A024756669A025543024
1394A026105838A026491836A026851185A027235111A027533878A027733200A027949738
1387A028177421A028257150A028031680A027452221A026707803A026181780A026021323
1380A025941880A025655044A025200748A024789318A024611928A024825967A025426003
1373A026069975A026298158A026020537A025610821A025481656A025760134A026416608
1366A027383923A028395532A028989352A028898264A028337664A027795638A027554882
1359A027486441A027382137A027335271A027531878A027812571A027833646A027549881
1352A027191174A026912625A026770242A026879976A027347631A028115696A028975421
1345A029669402A029961096A029702550A028977207A028220286A027969242A028364669
1338A029095299A029866937A030645290A031363703A031665828A031167883A030003175
1331A028921411A028648577A029242040A030214070A031024500A031342056A031193673
1324A030914266A030673223A030341235A030132198A030740307A032250004A033546235
1317A033621534A033049503A033288260A034756450A036464969A037519228A038166987
1310A039149233A040513262A041387274A040958555A039494151A038047394A037361700
1303A037608959A038749733A040358020A041610671A042057322A041912654A041603313
1296A041550446A041812850A041518226A039702760A036943197A034960130A034630499
1289A035307263A035893724A035957522A035830356A035813924A035604530A034857897
1282A033858219A033231250A033482152A034856254A037109155A039556877A041616815
1275A042887256A042989060A042124834A041223530A040911833A041043713A041272468
1268A041246035A040608493A039467718A038377094A037801921A038341589A040845464
1261A044938550A048469464A049907292A049593236A048340227A046697149A045117153
1254A043628817A041880075A040120477A039253466A039398420A039444285A038603421
1247A037507726A037210745A037850716A038790169A039467290A039677756A039492365
1240A039171523A038890044A038573273A038216210A038059753A038183061A038296581
1233A038214852A038165200A038424032A038966772A039629961A040328157A040870182
1226A040822317A039973594A038873541A038390884A038683364A039087008A039033712
1219A038665790A038595349A039319263A040678862A041827710A042063823A041610457
1212A041241606A041352197A041713190A041941516A041913797A041784774A041768414
1205A041940944A042232068A042514975A042614564A042345231A041752054A041278541
1198A041429711A042190489A042998776A043411705A043633532A044176056A045068787
1191A045601382A045030066A043560304A042278505A041923870A042209421A042608278
1184A043088149A043665466A044028673A044196418A044644426A045337407A045695256
1177A045838139A046825172A049210739A052092753A053975158A054164479A052965980
1170A050957979A048819527A047533655A047705971A048778305A049841923A050882180
1163A052245208A053417417A053587733A053046780A052767944A052892181A052735867
1156A052139475A051964373A052972552A054677927A055937866A056328935A056173837
1149A055669390A054807308A053850780A053253245A053226526A053620025A053872070
1142A053224240A051705255A050607274A051151942A052852459A053943940A053384483
1135A051935082A051279108A052119114A053328544A053777767A054233920A055934365
1128A058222916A059030274A057270889A053954084A050975196A049403059A049141155
1121A049639316A050444245A051271964A052022312A052719363A053227026A053311327
1114A053039564A052637064A052118114A051555943A051308613A051565444A052074964
1107A052503396A052677643A052495324A051923151A051046423A050148263A049722188
1100A050107542A051111578A052261140A053220096A053778696A053780053A053251816
1093A052379304A051371124A050569767A050378376A050792092A051317972A051428849
1086A051017418A050479894A050239351A050321151A050586056A050964623A051276179
1079A051328617A051347906A051788913A052618418A053332688A053803057A054452459
1072A055344975A055790197A055332615A054577267A054318363A054524756A054633134
1065A054427954A054273427A054550119A055185732A055832776A056277141A056508825
1058A056545760A056383160A056071103A055705682A055331328A055001628A054910397
1051A055284678A056070032A056879677A057374835A057534579A057491571A057305467
1044A056992340A056683999A056639705A056956690A057370478A057593804A057723684
1037A057838633A057702966A057304610A057043492A057150796A057359119A057373550
1030A057218237A057115862A057251386A057557512A057734329A057519005A056985910
1023A056501465A056303931A056258495A056040027A055525721A054900753A054415809
1016A054191412A054154120A054165979A054277499A054625775A055117506A055489572
1009A055643457A055733901A055941652A056292215A056733579A057328471A058290499
1002A059626165A060864172A061664386A062203053A062775298A063486068A064235558
995A064930539A065593729A066193264A066607981A066891603A067292103A067957650
988A068769366A069554362A070312998A071077777A071750540A072159184A072245985
981A072211050A072383510A072843377A073378473A073716676A073741823A073619015
974A073587724A073681169A073707174A073436340A072735001A071691386A070586475
967A069423054A067656239A064883174A061420271A057281820A051261462A042500473
960A033121874A024862330A016360674A006468555I95335571I82978442I69374662
953I55702727I43108055I30715276I16729071I02367084H91944870H86275075
946H83186310H81481150H81143661H82799884H87639175H95981804I05948650
939I16286420I28217045I41705591I53379456I62494865I70739262I77721649
932I82890141I87199551I91361150I95131107I98291527A001171468A003915029
925A006031191A007434727A008532208A009496594A010369107A011354068A012737529
918A014512773A016553065A018844545A021135310A023092016A024891122A026887834
911A029147523A031405925A033400709A035093368A036557486A037941446A039488221
904A041203742A042473825A043239604A044005669A045039353A046146622A046959124
897A047505936A047947943A048385950A048956551A049732689A050546406A051197165
890A051827420A052604415A053548940A054657424A055888572A057193090A058592339
883A060032524A061274102A062139899A062524897A061983014A059641454A054847172
876A047054998A035069648A017928096I97052449I77182838I63827602I59731159
869I63915404I72738975I81637346I87087531I87532753I83068387I75168908
862I66250248I58174238I51147773I44443293I37749815I31724384I27631584
855I26550034I28678413I33188788I38966317I45703017I53745378I62026139
848I68436423I72731689I75439314I76444707I75966121I75162264I74893930
841I75326794I76274034I77469675I78868567I80852063I83583907I86877708
834I90640807I94674454I98846769A003126317A007256552A011013579A014580643
827A018166924A021716414A025302552A028720804A031036074A032359452A033578598
820A035267756A037377846A039373630A041052643A042619780A044172913A045582879
813A046795023A047902506A048844103A049431493A049750049A050140548A050904041
806A052019811A053176874A054115113A054817809A055475427A056330365A057380480
799A058415450A059440061A060531184A061751116A063264242A065224806A067337968
792A069114856A070527036A071685742A072181331A071163935A068599121A065443345
785A062161189A058169549A052509184A044572627A033733840A018678730I97571256
778I68107794I30212258H93823919H72359953H66492123H69966170H78553271
771H89418992H99324256I06698570I12382439I18027445I25108206I32979322
764I39523345I44997034I50672188I57034107I63786381I70240030I75706504
757I80071067I83897106I87738862I91477170I93982402I92434484I83016020
750I66187880I47211572I30523456I20145608I19568076I27735960I40408002
743I54531232I68070501I79473961I88866848I97274346A004429692A009363499
736A012264301A013614828A013438868A011666481A008342746A003406366I96567934
729I88021483I79444956I73030385I69819384I69937691I72976161I77890749
722I83401732I88252952I91640628I93780509I95420873I97172042I99359146
715A002009475A004929495A007909454A010797326A013425723A015567818A016959923
708A017238902A015900663A012525205A006892486I99031873I90042771I82511788
701I78991161I80622308I86908428I95469381A003385577A009230118A012829259
694A014334742A014059549A012490342A010153854A007592183A005416296A004222512
687A004422047A006110991A009098308A013122954A017960102A023268547A028580636
680A033579527A038168844A042309724A045970305A049186235A052046316A054617345
673A056961691A059158011A061184015A062864528A064043024A064686996A064721573
666A063831415A061444704A056900109A049934440A041373058A033271257A027947952
659A026342523A027218036A028270367A027988816A026362455A024171637A021987676
652A019698054A016562924A011626902A004263233I94454201I82686819I69692004
645I56175454I42523808I28714134I14615266I00393875H86573985H73733912
638H62254511H52393754H44495419H39004941H36283385H36463345H39467809
631H45088525H52952782H62385963H72315446H81288615H87560518H89207311
624H84369735H71911374H52477555H29126396H06733193G90318626G83163566
617G85697589G95785957H10148658H25918324H41454091H56223865H70199426
610H83349268H95505933I06494391I16277562I24952607I32537886I38720773
603I42809859I43908911I41382319I35797610I29697166I26761929I29349676
596I36670623I45480691I52320410I55192850I54038502I50533735I47426753
589I47344238I51486833I59115763I68293398I77198270I84888711I91197263
582I96261451A000148857A002676022A003420583A001861020I97480882I89904604
575I79351796I67156195I55511550I46319269I40263405I36991893I35855406
568I36243261I37562781I39467406I42239543I46667832I53309729I61856752
561I71235565I80245098I88070349I94407907I99346215A003128960A005936103
554A007896095A009228118A010246513A011311489A012910345A015640974A019884300
547A025483370A031824285A038215209A044142622A049244531A053280321A056265139
540A058496608A060297643A061785908A062853098A063146864A062074601A059095428
533A054090037A047307257A038875970A028352453A014648155I96356682I72338261
526I42361851I07625735H70805747H35363935H04431426G80037724G63099421
519G53752899G51281602G53643665G57644378G60368363G60837375G60322641
512G61074274G64700492G71461625G80608254G91061616H01925551H12726546
505H23315218H33566187H43285275H52323170H60556423H67819573H74084475
498H79630320H84852750H89960588H94950477H99777480I04451884I09020841
491I13584581I18342215I23482559I28887022I34008863I38159816I40936740
484I42398857I42935381I43033685I43152134I43764529I45400963I48426074
477I52630037I57137697I60884578I63146267I63569128I61937623I58126444
470I52252612I44928022I37472122I31633011I28647408I28402578I29464839
463I29818974I27615581I21600796I11659168H99761906H90148622H87192167
456H92238994I02844883I15158862I26510313I35957996I43525915I49524341
449I54253040I57908547I60681185I62956590I65303937I68020064I70467500
442I70802774I66602025I56564452I42459439I29155927I21553573I20911244
435I24343570I27552784I27589076I23837908I17884276I12763007I11484351
428I15490421I24098669I35013969I45087836I50748630I48429360I35744743
421I13283028H85422637H58867550H39792796H31690138H34814123H46753893
414H63654689H81813709H98863960I13811122I26336782I36379428I44201534
407I50410570I55675508I60379346I64504937I67861750I70473429I72709327
400I74974088I77314148I79435454I81097107I82398910I83664350I85137970
393I86830986I88564652I90077135I91144254I91692422I91833804I91785154
386I91728787I91721428I91710855I91581189I91143754I90182011I88667813
379I86914215I85357723I84175298I83226772I82401197I81930398I82332256
372I84071565I87212339I91304568I95593761I99369719A002167860A003796222
365A004349820A004115207A003198758A001187043I97416657I91865097I85801016
358I81251277I79445670I79750939I80330113I79773657I77849600I74912363
351I71322509I67751016I65465109I65687577I68738834I73980840I80299751
344I86468921I91441235I94615015I95784366I94945074I92345896I88604516
337I84649740I81636132I80717968I82475281I86479994I91652773I97101601
330A002436194A007292059A011010364A012956996A012416043A007826797I97677060
323I83740149I72332189I70032493I77855030I90752756A002698240A011208899
316A017208896A022091480A025806999A027121733A024752812A018358244A009222331
309A000024621I93067668I88065420I81694213I69526903I48742844I20005511
302H88000454H60159852H43219192H39465237H46164931H58724025H73926733
295H90155552I05747686I18695492I28209330I35549423I42696410I50546308
288I58434213I64750767I67742800I66002061I58538303I45155634I27602722
281I09756829H95195664H84519405H75998602H68562063H63211824H61828721
274H65592748H74617284H88279718I05267172I23377111I39836829I52367490
267I60020139I62855787I61142839I55207424I45732594I33726955I20321068
260I06861599H94953549H86018458H80676363H78464255H78205423H78951413
253H80505976H82602421H83725764H81537588H74893905H65139667H55174035
246H47682915H44468986H46605080H54079054H64979425H75490440H81517799
239H81318121H76959916H72906765H72809033H77598529H86285648H97615095
232I10434378I22964753I32749567I38141813I39932918I40977533I43836185
225I48887942I54688975I59725943I63634068I67000311I70368196I73617632
218I76237527I77979480I79106753I80116004I81290284I82500500I83496034
211I84362403I85563474I87408946I89208766I90133788I90634092I91474027
204I92819838I94212443I95306924I96375471I97674846I98816978I99252912
197I99107386I99081525I99525104I99894027I99271916I97379007I94982437
190I93241485I92452130I91420089I88563651I83907465I79344938I76483643
183I74979588I73498039I71317508I68365482I64484720I59389812I53164418
176I46498230I40472371I36183107I34491092I35793824I39753529I45342239
169I51352238I56953521I61881399I66220243I70117866I73648280I76760263
162I79399233I81770941I84256741I86877708I89220054I91148040I93092601
155I95257915I97065380I97973184I98344465I98904135I99822300A000749822
148A001433729A001984541A002741605A003947249A005358357A006391398A006972859
141A007716134A008722742A008812115A006740460A002874272I98770398I95357219
134I92346039I89311427I86791264I86077851I87909105I91367294I94320391
127I95315711I94878776I94553075I94909925I95135893I94499923I93367364
120I92487207I91996548I91505461I90651309I89256489I87294854I85028522
113I83049884I81996053I82127862I83079246I84036131I84434059I84606232
106I85373869I87090532I89456025I91972187I94322749I96474346I98448269
99I99849161A000003189I99037660I98173077I98106708I97897957I96463701
92I94254236I92455773I91375223I90712462I90590870I91178117I91940539
85I92105068I91507604I90488066I89385155I88604944I88805051I90425912
78I92979938I95223480I96344894I96729034I97276275I98206012I99163325
71A000379542A002642159A005786505A008412044A009341780A008755033A007945175
64A007993469A009025367A011017008A014377249A018455690A020812895A020399822
57A018949063A018176426A017834008A016759745A014710594A012629081A011685913
50A012120133A012884340A012881054A012343315A012314953A013399932A015488376
43A018257440A021315985A024030826A025819644A026379887A025367564A022785961
36A020027184A018860191A019113807A018330382A014288662A007870519A001384506
29I96968434I95514175I94624588I90959435I85413162I81887534I81397232
22I81077818I78153154I72574946I68032137I71669428I85580263A000212941
15A006972502A006691737A004805330A005193113A008055552A011931385A015722632
8A017715772A015620328A009937315A004002616A000333319I98947930I99494527
1A003102027
##END=


$$ === CHEMSPECTRA PEAK TABLE AUTO ===
##TITLE=STM 177
##JCAMP-DX=5.00
##DATA TYPE=INFRAREDPEAKTABLE
##DATA CLASS=PEAKTABLE
##$CSTHRESHOLD=0.93
##MAXX=3997.453
##MAXY=0.895840401557379
##MINX=373.96442
##MINY=0.6268065540540568
##NPOINTS=43
##PEAKTABLE= (XY..XY)
3309.018500437842, 0.8264433099895161
2956.3020593041438, 0.8248660523748652
2930.8044852462863, 0.8161466076113933
2903.890379296325, 0.8226798731145549
2886.8919965910864, 0.8266100239248823
2833.063784691165, 0.8173780394137563
1709.7539942533226, 0.7351525983169038
1604.9306342376854, 0.800719435947396
1583.6826558561374, 0.7730358795212573
1565.267741258796, 0.813369985144829
1468.9435725957778, 0.722928580024796
1429.280679616888, 0.7672107175275656
1400.950041774824, 0.8091362074109038
1365.5367444722438, 0.8167883712874288
1270.6291077013288, 0.6977249347901802
1247.9645974276777, 0.6534061991646467
1219.6339595856134, 0.7732126669927163
1206.8851725566847, 0.7903848247354608
1178.5545347146208, 0.7807995038959044
1106.311408217357, 0.6268065540540568
1099.228748756841, 0.634349641074386
1031.2352179358872, 0.7745814873436534
1019.9029627990617, 0.7401989660077172
990.1557930648942, 0.7683313446044892
980.2400698201718, 0.7604663332678129
963.2416871149335, 0.6938927135347618
902.3308157544952, 0.8192406248906232
878.2497735887409, 0.8171675755955313
866.9175184519154, 0.8055033644118366
847.0860719624702, 0.8182290746698956
827.2546254730255, 0.8093140077424603
796.0909238467552, 0.7003796060643345
762.0941584362781, 0.7190378273030372
733.7635205942138, 0.732701178195783
719.5982016731818, 0.7045543158664805
706.8494146442531, 0.7281988815719509
617.607905441751, 0.7796612343645979
558.1135659734164, 0.8227009129052779
549.6143746207972, 0.8297719311973992
531.1994600234557, 0.8192954019332087
497.2026946129786, 0.8264661986253593
487.2869713682562, 0.8248093080142321
399.4619940578573, 0.8076450779458254
##END=

##END=

