##TITLE=HMS-Q279
##JCAMP-DX=4.24
##DATA TYPE=INFRARED SPECTRUM
##DATE=8/7/2021
##SAMPLING PROCEDURE=Diamant-ATR
##ORIGIN=Angelika Moesle
##XUNITS=1/CM
##YUNITS=TRANSMITTANCE
##RESOLUTION=4
##FIRSTX=3997.453
##LASTX=373.96442
##DELTAX=-1.4165319
##MAXY=0.99762106
##MINY=0.22012705
##XFACTOR=1
##YFACTOR=9.2910701e-010
##NPOINTS=2559
##FIRSTY=0.9784646
##XYDATA=(X++(Y..Y))
3997+1053123686+1052842697+1052763340+1052811904+1052639654+1052158766
3989+1051692184+1051527954+1051647726+1051891763+1052116425+1052250184
3980+1052324408+1052387919+1052429811+1052478952+1052602317+1052728570
3972+1052711505+1052593913+1052594491+1052887797+1053458755+1054034460
3963+1054230318+1054009826+1053828210+1054033177+1054404300+1054542870
3955+1054369529+1054043185+1053652496+1053195023+1052713879+1052289253
3946+1051948987+1051723876+1051705400+1051887850+1052059843+1052043933
3938+1051881242+1051684422+1051544248+1051583895+1051898307+1052407935
3929+1052941685+1053445475+1053927390+1054276765+1054262908+1053796518
3921+1053096549+1052465352+1052051439+1051892084+1052018978+1052373613
3912+1052804270+1053238583+1053662311+1053981791+1054114138+1054114523
3904+1053973002+1053463053+1052670640+1052209126+1052328514+1052519240
3895+1052289638+1051683716+1051115581+1051007291+1051298544+1051565739
3887+1051654719+1051760122+1052066130+1052417494+1052602702+1052678659
3878+1052795353+1052914099+1052933858+1052877853+1052799458+1052690271
3870+1052585381+1052594106+1052790028+1053237557+1053852652+1054209533
3861+1054036706+1053593796+1053127022+1052609118+1052061383+1051821259
3853+1052187827+1052744736+1053122916+1053423599+1053623306+1053546900
3844+1053198552+1052940787+1053139211+1053634982+1053874015+1053560116
3836+1052962534+1052484854+1052370791+1052684561+1053164230+1053456317
3827+1053550878+1053689063+1053959145+1054213125+1054299218+1054184513
3819+1053867728+1053313898+1052671281+1052317416+1052309140+1052261667
3810+1051929421+1051422936+1051073689+1051139253+1051489141+1051869245
3802+1052333261+1053066077+1053781122+1053979353+1053628823+1053159932
3793+1052909224+1052812738+1052793749+1052961444+1053302030+1053527783
3785+1053415195+1053129524+1053034770+1053297668+1053771627+1054129727
3776+1054176366+1053974029+1053675526+1053451249+1053474216+1053725245
3768+1053858041+1053616185+1053206763+1052995188+1053009751+1053061458
3759+1053212088+1053697338+1054351631+1054759770+1054797812+1054540560
3751+1053982689+1053273161+1052736076+1052378938+1052068311+1051941738
3742+1052255316+1052877147+1053481144+1053751483+1053494552+1053122980
3734+1053486789+1054362152+1054779144+1054552364+1054083216+1053675270
3725+1053467030+1053664364+1054276636+1054707550+1054352401+1053521624
3717+1053040929+1053166091+1053450158+1053406021+1053099821+1053031178
3708+1053329808+1053759823+1054125878+1054300116+1054220760+1054000844
3700+1053868947+1053839629+1053719343+1053492499+1053460230+1053916804
3691+1054691640+1055031456+1054347333+1053306264+1052812738+1052968244
3683+1053562105+1054289403+1054707036+1054504186+1053806911+1053210548
3674+1053353673+1053952409+1054221016+1053753087+1052859184+1052249606
3666+1052073251+1052189688+1052558052+1053016936+1053256417+1053148834
3657+1052837693+1052601291+1052688603+1053093406+1053559346+1053748340
3649+1053364900+1052482673+1051658697+1051332288+1051641889+1052411014
3640+1053150245+1053484159+1053561591+1053705807+1053863237+1053747891
3632+1053321212+1052793236+1052516930+1052908197+1053659232+1053988463
3623+1053605728+1052831406+1052414158+1053035155+1054455302+1055661242
3615+1056127889+1056065276+1055895913+1055784672+1055619094+1055370952
3606+1055195045+1055160018+1055182343+1055230586+1055389043+1055627562
3598+1055618132+1055091311+1054317887+1053942209+1054184577+1054590279
3589+1054604136+1054046457+1053302671+1052858800+1052696109+1052670576
3581+1052847573+1053308317+1053966266+1054610551+1054982636+1054927272
3572+1054585275+1054202155+1053719792+1052854886+1051825942+1051561634
3564+1052353534+1053478578+1054174570+1054225058+1053973644+1053776567
3555+1053609000+1053375356+1053236017+1053396527+1053834112+1054359586
3547+1054637687+1054345921+1053764891+1053616506+1054034974+1054475895
3538+1054562501+1054493536+1054579886+1054749249+1054786457+1054785944
3530+1055051921+1055628974+1056175297+1056375069+1056177350+1055598565
3521+1054707999+1053840719+1053465042+1053759374+1054421686+1054969934
3513+1055201846+1055293520+1055434335+1055483155+1055139361+1054367156
3504+1053486405+1052940209+1052911597+1053160958+1053397874+1053600468
3496+1053827696+1053968511+1053903076+1053752766+1053736471+1053874015
3488+1054031958+1054238530+1054681247+1055234692+1055291403+1054479808
3479+1053331348+1052678851+1052697199+1052989158+1053283939+1053602457
3471+1053879724+1053911480+1053697659+1053533557+1053692463+1054171683
3462+1054752007+1055166497+1055242518+1055007912+1054642050+1054241673
3454+1053736087+1053158071+1052819666+1052979856+1053428603+1053645952
3445+1053434890+1053171672+1053302607+1053845018+1054472494+1054908861
3437+1055036011+1054808077+1054332385+1053906604+1053715301+1053632929
3428+1053516236+1053460744+1053587252+1053816021+1054012007+1054160456
3420+1054308584+1054468453+1054594833+1054597079+1054430731+1054198242
3411+1054071926+1054156671+1054461781+1054859591+1055055321+1054837587
3403+1054394806+1054123889+1054142173+1054237888+1054193559+1053953436
3394+1053621702+1053426871+1053499877+1053691180+1053863750+1054209854
3386+1054909053+1055720070+1056296289+1056579780+1056528265+1055999455
3377+1055253745+1054944658+1055264972+1055696655+1055785827+1055588493
3369+1055315973+1055142440+1055302309+1055907460+1056757546+1057583319
3360+1058238574+1058561326+1058389204+1057778599+1056988624+1056274285
3352+1055787046+1055534862+1055370631+1055166433+1055000535+1055035690
3343+1055232510+1055294867+1054957167+1054345665+1053974157+1054211073
3335+1054762657+1054911106+1054312241+1053363681+1052767767+1052910378
3326+1053676489+1054666364+1055449667+1055752852+1055601965+1055284923
3318+1055047494+1054888396+1054781389+1054890320+1055278123+1055563795
3309+1055236231+1054289146+1053294396+1052840965+1052996856+1053309857
3301+1053394987+1053489291+1054118115+1055204412+1055958269+1055767672
3292+1054818149+1053773680+1053157494+1053101104+1053459076+1054050691
3284+1054757204+1055373261+1055570851+1055244699+1054737701+1054469479
3275+1054457932+1054442792+1054347333+1054325328+1054418221+1054433105
3267+1054183744+1053751034+1053475370+1053651982+1054198306+1054719803
3258+1054989565+1055209608+1055616977+1056009591+1055995028+1055611909
3250+1055287553+1055175286+1054986229+1054547874+1054115100+1054018871
3241+1054331744+1054870561+1055240658+1055065457+1054444267+1053922386
3233+1053807553+1053869524+1053838474+1053840142+1054133255+1054664054
3224+1055101254+1055219552+1055090092+1054906936+1054823281+1054977568
3216+1055425353+1055983609+1056331252+1056283010+1055867814+1055335347
3207+1055132497+1055537877+1056245673+1056617822+1056358004+1055683567
3199+1054917457+1054178419+1053436109+1052745314+1052365658+1052558373
3190+1053243010+1054031830+1054613117+1054931571+1054995595+1054747388
3182+1054238402+1053779069+1053706063+1053983267+1054191634+1054001807
3173+1053529836+1053155377+1053075250+1053110278+1052950859+1052543618
3165+1052156521+1052094100+1052444694+1053055299+1053637997+1053944967
3156+1053944839+1053801009+1053651084+1053468634+1053166668+1052774695
3148+1052435200+1052232927+1052153826+1052213232+1052408961+1052562928
3139+1052503522+1052395618+1052562992+1053021234+1053492627+1053796390
3131+1053911031+1053721524+1053077496+1052180642+1051610005+1051706426
3122+1052094036+1052092497+1051483560+1050600307+1049830347+1049347214
3114+1049183432+1049220512+1049138589+1048655199+1047853741+1047150692
3105+1046943993+1047322685+1047990258+1048463896+1048506173+1048297356
3097+1047990322+1047294073+1045790272+1043563021+1041310880+1039907028
3088+1039806437+1040685905+1041742178+1042425275+1042704852+1042736864
3080+1042643650+1042516179+1042233330+1041330318+1039319647+1036132930
3071+1032207110+1028288989+1025237699+1023832051+1024418021+1026597028
3063+1029460801+1032282233+1034834032+1037080592+1038880522+1040048100
3054+1040500311+1040350515+1039944686+1039674603+1039673833+1039812660
3046+1039981894+1040249603+1040773666+1041641458+1042746166+1043795190
3037+1044496634+1044728161+1044424655+1043311672+1040972090+1037479621
3029+1033927940+1032016641+1032882124+1036194516+1040340956+1043609596
3020+1045345374+1046033731+1046386442+1046577425+1046370789+1045737859
3012+1045151761+1045239393+1046130537+1047253465+1047903010+1047936626
3003+1047759886+1047722613+1047747953+1047577564+1047204837+1046908452
2995+1046908131+1047202913+1047760014+1048584311+1049529471+1050311684
2986+1050786093+1051013001+1051073368+1051013642+1050916387+1050865642
2978+1050890469+1051033978+1051384957+1051935515+1052487228+1052821527
2969+1052912688+1052859569+1052688218+1052385161+1052057662+1051874955
2961+1051839799+1051756401+1051430762+1050821697+1049965581+1048871907
2952+1047648324+1046622909+1046096921+1046028984+1046222083+1046711247
2944+1047620674+1048769968+1049809690+1050649833+1051408758+1052068054
2935+1052523089+1052851679+1053206058+1053555433+1053790937+1053953628
2927+1054159879+1054434067+1054735328+1054995531+1055089322+1054920023
2918+1054544153+1054134025+1053837191+1053680081+1053592192+1053585585
2910+1053840784+1054450105+1055199087+1055795835+1056153614+1056292761
2901+1056205641+1055916762+1055486811+1055002780+1054695681+1054807820
2893+1055180932+1055313728+1054981481+1054467426+1054102847+1053914880
2884+1053797160+1053750585+1053866252+1054190415+1054618249+1054875694
2876+1054696515+1054110738+1053494231+1053229858+1053348605+1053591102
2867+1053768419+1053915714+1054097330+1054219926+1054133255+1053877543
2859+1053727105+1053924439+1054430474+1055022667+1055512857+1055735339
2850+1055533899+1055009773+1054589060+1054567504+1054720829+1054587841
2842+1054042800+1053422701+1053138762+1053288365+1053669496+1054062046
2833+1054390122+1054644937+1054804613+1054834123+1054682209+1054335272
2825+1053946058+1053792541+1054013033+1054442086+1054746683+1054727694
2816+1054489174+1054268104+1054088605+1053771499+1053320442+1053064088
2808+1053255070+1053700610+1053969859+1053878762+1053634084+1053541319
2799+1053716071+1054054604+1054352529+1054469864+1054474868+1054568659
2791+1054788767+1054926502+1054826553+1054608626+1054505212+1054598875
2782+1054787420+1054924514+1054925348+1054776193+1054524907+1054295369
2774+1054225379+1054331679+1054505084+1054655394+1054800635+1055016765
2765+1055325532+1055587788+1055545768+1055136859+1054706459+1054680862
2757+1055066483+1055497589+1055710640+1055719621+1055593818+1055348049
2748+1055046532+1054805767+1054683813+1054683685+1054802945+1054987383
2740+1055139938+1055254707+1055418810+1055651748+1055878976+1056064762
2731+1056192490+1056137576+1055789227+1055311931+1055038513+1055046019
2723+1055060068+1054861452+1054559036+1054365167+1054321672+1054358944
2714+1054458060+1054634865+1054834636+1054922846+1054817379+1054639869
2706+1054645450+1054915725+1055215125+1055258813+1055051857+1054843746
2697+1054789665+1054779978+1054644359+1054428806+1054358431+1054544345
2689+1054826938+1054946390+1054840602+1054736675+1054903921+1055316871
2680+1055666503+1055731939+1055614475+1055545832+1055613385+1055748682
2672+1055864863+1055901301+1055820533+1055676062+1055632887+1055815529
2663+1056130006+1056331637+1056282817+1056075476+1055874422+1055700825
2655+1055429780+1055026131+1054715569+1054783442+1055198189+1055630257
2646+1055876089+1056002983+1056031788+1055844013+1055507148+1055319630
2638+1055377110+1055426893+1055301154+1055204091+1055425931+1055930234
2629+1056335807+1056295070+1055896618+1055588173+1055640521+1055875961
2621+1056022550+1056031788+1055901558+1055532809+1054974424+1054517209
2612+1054341302+1054267719+1054059287+1053855090+1054058967+1054767468
2604+1055577459+1056093310+1056372631+1056656185+1056917351+1056975665
2595+1056900286+1057006587+1057435704+1057889904+1057867900+1057172806
2587+1056150983+1055376020+1055126210+1055250473+1055482064+1055640329
2578+1055568093+1055220771+1054860489+1054804356+1054984176+1055107798
2570+1055163867+1055387247+1055822971+1056271398+1056554247+1056603067
2561+1056394763+1055997723+1055630770+1055514525+1055616079+1055668492
2553+1055502144+1055203193+1054923616+1054777027+1054936382+1055538262
2544+1056464241+1057377132+1057901259+1057783539+1057096785+1056241952
2536+1055583938+1055267153+1055426829+1056120126+1056945257+1057250110
2527+1056861794+1056249009+1055937612+1056074449+1056506838+1056986251
2519+1057288730+1057371808+1057480354+1057878678+1058394978+1058553691
2510+1058340897+1058376566+1058995382+1059676490+1059776953+1059372664
2502+1059010586+1059007186+1059233902+1059366248+1059267646+1059191753
2493+1059472421+1060036964+1060493025+1060699532+1060907322+1061239633
2485+1061376855+1060999382+1060269774+1059590783+1059152684+1059035606
2476+1059365029+1059986732+1060426499+1060514452+1060569816+1060731352
2468+1060639036+1059993340+1058994548+1058113669+1057684488+1057718681
2459+1057944049+1058091664+1058208935+1058513404+1058908840+1058954324
2451+1058454960+1057777830+1057389065+1057375593+1057611739+1058027127
2442+1058492875+1058748266+1058682702+1058519947+1058573771+1058907878
2434+1059294462+1059482750+1059501225+1059623051+1059970630+1060275163
2425+1060204980+1059834755+1059559027+1059554793+1059580261+1059380169
2417+1059068324+1058960611+1059147488+1059446375+1059741990+1060108751
2408+1060510539+1060655908+1060365425+1059914112+1059781187+1060096049
2400+1060462232+1060397438+1059897624+1059392487+1059167888+1059071210
2391+1058810174+1058303368+1057713549+1057298032+1057200649+1057336139
2383+1057532510+1057734719+1057978499+1058308885+1058849627+1059724220
2374+1060713646+1061291789+1061344523+1061568928+1062628601+1064107832
2366+1064945473+1064763408+1064036944+1063146762+1062138219+1061312639
2357+1061203451+1061816558+1062335231+1061874295+1060474164+1058996922
2349+1058224075+1058463044+1059549276+1060723012+1060976992+1060120170
2340+1059020979+1058558888+1058741979+1058978253+1058975366+1058979921
2332+1059086671+1058797471+1057705401+1056229506+1055135383+1054703187
2323+1054698568+1054836881+1055039347+1055414191+1056129492+1057183776
2315+1058276745+1059009175+1059210101+1059028806+1058773286+1058681163
2306+1058727032+1058652871+1058347312+1058148439+1058524053+1059482557
2298+1060598428+1061554494+1062269539+1062561754+1062153808+1061129868
2289+1060083026+1059663532+1060047549+1060907643+1061818418+1062523648
2281+1062847298+1062728166+1062438132+1062359224+1062437747+1062299434
2272+1061959810+1061958206+1062621801+1063497099+1063812217+1063507107
2264+1063405489+1064088266+1065039777+1065330389+1064773352+1063963361
2255+1063358658+1062743884+1061764209+1060790372+1060766700+1062082278
2247+1064077039+1065855414+1067100359+1067887640+1068189093+1067852934
2238+1066876467+1065536639+1064223179+1063217907+1062541675+1061771330
2230+1060014511+1056461867+1051184609+1045476309+1041475816+1041027582
2221+1044300777+1049705699+1055405530+1060431438+1064275527+1066389997
2213+1066684009+1066078408+1065974032+1066924389+1068062969+1068237849
2204+1067409511+1066328475+1065454460+1064949066+1065028422+1065664175
2196+1066463452+1067084963+1067400273+1067484826+1067609924+1067776271
2187+1067397835+1066215182+1065184442+1065368046+1066252390+1066400134
2179+1065524130+1064526043+1063789315+1063022883+1062623148+1063441607
2170+1065030539+1065664303+1064536308+1062961810+1062742408+1064039702
2162+1065692915+1067083808+1068500811+1069904663+1070824419+1071177579
2153+1070920134+1069632335+1067215962+1064495827+1062716426+1062665810
2145+1064106229+1065759056+1066216400+1065223703+1063780782+1063019419
2136+1063351601+1064480110+1065679636+1066183362+1065784397+1065055751
2128+1064696497+1064759751+1064763729+1064368420+1063627714+1062764926
2119+1062049688+1061759205+1061912786+1062116792+1061951278+1061474303
2111+1061128777+1061216089+1061573483+1061710064+1061294355+1060574114
2102+1060096626+1060019194+1060115487+1060353942+1060841759+1061364089
2094+1061652776+1061844336+1062132124+1062318552+1062077787+1061428947
2085+1060801663+1060675667+1060987385+1060993223+1060139672+1058927188
2077+1058417110+1059003080+1060055889+1060706974+1060709155+1060499633
2068+1060601250+1061076108+1061480270+1061384297+1061002333+1060932984
2060+1061164574+1061117422+1060938693+1061545577+1062936277+1064003135
2051+1064497816+1065560697+1067825412+1070494546+1072631149+1073741823
2043+1073181707+1070816015+1067860247+1065645955+1064236972+1063093066
2034+1062137834+1061616081+1061561102+1061741563+1061963531+1062399127
2026+1063372707+1064630420+1065388254+1065278553+1064616498+1063830693
2017+1063236191+1062984584+1062715913+1061805074+1060370493+1059581737
2009+1060474036+1062594793+1064331212+1064605208+1063664281+1062256837
2000+1060943697+1060273238+1060665403+1061738676+1062324261+1061551928
1992+1059824491+1058481199+1058505384+1059912315+1061937678+1063312532
1983+1062902020+1060746235+1058288356+1057013066+1056947566+1057052841
1975+1056938521+1057085046+1057478622+1057281160+1056022165+1054489559
1966+1053993403+1054787291+1055930106+1056721364+1057321255+1057811895
1958+1057683076+1056901569+1056426134+1056946348+1058010832+1058915961
1949+1059560823+1060046715+1060365040+1060828864+1062032431+1063935903
1941+1065542670+1065959854+1065097964+1063320744+1061112611+1059079037
1932+1057822031+1057496392+1057657993+1057872840+1058262888+1059107200
1924+1060160137+1060860106+1061099011+1061127238+1060910723+1060240135
1915+1059281310+1058527004+1058352509+1058667819+1058856941+1058384136
1907+1057438591+1056594470+1056117560+1055857293+1055439659+1054371775
1898+1052202903+1048811411+1044765691+1041341160+1039680377+1040067474
1890+1042145249+1045251133+1048569363+1051366289+1053185721+1054037604
1881+1054355159+1054585467+1054914057+1055319052+1055688764+1055930555
1873+1056020946+1055908807+1055564885+1055358635+1055837534+1056766913
1864+1057409914+1057484845+1057234714+1056893422+1056446278+1055864863
1856+1055282293+1054939397+1055027030+1055510291+1056158874+1056769094
1847+1057260952+1057626686+1057880346+1058037840+1058155945+1058304651
1839+1058438345+1058409476+1058189946+1057897089+1057551948+1057073241
1830+1056495098+1055953137+1055401809+1054616581+1053493782+1052218556
1822+1051105829+1050444865+1050514855+1051292385+1052166849+1052524629
1813+1052462401+1052545286+1053130422+1054089311+1055015033+1055566810
1805+1055719750+1055681001+1055541213+1055251500+1054914763+1054698761
1796+1054618634+1054624793+1054651865+1054610807+1054496103+1054349770
1788+1054191763+1054093930+1054081997+1054031894+1053911480+1053868113
1779+1053939322+1054031189+1054100088+1054080522+1053860928+1053452083
1771+1052956504+1052439241+1052020902+1051798742+1051753001+1051885412
1762+1052200273+1052553241+1052829674+1053053310+1053217028+1053373753
1754+1053631839+1053866573+1053737498+1053112780+1052244217+1051362055
1745+1050464367+1049455503+1048444907+1047767520+1047421096+1046951242
1737+1046175316+1045300787+1044677545+1044645982+1045029165+1045343834
1728+1045322343+1044892520+1044009267+1042811602+1041673278+1040714260
1720+1039687819+1038386611+1036787415+1035029441+1033171517+1030860355
1711+1027772753+1024068389+1019874797+1014858704+1009237074+1004135851
1703+999685904+994794973+989138188+983701254+978149102+971081665+962722258
1693+953454707+941058562+922551494+898290194+868650531+823010693+747611418
1683+668864276+624044949+606772307+604009831+611674144+626257316+637663010
1673+636595190+625090188+615029839+622715001+651059744+690593280+738185795
1663+793215396+845582341+883777076+908696518+926017339+939237846+951726628
1653+966023680+976229271+979987202+982542594+987661331+995257129+1001636401
1643+1005454700+1007683362+1009058537+1010027563+1011370469+1014526714
1635+1019505983+1023973700+1027320926+1030290038+1033113587+1035465550
1626+1037075909+1037977510+1038502920+1039169530+1040117320+1041187963
1618+1042336488+1043362609+1043870505+1043817836+1043130184+1041304400
1609+1037596251+1031136339+1020881929+1006111238+988096478+971802804+963568752
1599+964609500+968987338+970020965+967821300+968811817+976996215+988775469
1589+997846970+1002645585+1006975823+1014198188+1023496276+1031848690
1581+1037391155+1040237863+1041199318+1040373610+1037248993+1032613325
1572+1028154397+1025726926+1027394253+1032484699+1037545955+1041020525
1564+1043226284+1044601652+1045549571+1046587817+1047434119+1047198101
1555+1046487611+1045883614+1045466430+1045219506+1045068491+1044857878
1547+1044560402+1044343117+1044363389+1044652589+1045183517+1045743890
1538+1045999538+1045998575+1045826582+1045422806+1044752218+1043921186
1530+1043058654+1042154615+1040980365+1039223097+1036404488+1031114656
1521+1021900031+1009562135+993494664+968936786+933116147+888195524+836603862
1511+781609931+730470802+693718218+688818049+720475311+757354789+786440944
1502+810851912+830023279+841268014+848041119+858713484+873746430+887126741
1492+894237224+892996064+888613350+893135788+910148035+933766013+957662477
1482+977750971+992055400+1001005780+1006653456+1010958674+1014896746+1018207214
1472+1019616069+1018627670+1016050852+1012558255+1008299484+1002887184
1463+995390951+985188312+972530616+957860645+938979119+910127635+875064317
1453+847193278+838426695+854955231+892059564+933829717+964272699+979722894
1443+985021771+984272148+979470581+971682582+961214928+950008172+943073980
1434+942613493+947003713+954083659+960861961+964164152+962336124+954494685
1424+940754735+922915753+901907311+878476659+859811969+854570251+861856513
1414+877099366+896593742+915999844+931211905+941610980+950605305+961875893
1404+974803543+985739318+993084857+997511901+999916020+1001133893+1002188434
1394+1003810789+1006050485+1008687094+1011656077+1014755675+1017123932
1385+1017629198+1015716488+1010857441+1001577188+986060787+964475036+940263967
1375+918336090+901103735+885092333+863935506+835875858+807769443+791715122
1366+795939893+821470132+862524726+905440581+938209287+959686813+973821110
1356+983592451+990626400+996036198+1000595845+1004612376+1007895066+1009944357
1346+1010170430+1007964992+1002628072+993283153+979374802+961534152+940717462
1336+916703534+889824743+863790842+845222317+839585034+847047202+861843746
1326+875453339+881285325+878242245+871189820+867922399+874188442+889848608
1316+909982201+929486969+945393739+956438317+962619999+965098599+965793308
1306+966479484+967680485+968427029+967281649+963686729+958627268+954018609
1296+951041542+949345027+948552293+949763494+954229414+961096054+967808919
1286+972453312+974670747+974762036+973080404+970193921+966890959+963812596
1276+961175025+958849878+956720332+954851181+953176734+951183191+948131836
1266+943543898+937374533+929810748+920943188+910649067+898814193+885542171
1256+871037265+855355351+838267468+819286313+797961149+774407902+749701062
1247+725759241+704642702+687541091+674181180+663288772+653733368+645306986
1237+638322755+631930781+622841061+607461434+586953575+568796011+560542264
1227+561797731+563927469+557741746+540693253+517492331+495655647+480536287
1217+472878421+469718071+467128198+462385716+454508737+443577099+429746726
1207+412826762+392678607+369986993+346772182+326140316+311207769+303943768
1197+304810662+313216419+328091518+347986206+370810263+394072675+415967610
1187+436257959+455725552+474477425+490853695+502331817+507892887+509624301
1177+511753880+517885394+529199189+545263036+565974323+591729737+621189452
1167+649178853+667558129+669265037+652535382+621300693+581403283+537303845
1157+492462226+450307446+412636742+378320995+345474150+314145798+285850132
1147+261962345+244374953+236923242+244077029+267500816+304213530+347470772
1137+388275877+417332521+429529922+429092112+428957616+442270567+473033735
1128+514780857+557615686+595502553+627570905+655262702+679956969+702302736
1118+722255611+739460380+753738442+764978109+772313319+773337451+764036348
1108+740030504+700468420+653976442+619523409+615348357+644167187+691436117
1098+736594233+762389679+760228377+737968126+719752953+726925921+758730478
1088+796985067+825163077+836945411+832567251+816680754+799100692+790832960
1078+796788183+813517132+833857489+852474321+867545246+879436575+889050229
1068+897025874+903725460+909451915+914439524+918798759+922602752+925899619
1058+928679609+930959208+932804943+934253252+935248452+935554845+934452638
1048+929828710+917880927+896869919+873286969+860380874+865934117+883583528
1038+899524426+905085817+900214259+888480361+872255202+850833040+821343110
1028+782949822+740924920+705361982+685446636+684942140+701649919+729353969
1018+759925192+784616636+796462737+795794074+793610191+804254200+831854708
1009+866932075+897390646+918879848+933696472+944717891+953179621+959626125
999+964337942+966913156+966480062+963228166+959637544+958901649+961776841
989+966016816+968995229+969968360+969863471+969683330+969260821+967273501
979+962217698+953193799+939667669+920165466+891030428+848351040+794628100
969+744173031+717702828+727426632+767419886+819477359+866950166+902529142
959+926283893+940390220+946421079+946236127+943994955+945271335+952813887
949+964220927+974816373+981669220+984387944+984143394+983222675+984064678
939+987391248+991757026+995324040+997488485+998643745+999155491+999006592
929+997923889+995302741+990294154+982791442+974625006+968991893+967847539
919+970216952+973809434+977699648+982373487+987776805+992788728+996525233
909+999075749+1000928156+1002392952+1003619294+1004694299+1005618033+1006316719
899+1006717031+1006804792+1006605662+1006058825+1004878289+1002575531+998708347
890+993282319+987035971+981283470+977305559+975713034+976326269+978602083
880+981789121+984370494+984351056+981603463+979336053+981209117+987149714
870+993746399+998319197+1000799786+1002074820+1002390515+1001754506+1000956255
860+1001404296+1003757094+1007075067+1009559441+1009812459+1007370939
851+1002208898+993455467+979225711+959153576+936475370+915362616+894943737
841+865250443+810876611+726449844+633971412+577373152+589035392+662063136
832+759687122+846781995+908076740+944837471+964794259+975499406+981907098
822+986531347+990237379+992782057+993719583+993389774+993029942+994045991
812+996901296+1000450989+1002741750+1002593622+1000299075+996700049+990186313
802+973902840+940245363+893158691+852951039+841547078+862533708+899932180
792+934849615+958590509+971619007+976807606+976370342+972543318+968459042
782+967231930+969686281+973524147+975381173+972834891+963562978+943188364
772+905240360+846240547+775014080+715650650+693547700+715045434+764463156
762+820587456+870396830+908438689+931820136+939076502+929219838+899918901
752+851390463+794644908+750185799+732657123+739220834+756219545+772034319
742+779800186+775142128+759111737+740589851+729197116+723846210+710861978
732+677973113+631259424+593953780+586281576+608892358+645221599+676980223
722+699297635+723454559+762842019+816273513+869616734+910861092+936988142
713+949688628+951254914+944418811+931803584+913966014+889393766+855720251
703+808544727+742513082+661115217+584469137+538986665+537744253+574833863
693+635299884+703507073+764530195+806141249+822538465+815116329+790440474
683+758404968+730066256+713880872+712776420+724647862+745358058+770495105
673+795090705+815069625+828129943+830031683+815412200+787156309+750746878
663+710713464+678528611+669922088+690583272+730581978+772191685+800280651
653+807703173+794952071+768453769+738751686+715675990+702411346+695952461
643+693161950+693790710+698431254+706891765+719524890+738003538+762908610
633+791144036+817062206+835770263+844950438+844530110+835367641+818299453
623+795155691+771279564+755134788+752946286+763857106+781343698+798824002
613+812887218+822423376+827188888+827576819+824671925+819924952+814679064
603+810200121+808221526+810762932+818634394+830330442+842901596+853575436
594+860486149+862969240+862033317+860097961+859342179+859777198+858322281
584+849761948+829870660+799343702+765311189+737896467+724747683+727668680
574+742426861+761855865+779117089+788772634+787521466+774897065+752847106
564+725646846+700153367+682948020+674861262+669666440+660142856+645512146
554+632287149+627726219+633039852+643119767+652160346+658981565+667088660
544+680367738+699078040+719287012+735538602+744497258+746187102+741799512
534+731403645+714461966+691819557+665914923+639144230+613688857+591808581
524+572153246+547469437+511324667+467280400+430165514+415077909+424058538
514+447534257+475095953+500502281+521873377+541237138+562139087+586031445
504+611208268+634600813+654468686+672775597+693431071+717478999+741954377
494+763504780+781651117+797826365+812694631+825156405+832719165+831881396
484+819315887+795422759+767520734+747271795+743699328+757400787+780771135
475+804879817+824526298+837181492+841286041+836521939+824664547+810687040
465+801648898+802923033+815484436+836564537+861922333+885687541+901664109
455+908603240+908394359+900823260+883314600+852397017+806360523+751967638
445+706961691+690077108+707060101+746300075+791362283+833249835+868288390
435+894419290+912740891+926471668+937122029+944437480+949148335+953276748
425+957478038+959754558+958074401+952752236+945957448+940047196+934637141
415+928059445+920879870+916185887+916857821+921882639+926867554+928302391
405+926749128+926021253+929274111+936578207+946245685+956558603+964159726
395+964143174+954907058+937807243+913275604+881576000+847966509+824806324
385+825992955+852456807+887269994+916215910+936623306+949565583+956413362
375+959952341+965251860
##END=
