##TITLE=S. Graessle SG-V2472 18-30
##JCAMP-DX=5.0
##DATA TYPE=LINK
##BLOCKS=1


$$ === CHEMSPECTRA SPECTRUM ORIG ===
##TITLE=S. Graessle SG-V2472 18-30
##JCAMP-DX=5.00
##DATA TYPE=INFRARED SPECTRUM
##DATA CLASS=XYDATA
##ORIGIN=Angelika Moesle
##OWNER=
##XUNITS=1/CM
##YUNITS=TRANSMITTANCE
##XFACTOR=1
##YFACTOR=9.3133012e-010
##FIRSTX=3997.4121
##LASTX=373.82813
##MAXX=3997.4121
##MAXY=1.0000081008636088
##MINX=373.82813
##MINY=0.5754800403454978
##NPOINTS=2560
##XYDATA= (X++(Y..Y))
2560A071777807A071824079A071717519A071411922A070999509A070766935A071056149
2553A071920718A072874566A073175172A072616328A071878862A071745871A072199436
2546A072758151A073245571A073650496A073733119A073396482A073014213A072936902
2539A073036485A073011653A072849542A072681352A072359178A071644816A070871574
2532A070749783A071321427A071843918A071882446A071800399A071918414A071792655
2525A070801367A069311267A068466282A068620841A068981734A068870310A068524777
2518A068330667A068281707A068522217A069309155A070236123A070337435A069468002
2511A068719208A068778855A069118180A069031525A068652328A068524393A068594729
2504A068383594A067687472A066818423A066362875A066608185A067226804A067748592
2497A068301291A069402530A070944406A071959117A071652624A070325595A068478698
2490A066251772A064570057A064646281A066280507A067893998A067785391A066101757
2483A065311491A066534713A068098733A068129772A067176820A066742072A066086653
2476A064212620A062714776A063150421A064875783A066810359A068445866A068895654
2469A067242612A065013574A064509770A065208196A065158341A063843535A062448027
2462A061862431A062404891A064343499A067016566A067256756A062052382A056889608
2455A056789832A059629297A062763608A064881671A065516162A064978566A064237324
2448A063836047A063278804A062295324A061705057A061905951A062388571A062847383
2441A063465362A064066253A063949134A063203988A063071190A063875151A063961230
2434A062430683A061324644A061255524A060537834A059225397A059191797A060745960
2427A062831703A064290892A064138893A062905495A062735256A063836303A063782672
2420A061393251A059009270A058035902A057787264A058018302A058913655A059990894
2413A060627689A060902887A061169637A061152549A060418731A059584562A059610674
2406A060149165A060068910A059424755A059331060A060043182A060868135A060960551
2399A059750768A057774144A056646538A056953991A057832064A058770616A060001390
2392A061278628A061736032A061433571A061739232A063188757A064653833A064018638
2385A060058926A056063374A055982223A058490235A059914671A058175869A055874384
2378A055851728A057576578A059441779A059993582A058540986A056236749A055040535
2371A055383828A056601418A058021502A059065334A059337396A058976247A058474043
2364A058229373A058472059A059166901A060128045A061399523A063006486A064048462
2357A062812376A059573618A057001543A056457611A057452483A058696569A058793912
2350A057567810A056570186A056852616A057944383A059158325A060167085A060609577
2343A059916079A057776640A055070102A053416356A053243685A054021919A055137366
2336A056155278A057137286A058352572A059026422A057396484A054616026A054360092
2329A056238541A057004871A055200789A053177190A052775081A053528291A054424732
2322A054879512A055024343A055205397A055283669A055141654A055559698A057147142
2315A059188213A059909551A057704321A054054047A051802865A051243381A051516659
2308A051982127A052484779A053194278A054086622A054810456A055269781A055995215
2301A057303108A057985023A055762257A051641202A050012671A051418100A053778209
2294A055410068A055250325A053245861A051118006A050344061A050210622A049650370
2287A049049351A049347717A050280701A050836665A050897272A051180726A051839089
2280A052271085A052043567A051603314A051600691A051754289A051290869A050413052
2273A050308605A051359860A052449580A052081711A050390972A049093575A048643722
2266A048439052A048388045A048688074A049151430A049538307A050004031A050722362
2259A051582195A052358380A052607594A051471028A048652810A045854497A044853865
2252A045467748A046674906A047685586A048298829A048728266A049021959A048929864
2245A048429900A047961680A047791889A047632339A047177750A046608475A046263710
2238A046053023A045704802A045245350A044908777A044832809A044982504A045248678
2231A045505828A045667939A045815649A046136863A046489244A046227742A044937449
2224A043197431A042069888A041954945A042483836A043172279A043645683A043618611
2217A043119031A042587452A042580732A043383477A044758826A046010336A046447836
2210A045984544A045238246A044801194A044618667A044176367A043055800A041522820
2203A040548364A040899081A042279422A043603315A044075184A043815666A043373941
2196A043010296A042702203A042472893A042347838A042209791A041951233A041570436
2189A041053704A040448397A040014160A039979537A040239119A040517324A040655691
2182A040578700A040245071A039748307A039289494A039034456A039027992A039081944
2175A038838490A038198943A037486117A036979689A036630316A036387118A036370670
2168A036585964A036878634A037143144A037309670A037331558A037315750A037330086
2161A037091112A036294895A035166328A034233023A033744835A033681284A033992257
2154A034490237A034820923A034782139A034462461A033997697A033478661A033084937
2147A032997641A033158024A033361094A033527493A033667908A033692228A033487045
2140A033056969A032425230A031595861A030690780A029870499A029121897A028404015
2133A027885107A027677428A027460278A026741628A025351175A023283672A020142450
2126A015174490A007986708I99006173I89220268I79817080I72107767I67369565
2119I66444901I69362317I75221278I82432611I89336107I94917566I99107868A002369090
2111A005034476A007172379A008939596A010671102A012489328A014143778A015421912
2104A016454543A017421000A018242945A018813436A019298936A019934451A020640941
2097A021135721A021380648A021606118A021910563A022135713A022151585A022041954
2090A022038498A022369887A022998362A023500246A023466455A022994074A022501406
2083A022164769A021849892A021523110A021456615A021916067A022725341A023334296
2076A023441303A023340440A023456599A023772628A024004370A024085586A024121553
2069A024051538A023730132A023224665A022775132A022582814A022763484A023286552
2062A023893971A024289616A024389775A024226960A023840596A023449751A023416471
2055A023804692A024243536A024370703A024167761A023814420A023475031A023289944
2048A023317080A023383639A023228313A022889563A022743068A023045146A023628053
2041A024129809A024379279A024483598A024600653A024679437A024531598A024145361
2034A023684181A023180121A022605662A022222497A022391519A023015002A023597910
2027A023893523A024107345A024418191A024674573A024672333A024399247A023954899
2020A023556886A023632469A024434767A025547846A026278464A026511358A026619133
2013A026661245A026358143A025790468A025470918A025635589A025945794A025981890
2006A025707332A025362055A025123145A024985418A024859723A024714188A024642573
1999A024768844A025067594A025340935A025422087A025312904A025105417A024880203
1992A024704781A024616653A024572366A024479950A024282768A024021458A023843988
1985A023943251A024390991A024984650A025312712A025073034A024386511A023702805
1978A023335192A023231512A023179929A023012826A022640797A022125217A021692133
1971A021547302A021775588A022388255A023224281A023890451A024086418A023871379
1964A023462999A023000602A022596830A022406815A022578718A023150105A023858643
1957A024140625A023620181A022568286A021664549A021351400A021550310A021905251
1950A022138849A022135137A021880867A021562278A021565286A022039010A022550814
1943A022481375A021684709A020549870A019584502A019119226A019255545A019875252
1936A020658413A021195561A021241065A020911915A020565742A020504559A020839596
1929A021478503A022109986A022360800A022123745A021682725A021445863A021580966
1922A021924899A022227105A022401439A022448159A022287520A021904483A021529766
1915A021382311A021332200A021094762A020675757A020339504A020189105A020025842
1908A019622326A018960059A018154562A017252489A016234193A015237977A014584415
1901A014416672A014495647A014526047A014462560A014283105A013731814A012532463
1894A010735934A008731726A007017948A005978340A005718822A005993380A006360097
1887A006541984A006643871A006939485A007483992A008039316A008344721A008339601
1880A008153299A007898901A007465112A006639199A005533672A004638703A004267442
1873A004215027A004126579A003964405A003988980A004455537A005399913A006582751
1866A007640919A008400273A008999308A009649287A010346817A010895741A011150906
1859A011167802A011169850A011430584A012081395A012918508A013518823A013685734
1852A013693286A013957220A014562079A015222489A015601686A015537239A014978075
1845A013672358A010851581A005375145I96557617I85094990I73209838I63705467
1838I58447654I57252463I58064553I58332455I56344759I51545310I44324760I36165978
1830I29634703I27224867I29726415I35857117I43466463I50859171I57168368I62162568
1822I66090088I69431053I72487476I75188254I77265869I78578371I79331068I79913720
1814I80377460I80269365I79198205I77287117I74881248I72216374I69551628I67188639
1806I65208687I63482365I61955209I60678740I59623196I58663844I57703212I56666100
1798I55405758I53795851I51986586I50410343I49429359I49103281I49299312I49788396
1790I50254504I50468390I50456166I50417959I50620069I51303264I52434710I53647565
1782I54671812I55637756I56762163I57980841I59069217I59939610I60693332I61446221
1774I62180743I62819650I63402110I63997625I64415093I64253815I63349374I62012041
1766I60754387I59899482I59459038I59235807I58994337I58630628I58244903I58039657
1758I58153704I58577253I59149408I59621148I59848410I59966425I60261335I60854738
1750I61667916I62681219I64034296I65784554I67685723I69318542I70449284I71222846
1742I71971896I72834161I73616683I74074023I74246374I74422116I74833249I75548699
1734I76561107I77749513I78830080I79564347I79995447I80370996I80906608I81625834
1726I82350820I82910175I83349788I83771928I84062742I84039766I83767384I83490267
1718I83399963I83579098I83990551I84469331I84841296I85012494I84933391I84653521
1710I84390611I84336852I84423571I84438035I84309396I84162389I84136725I84245525
1702I84389587I84450643I84357652I84145365I83980055I84033430I84314644I84722129
1694I85207885I85739464I86181637I86417795I86541954I86737024I86981694I87051966
1686I86828352I86443267I86118469I85990150I86110917I86468291I86925567I87203005
1678I87064958I86589570I86150149I86009862I86043782I85965191I85671625I85279308
1670I84989007I84918607I84907599I84599506I83856792I82910623I82068774I81516523
1662I81355372I81539243I81860200I82198053I82627746I83134046I83462235I83420635
1654I83150493I82945183I82914655I82973343I83074206I83276700I83592474I83913751
1646I84124054I84190741I84155157I84084246I84018902I83982807I84062934I84388307
1638I84923855I85404683I85602378I85550858I85393227I85172429I84927055I84810512
1630I84904463I85047054I85022478I84826320I84621394I84512658I84471699I84457939
1622I84543442I84836496I85251020I85485515I85345612I84982287I84686801I84562002
1614I84528466I84515282I84496083I84451667I84437843I84566994I84797968I84913359
1606I84820752I84664593I84547986I84418899I84323540I84465043I84872463I85272204
1598I85423307I85392267I85374219I85383307I85267596I84995598I84780304I84860432
1590I85256588I85794312I86275268I86562498I86594306I86433667I86297860I86449347
1582I86997310I87796024I88534258I88920111I88828463I88373875I87857143I87554234
1574I87473914I87343995I86885055I86109893I85298316I84626321I83938455I83009631
1566I81937895I81109038I80826672I81060334I81488043I81778985I81898408I82068710
1558I82392100I82720161I82958687I83261789I83810648I84549522I85191693
1551I85398667I85041294I84402963I84008342I84100438I84399699I84499731
1544I84331732I84101078I83963287I83979735I84264532I84921423I85786952
1537I86383235I86306308I85658441I84942927I84525458I84376148I84309588
1530I84284372I84399571I84613010I84540882I83865560I83000479I82818592
1523I83500251I84244949I84364756I84093526I84070102I84471123I84897103
1516I84965199I84859600I85154189I86048582I87035390I87473530I87239420
1509I86674945I86138309I85782152I85588170I85435339I85182349I84766352
1502I84257172I83875352I83940951I84564114I85323084I85613257I85400843
1495I85153805I85011854I84689809I84206037I83961303I84075414I84286164
1488I84410643I84420499I84310356I84248533I84504594I84988047I85260556
1481I85143373I84942991I85016206I85416139I85929415I86210437I85951559
1474I85171213I84311188I83835608I83736153I83641881I83423835I83399835
1467I83828824I84516050I85113102I85511690I85712457I85593354I85088334
1460I84455827I84115094I84177173I84326420I84261780I84057686I83910231
1453I83775640I83548698I83348828I83300316I83237597I82921631I82400932
1446I81962215I81823208I82012903I82453667I82997855I83414683I83538586
1439I83448219I83313756I83117918I82786208I82495139I82515491I82825568
1432I83143325I83216221I82950047I82437475I81941031I81674089I81601194
1425I81580522I81604842I81765417I82091686I82514531I82909407I83158557
1418I83267420I83388892I83620698I83786456I83550554I82786784I81783721
1411I81060910I80954927I81352108I81911591I82484131I83050846I83347996
1404I82994079I82005863I80924847I80436275I80809008I81574634I82032167
1397I82093158I82173029I82460771I82746145I82763937I82525795I82267877
1390I82062502I81734633I81214829I80724337I80496243I80483059I80425204
1383I80080054I79406588I78615298I77920584I77293901I76638546I76012439
1376I75480412I75061791I74976928I75463260I76313301I77061967I77473931
1369I77532043I77300941I77060047I77182862I77690058I78225605I78563907
1362I78897728I79507387I80279861I80776113I80775025I80452851I80005495
1355I79470843I78957695I78627074I78436548I78283589I78367236I79057599
1348I80375796I81802792I82648546I82556386I81662634I80389236I79261885
1341I78813761I79239677I79997367I80164854I79498939I78871616I79332092
1334I80886960I82483555I83143325I82869856I82412387I82422307I82969375
1327I83615898I83764248I83167325I82271781I81821352I82037670I82480483
1320I82706529I82735841I82822112I83076894I83400411I83510171I83038686
1313I82073830I81610922I82617890I84445651I85167245I83858072I81614890
1306I80073206I79894200I80706289I81525227I81310444I79975223I78665730
1299I78416260I78816257I78625026I77458764I76231958I76104663I77456460
1292I79654010I81464875I82034086I81538603I80554418I79324092I78317189
1285I78522563I80174390I82056550I82812704I82235493I81054766I80143990
1278I79994295I80472563I81027503I81159214I80680945I79806521I78852544
1271I77713034I76341269I75646874I76781969I79508859I82189221I83320732
1264I82647714I81367660I81689769I84969551I89653353I92613649I92269076
1257I89290732I85760264I84040918I84958735I86830400I87181757I85463627
1250I83353820I82600162I83241693I83961815I83827480I83171229I82592930
1243I81997543I81202093I80499955I80025015I79524475I79089086I79161470
1236I79657466I79959607I79819704I79499259I79081470I78395652I77689354
1229I77699530I78730177I80069302I80673842I80197813I79134078I78243781
1222I77997575I78292741I78645570I78794753I78945152I79341180I79938551
1215I80592818I81242669I81739625I81728553I80978223I79831160I79032383
1208I79013055I79575354I80276021I80726769I80571250I79661690I78351236
1201I77304717I76985615I77418124I78375812I79612858I80820848I81581162
1194I81785193I81910823I82287332I82447011I81886760I80957103I80250997
1187I79733305I79203197I78984895I79566010I80943727I82514659I83292700
1180I82536738I80664690I79069503I78538755I78519875I78327365I78115270
1173I78131782I77876936I76780945I75341469I74837729I76007575I78356932
1166I80641714I81770281I81622122I81159790I81295724I81827880I82035238
1159I81672937I80679473I79114494I78084231I79332476I82908831I86426627
1152I87671609I86893631I85868295I85737096I86214853I86364675I85780552
1145I84952207I84448531I83920343I82502115I80260789I78267589I77344205
1138I77579595I78768129I80537843I82314724I83695129I84443219I84129622
1131I82640418I80757873I79438460I79064063I79677178I81075438I82514275
1124I83175453I83049182I82810144I82953887I83286620I83262621I82684321
1117I81858280I81165870I80718129I80396660I80129718I80066870I80297973
1110I80450099I80034935I79303549I79126078I79880248I81233133I82690529
1103I83820760I84275668I83891799I82853152I81753129I81232749I81294380
1096I81280685I80793265I80247029I80100342I80149302I80118966I80272309
1089I80879280I81585578I81796968I81360876I80669042I80124726I79780729
1082I79481787I78950271I77850952I76165718I74353829I72899633I71979832
1075I71651067I71954552I72745970I73726570I74596707I75163422I75504155
1068I75891608I76461268I77082127I77561291I77778249I77547787I76589139
1061I74840481I72770610I71229630I70931840I71976824I73621227I74946016
1054I75818841I76414932I76675026I76691730I76901456I77591755I78586370
1047I79533627I80172278I80397748I80327028I80191669I80091894I79990903
1040I79896568I79899320I80053943I80296373I80507955I80571314I80452595
1033I80347252I80587250I81237677I81865896I81861736I81234477I80640498
1026I80436787I80535411I80760305I80962799I81085486I81170285I81233645
1019I81279149I81416619I81693993I81873768I81706025I81386860I81319596
1012I81578090I81897640I82012903I81942951I81998183I82374244I82900703
1005I83345820I83556122I83291804I82555170I82114918I82571106I83574682
998I84450131I84795984I84676241I84385747I84163541I84167573I84486483
991I85140877I86019590I86634945I86231108I84823376I83253725I82039526
984I81337004I81133806I81227885I81510123I82147046I83101086I83909143
977I84278868I84485395I84882767I85378251I85547018I85087182I84226645
970I83427419I82956767I82878752I83140574I83681753I84560402I85882951
963I87536442I88969390I89368427I89055406I89244460I90029286I90924254
956I91671768I92214356I92610129I93099149I93893830I94957886I96099444
949I96986733I97293355I97150508I96912942I96832879I97075181I97711975
942I98642208I99627672A000539344A001374666A001970949A002081668A001896133
935A001773318A001783110A001980613A002350146A002730687A003014972A003297594
928A003715255A004062772A003761270A002960573A002644287A003035900A003965749
921A005295786A006804958A008285394A009856773A011676534A013337897A014078947
914A014034467A013971492A014214690A014730973A015518871A016831500A018853116
907A021407975A024256336A027441782A030621853A032561101A033641284A034805627
900A036344238A038033952A039452565A040659147A041921409A043389365A045302374
893A048382989A053401380A059087734A063435603A066736120A069675296A072177292
886A073710591A073733119A071751951A066047485A056749449A045300006A029028074
879I98815134I49681709H95956832H50440529H11284367G76721447G49869825
872G33718660G27393655G27894771G32625036G39824594G48251726G57174341
865G66334075G75659952G85058851G94419928H03817419H13597116H24000808
858H34797904H45513977H55791270H65357336H73910675H81247384H87272807
851H91087816H89906833H82983690H75920899H73491862H77750516H89104984
844I03064103I14619081I23525889I30546056I35404513I36720598I30181451
837I16351035I10499690I14647433I22768903I31454209I39188610I45622414
830I50819300I55114049I58999649I62599108I65370414I65977449I63612732
823I61047633I60005977I59137952I56659892I51851867I45569806I37904204
816I27867870I16501946I08323260I07045126I12733976I22871238I32820789
809I40479159I47372415I54581893I61905034I69340109I76995855I84667281
802I92930766A003159547A012351729A017040267A019240377A020358256A020097458
795A017266825A010404608A000121044I89397099I79124094I66974305I49583278
788I25885870H98211854H68143106H35538058H00988642G68699752G46588187
781G40110096G47954640G65019462G86902612H11429262H35121934H53521400
774H66984715H78327279H88958105H97761874I02433260I02410860H97625619
767H84234623H54432945H14588852G84888741G66812599G54901784G47816593
760G45635171G47327701G51118967G55733841G60519786G65123973G69560481
753G74270715G79958093G87017556G94773909H02497622H10285335H18163671
746H25601307H32175141H38112373H43764231H49068188H53617016H56929949
739H58482320H58410257H58109075H58614159H60065859H62451376H65656534
732H69268153H72893339H76648701H80980506H85922610H91077384H96338077
725I01810417I07253189I12209117I16535289I20402906I23997117I27142948
718I28783702I26471849I17676656I03619554H89486549H80490526H79471142
711H85583924H95008808I04371740I12683481I20115932I26479401I31154179
704I32901301I29510992I19486690I04388508H89540884H83300167H90496269
697I05842896I21195028I33142003I41804525I48168569I53178000I57675436
690I62326214I67430429I72754610I77584203I81023791I82116518I79511739
683I71370813I56557173I35951068I11687393H86216431H62568559H43951878
676H32208101H26770385H25536539H26913936H30752241H37368443H46261299
669H55816102H63578919H66593998H62057203H49066844H31466603H17848922
662H15333806H23661674H36971327H49921046H61209722H72319200H84538941
655H97566099I10101934I21102292I30374089I38250185I45041874I50681701
648I53993034I51985562I41783341I25476721I11639777I08979319I18659304
641I34428776I49481646I61180048I69894473I76303765I80574770I82553442
634I81802344I77304141I66821026I46944643I15325827H74194769H31547435
627G97539902G78239899G72782407G76921253G87538639H02703060H19652683
620H35047950H47169260H56949213H66588622H77331383H88651356H99257606
613I08280828I15129285I18166060I13793424H98163662H71817508H42804815
606H22935216H19258382H29625594H46447666H63133930H76831419H87446373
599H96035744I03863392I11851679I20340315I29168019I37914444I46180233
592I53825547I61042449I68249046I75883288I84151061I92881359A001672903
585A010230210A018438911A025919427A031405398A032481166A025679813A006834205
578I72381621I22315211H63246698H07839467G68792487G51434804G51607859
571G60181549G69267427G75374514G78972309G82419321G87905868G96176905
564H06483766H17544540H28459460H38811056H48277091H56488544H63250857
557H68675966H73016282H76442751H79016106H80800667H81977362H82920266
550H84200064H86396974H89782162H94151535H98909768I03218149I06191309
543I07353028I07214981I07266245I08998199I12778840I17714224I22418506
536I25625904I26166059I22723911I14115469I00490044H84284287H68736957
529H55007212H42310035H31516971H26499859H30438515H42187156H57427609
522H72265952H84880186H94918825I02693034I08862392I14166733I19094309
515I23714623I27828766I31324930I34380713I37269073I40052283I42585190
508I44752597I46593542I48264120I49941739I51690460I53414543I55020097
501I56561269I58165288I59885210I61667148I63410301I65009009I66301286
494I67082016I67260958I66751970I65115824I61979401I58220584I55958266
487I56668148I59786075I63556604I66684067I68829010I70144903I70908801
480I71403453I71766394I71908857I71662523I70994240I70071623I69158223
473I68465108I68102935I68134167I68599507I69519564I70920961I72769010
466I74852449I76896144I78786113I80533299I82096102I83383004I84387091
459I85264524I86226245I87328636I88511730I89825767I91276572I92426578
452I92067157I87858487I77375820I61875594I48470327I45120658I52809491
445I65126128I75463004I82090150I86607937I90512674I94174148I97498217
438A000461457A003154171A005597543A007580375A008630543A007935189A004075572
431I95360634I81647402I66282086I55110273I52352727I57451630I66084712
424I73212846I74206822I64979057I45037010I20735831I01001271H88347934
417H78661165H71013675H71582694H85093816I07534466I30299274I47952891
410I59870682I67064928I69632651I67174623I61251407I56280823I56433206
403I61822538I68927057I74431652I77654794I79805433I82315300I85974983
396I90691104I95654712I99944597A002987773A004542768A004644847A003670583
389A002257795A001160971A001086156A002294018A004375921A006702239A008949324
382A011017404A012782829A014185250A015349848A016471951A017673542A018993019
375A020436399A021996643A023635413A025260104A026684669A027558005A027398583
368A025919555A023442263A020838380A018827068A017255241A015040539A010738110
361A003641719I95182524I88968494I88136757I92526225I99354650A006260706
354A012545327A018055106A022495070A025933315A028888299A031656468A034132800
347A036361646A038700891A041240070A043424885A044541804A044552044A044385069
340A045267878A047652435A050969592A054435612A057667905A060520490A062907543
333A064863431A066364027A067160948A066808119A063712848A052705386A024255376
326I69945096H92732730H11860938G54419676G39121816G65844351H18061080
319H74109265I17865007I41413488I40593270I11759392H54720111G77808158
312F99017501F40587767F17911982F29908685F61011601F94245124G22280672
305G47012568G72081421G97947643H22589939H44286403H62806893H78680428
298H92246654I03648162I13238420I21502929I28742935I35187490I41172594
291I46863236I52053978I56541749I60461973I64104824I67655451I71181246
284I74709346I78273605I81814184I85031438I87630969I89807911I92096597
277I94651968I97093740I99139804A000976333A002906749A005006764A007289242
270A009864581A012652846A015195290A017087370A018454079A019739637A021123242
263A022349920A023120793A023419031A023313432A022723997A021753252A020965739
256A020879980A021435879A021961443A020759981A015264857A005133803I95541881
249I94166852A003464185A018367552A032264143A042761018A051215734A059063350
242A065135301A064650057A051656050A025584581I95225404I73452716I67351262
235I74539555I88147509A002971325A017066954A030313247A041836930A046025184
228A032647372I97506025I53218512I22070669I16084605I28844630I46830212
221I62238855I73902440I82731105I89676329I95539449A000890446A006093347
214A011171642A015736021A019392632A022067618A023900563A025278408A026874683
207A028885675A031007129A033004489A034599100A035577588A036203631A037074344
200A038512797A040306318A041983104A043154295A043567796A043135287A042080704
193A040657995A038517405A034911034A029949410A025275400A022969371A023888403
186A027459190A032399374A036453229A036212335A029039593A014690718I94208132
179I70136711I49795564I43359328I54338311I75312733I95534905A009715590
172A018364224A023471831A026549950A028931370A031511701A034236223A036639276
165A038742619A040883785A042999352A044810154A046390109A047942480A049408196
158A050635002A051532787A052162478A052977191A054534043A056807496A059236981
151A061346595A063146453A065126469A067655024A070396122A072633288A073733119
144A072916550A065641857A042632571I93242700I19167460H45557305H07527853
137H18003416H58183763I01446644I34589543I56895346I71350973I81078702
130I88770800I95550009A000918477A004477297A006991772A009638855A012938348
123A016532111A019457655A020836780A020886188A020843372A021622182A023299416
116A025909123A029331111A032008209A031382678A026600061A019420407A010723646
109I97121452I74391524I44897172I16727736H96415069H86996969H89680147
102I03122854I22218251I41218737I57935466I73638251I89953958A006501280
95A021126186A031727508A037056488A036301871A030145824A021756964A014147106
88A008013268A003213499A000144276I99137756A000040597A002770814A006988380
81A011248378A013760805A013772005A011092603A005189419I96390770I86862847
74I79190910I74527075I72432756I71839801I72049847I73129071I74859169
67I76190486I76771089I77720329I79720569I81891048I83544602I85593162
60I89095789I93206604I96340851I98018789I98324706I97381546I95542585
53I93059341I89656489I85211917I80102198I73209326I61577036I45195153
46I29798862I22539273I24917110I32813558I43614942I57635692I73795625
39I88894127A000525393A007997140A011772789A013305001A014012771A014278945
32A014687582A016646158A020001395A023276056A025555526A027434166A029794659
25A032473422A035624308A041099016A050538683A062407003A071856078A073733119
18A073741823A066758200A048761802A016141586I76273493I43952667I30429257
11I36070619I53963914I77986887A003726455A024960138A037173415A041665347
4A042860921A045248358A054418396A073733119
##END=


$$ === CHEMSPECTRA PEAK TABLE EDIT ===
##TITLE=S. Graessle SG-V2472 18-30
##JCAMP-DX=5.00
##DATA TYPE=INFRAREDPEAKTABLE
##DATA CLASS=PEAKTABLE
##$CSTHRESHOLD=0.93
##MAXX=3997.4121
##MAXY=1.0000081008636088
##MINX=373.82813
##MINY=0.5754800403454978
##$CSSOLVENTNAME=- - -
##$CSSOLVENTVALUE=0
##$CSSOLVENTX=0
##NPOINTS=40
##PEAKTABLE= (XY..XY)
389.4043018132079, 0.8665367915733209
436.13281725283287, 0.8591886118278028
472.9492233568999, 0.9051036784861062
519.6777387964044, 0.8260869935784063
567.8222698554118, 0.7520750122378324
623.0468790113323, 0.8785789561493594
689.5996131223133, 0.8531771851048027
706.5918005550305, 0.9009233669206115
725.0000036070046, 0.9258975335731823
811.3769563892142, 0.5754800403454978
828.3691438218052, 0.6883664095898979
880.7617217390928, 0.9210561461932393
945.8984402305587, 0.8906131336382888
961.4746120437667, 0.811201270459391
977.0507838569752, 0.8869547795192373
1005.3710962446266, 0.880219335829619
1063.4277366393121, 0.8903127265887719
1117.2363301758496, 0.7697442128624531
1139.8925800859706, 0.8449166371205278
1183.7890642868306, 0.6998338661814966
1229.1015641070726, 0.7630000072190659
1257.421876494724, 0.7197155318451989
1282.9101576436105, 0.8465598182417883
1309.8144544118795, 0.7593449313820367
1326.80664184447, 0.7688470439312547
1362.2070323290345, 0.82264405052813
1380.615235381008, 0.8190779642153971
1416.015625865572, 0.799182827792839
1448.5839851113715, 0.6944324932836505
1478.3203131184055, 0.6892868245208915
1523.6328129386475, 0.8447584460429952
1556.201172184447, 0.8479757855476628
1571.777343997655, 0.8135092806554834
1605.761718862837, 0.6774436199983886
2863.18358887456, 0.8922511887185689
2902.832026217272, 0.8851528718056251
2911.328119933568, 0.8839284725861237
2962.30468223134, 0.8635524466500941
2973.632807186401, 0.8915180512360856
3372.949211852315, 0.9000792456217181
##END=


$$ === CHEMSPECTRA PEAK TABLE AUTO ===
##TITLE=S. Graessle SG-V2472 18-30
##JCAMP-DX=5.00
##DATA TYPE=INFRAREDPEAKTABLE
##DATA CLASS=PEAKTABLE
##$CSTHRESHOLD=0.93
##MAXX=3997.4121
##MAXY=1.0000081008636088
##MINX=373.82813
##MINY=0.5754800403454978
##NPOINTS=124
##PEAKTABLE= (XY..XY)
3372.9492118522858, 0.9000792456217181
2973.632807186401, 0.8915180512360856
2962.30468223134, 0.8635524466500941
2911.328119933568, 0.8839284725861237
2902.832026217272, 0.8851528718056251
2863.18358887456, 0.8922511887185689
2805.126948479875, 0.9158700055487856
2792.382807905432, 0.9167425584935823
2785.302729808519, 0.916556174190657
2776.8066360922235, 0.9164102627007567
2755.566401801485, 0.918282324718318
2744.238276846424, 0.9183006830976435
2725.830073794451, 0.9139658163674047
2711.669917600625, 0.9154180235909086
2696.093745787417, 0.9164128257212469
2681.933589593591, 0.9171836923182215
2670.6054646385305, 0.9168553304638227
2652.197261586557, 0.9168366144537312
2640.8691366314965, 0.9167301606270248
2632.373042915201, 0.9177086896261764
2626.708980437671, 0.9171555586979565
2615.38085548261, 0.9185689043095433
2587.060543094959, 0.9134734221329607
2564.4042931848376, 0.9164366072358611
2555.908199468542, 0.9163946461573045
2538.916012035951, 0.9166936822888847
2530.419918319656, 0.915328557225591
2523.339840222743, 0.9164941261840723
2517.675777745213, 0.9172294094511521
2497.851559073857, 0.9163127496432023
2483.691402880031, 0.9163927983983464
2475.1953091637356, 0.916660304348714
2468.115231066823, 0.9173070740011889
2451.123043634232, 0.9158698863385303
2438.378903059789, 0.9165360285888313
2418.554684388433, 0.914401526125425
2404.394528194607, 0.9150273157042867
2390.234372000781, 0.9141755053439227
2368.994137710043, 0.9135928698775013
2356.2499971355996, 0.913109833648103
2318.01757541227, 0.9080253793514714
2308.105466076592, 0.9099654508197157
2285.449216166471, 0.9111049723374007
2271.289059972645, 0.9115987374897814
2264.208981875732, 0.911652619593874
2255.712888159437, 0.9149502462741965
2245.800778823759, 0.9143997975767223
2230.2246070105507, 0.9142038177795707
2220.3124976748727, 0.912604982873304
2211.816403958577, 0.9112285328357512
2204.736325861664, 0.9090756729243497
2193.408200906604, 0.9111362650294327
2182.080075951543, 0.9126982043616655
2169.3359353771, 0.908649320240045
2160.8398416608047, 0.9139772605519193
2149.511716705744, 0.9164669462458502
2141.0156229894487, 0.9151251267874795
2125.4394511762403, 0.9118551559550704
2114.11132622118, 0.9105515433835425
2102.7832012661192, 0.9108385988844591
2082.9589825947633, 0.9117843459947167
2071.6308576397028, 0.9098961300562238
2050.3906233489643, 0.9117581197385375
2034.814451535756, 0.9109482117829324
2027.734373438843, 0.9078957391300976
2019.2382797225478, 0.9137836649598748
2009.3261703868698, 0.9109193042273378
1999.4140610511918, 0.9180466479061316
1985.253904857366, 0.9102300957239546
1969.6777330441575, 0.9118318512814776
1961.1816393278623, 0.9153206893487373
1947.0214831340363, 0.9127657956451245
1939.9414050371238, 0.9118896077188694
1927.1972644626803, 0.9138516138741
1920.1171863657678, 0.9127969691269011
1917.2851551270023, 0.912814314219056
1894.6289052168813, 0.9049279048272381
1870.5566396873778, 0.9042580670590209
1845.0683585384913, 0.9126071882630282
1835.1562492028133, 0.9130269238468303
1825.2441398671353, 0.9131103104891245
1806.8359368151619, 0.9139324971010315
1801.1718743376318, 0.9145130463879841
1789.8437493825709, 0.9146732044347302
1779.9316400468929, 0.916581148739155
1764.3554682336849, 0.9137594652780368
1743.1152339429464, 0.9153845860456102
1731.7871089878859, 0.9211370899566288
1710.546874697147, 0.9283804848190155
1605.761718862837, 0.6774436199983886
1571.777343997655, 0.8135092806554834
1556.201172184447, 0.8479757855476628
1523.6328129386475, 0.8447584460429952
1478.3203131184055, 0.6892868245208915
1448.5839851113715, 0.6944324932836505
1416.015625865572, 0.799182827792839
1380.615235381008, 0.8190779642153971
1362.2070323290345, 0.82264405052813
1326.80664184447, 0.7688470439312547
1309.8144544118795, 0.7593449313820367
1282.9101576436105, 0.8465598182417883
1257.421876494724, 0.7197155318451989
1229.1015641070726, 0.7630000072190659
1183.7890642868306, 0.6998338661814966
1139.8925800859706, 0.8449166371205278
1117.2363301758496, 0.7697442128624531
1063.4277366393121, 0.8903127265887719
1040.7714867291907, 0.9016234226259022
1005.3710962446266, 0.880219335829619
977.0507838569752, 0.8869547795192373
961.4746120437667, 0.811201270459391
945.8984402305587, 0.8906131336382888
879.3457061195777, 0.9202815244732209
828.3691438218052, 0.6883664095898979
811.3769563892142, 0.5754800403454978
725.0000036068773, 0.9258975335731823
706.5918005549038, 0.9009233669206115
689.5996131223133, 0.8531771851048027
623.0468790113323, 0.8785789561493594
567.8222698554118, 0.7520750122378324
519.6777387964044, 0.8260869935784063
472.9492233567794, 0.9051036784861062
436.13281725283287, 0.8591886118278028
389.4043018132079, 0.8665367915733209
##END=

##END=

