##TITLE=X8709
##JCAMP-DX=5.0
##DATA TYPE=LINK
##BLOCKS=1


$$ === CHEMSPECTRA SPECTRUM ORIG ===
##TITLE=X8709
##JCAMP-DX=5.00
##DATA TYPE=INFRARED SPECTRUM
##DATA CLASS=XYDATA
##ORIGIN=ComPlat
##OWNER=
##XUNITS=1/CM
##YUNITS=TRANSMITTANCE
##XFACTOR=1
##YFACTOR=1.045918e-009
##FIRSTX=3997.453
##LASTX=373.96442
##MAXX=3997.453
##MAXY=1.123045900028514
##MINX=373.96442
##MINY=0.706004665710768
##NPOINTS=2559
##XYDATA= (X++(Y..Y))
2559I57414185I57217234I56616693I56062033I56037358I56484598I57018118I57519270
2551I58046292I58396198I58316303I57984860I57838174I58018370I58273562I58296128
2543I58026462I57658663I57376345I57153520I56925798I56824588I57026781I57417148
2535I57636551I57502630I57179621I56885679I56704343I56759850I57153861I57618657
2527I57690918I57370076I57210168I57546510I58015293I58142831I57966739I57784606
2519I57602586I57257240I56938222I57103484I57878864I58791807I59159267I58790898
2511I58293393I58376824I59081194I59812576I60005993I59687317I59166331I58537188
2503I57797599I57131525I56793245I56857755I57250857I57859260I58560208I59245889
2495I59790921I59972712I59611181I58868285I58059172I57258038I56567687I56318194
2487I56669011I57371330I57918983I57987709I57946221I58327814I58918320I58958898
2479I58279033I57554831I57015155I56413703I56040378I56335062I57019942I57430711
2471I57319129I57042966I57006151I57304426I57677241I57653078I56914173I55818467
2463I55185959I55360171I56220858I57676899I59561488I60947547I60298797I58357676
2455I57185319I56965916I57254505I57851737I58528298I58870567I58707465I58323369
2447I57997968I57752693I57632334I57746196I58005491I58142604I57986799I57581273
2439I57063480I56667415I56662970I56974805I57020398I56405955I55742844I55614849
2431I55843257I56132755I56447442I56806121I57191134I57545713I57720095I57719184
2423I57921262I58484303I58962773I58928466I58671223I58496952I58230593I57788139
2415I57440627I57457381I57930723I58762516I59607192I60050102I59952424I59537323
2407I59074355I58654922I58351293I58368048I58839907I59649705I60525267I61130932
2399I61133897I60531877I59877540I59598302I59447854I59088829I58731741I58829304
2391I59486604I60311446I60853971I60982992I60680502I59901933I58844808I58165969
2383I58207684I58581068I58660621I58093478I57372925I57059147I57149646I57555286
2375I58247461I58898377I58913080I58475755I58457177I59100342I59839701I60040184
2367I59676374I59333764I59415825I59752283I59983540I59888253I59528207I59290111
2359I59611067I60454830I61017870I60647449I59960631I59803116I60274178I60980484
2351I61442088I61410288I61063574I60713896I60490390I60428159I60503839I60534271
2343I60234627I59437368I58393008I57716562I57727843I58281996I59040277I59735415
2335I60365587I60968062I61114977I60207502I59028422I59047571I59850530I60063436
2327I59539034I59608444I60679589I61918277I62571017I62574893I62384439I62366545
2319I62423077I62191820I61665480I61240806I61167862I61422484I61707195I61529849
2311I60833115I60070617I59678085I59792744I60189038I60445598I60318401I59917434
2303I59560462I59553965I59998129I60646537I60996328I60905262I60864572I61025163
2295I61177550I61253002I61303265I61325946I61335292I61337800I61168660I60794247
2287I60576214I60719594I60802570I60422914I59852012I59497547I59362258I59440101
2279I59905694I60668075I61284573I61566321I61722126I61890582I62001253I62003532
2271I61782191I61099590I60157808I59706123I59992430I60573820I60921560I60757663
2263I60187670I59619157I59436798I59737694I60366042I61088078I61644053I61705372
2255I61110304I60347350I60101847I60423942I60900247I61163189I61183249I61168204
2247I61256649I61397979I61416785I61204334I60867534I60603568I60473522I60410834
2239I60389407I60462124I60656111I60961794I61353183I61667646I61582733I60972393
2231I60210580I59875833I60254802I61190771I62255191I62976884I63054386I62538078
2223I61837583I61415189I61429778I61658641I61738879I61504090I61068475I60635935
2215I60367180I60419040I60930336I61830744I62678610I62919555I62540128I62128790
2207I62015727I61942783I61706853I61529621I61580682I61611114I61318652I60746494
2199I60211833I60023659I60263008I60732588I61150993I61430690I61661719I61853654
2191I61925458I61879071I61769768I61593447I61393192I61308166I61383048I61525290
2183I61682804I61808175I61735917I61457702I61357062I61776376I62505253I62998311
2175I62965601I62530328I61956802I61456790I61153957I61034852I60971710I60902070
2167I60904122I61065968I61392736I61822538I62207093I62367571I62312520I62280493
2159I62431625I62631880I62687615I62638491I62638374I62630168I62345002I61669925
2151I60855682I60283410I60159174I60450043I60950851I61409717I61667190I61675396
2143I61533610I61541018I61911212I62334630I62246528I61579770I60807243I60320452
2135I60214225I60487199I60984589I61293235I61087509I60508170I59954362I59627252
2127I59478513I59428250I59397930I59253522I58968244I58754197I58815630I59073442
2119I59289769I59338209I59222524I58955251I58549383I58106473I57805121I57699466
2111I57559846I57052995I56120104I55081386I54315583I53866632I53419449I52662878
2103I51593044I50436532I49436680I48771916I48503959I48461219I48235490I47453160
2095I46173725I44929224I44194992I43892330I43590237I43043039I42324251I41597143
2087I40939845I40298845I39582508I38833687I38178554I37608391I37008992I36376655
2079I35776117I35128962I34262747I33175475I32089400I31172351I30320098I29341046
2071I28224026I27068141I25892482I24678811I23458985I22229187I20934423I19607859
2063I18361591I17195904I15962458I14505677I12705544I10463527I07859239I05249251
2055I02968197I00986615H99062590H97110870H95207247H93358902H91464169H89485208
2047H87598682H86079670H84924810H83773769H82434155H81228577H80507110H80112697
2039H79679817H79138718H78602291H78037769H77377906H76823186H76783010H77482023
2031H78746926H80258016H81893682H83658540H85411145H86973809H88418908H89948292
2023H91604758H93347561H95183255H97012509H98647434I00140573I01760225I03526280
2015I05128779I06379605I07442486I08578597I09874501I11182828I12236078I12899645
2007I13344606I13889468I14678408I15579158I16393572I17099765I17820947I18563556
1999I19139988I19466985I19789707I20427458I21407992I22533160I23655366I24713345
1991I25651138I26491823I27341056I28222431I29082606I29950873I30860001I31694246
1983I32344820I32864264I33320281I33754871I34330391I35165150I36071428I36777451
1975I37261278I37574483I37616312I37402209I37289601I37612437I38259819I38855228
1967I39249414I39622684I40157629I40842396I41618513I42467633I43271447I43855231
1959I44282982I44827900I45509304I45931983I45769909I45223509I44819408I44890529
1951I45378687I46030629I46631965I47060001I47264587I47321860I47455440I47836290
1943I48344849I48697661I48808275I48817051I48808275I48761488I48768725I49026139
1935I49553277I50108852I50437159I50486967I50378063I50281297I50374244I50782563
1927I51421967I51953777I52045699I51695850I51210542I50884856I50781993I50770766
1919I50646134I50231034I49528146I48810440I48424974I48467430I48754535I49094525
1911I49419356I49640982I49533559I48817507I47299008I44953444I41933485I38505266
1903I35012935I31946360I29858724I28993135I29088077I29746116I30867808I32568668
1895I34802023I37168957I39054002I40015388I40113065I39724123I39024197I37877032
1887I36261995I34574413I33487939I33595818I35012536I37196026I39336206I41009256
1879I42337529I43588128I44853829I46075763I47115906I47811500I48156618I48394030
1871I48719032I48962427I48806337I48233552I47513852I46832163I46198401I45679754
1863I45485654I45788316I46510182I47268576I47560810I47124112I46072515I44587696
1855I42655123I40251887I37535104I34620403I31405090I27840213I24187062I20849454
1847I18102011I16051246I14711062I13992046I13552327I12663088I10376336I05979380
1839H99370895H91162190H82485558H74449641H67553368H61614433H56055950H50034212
1831H42652972H33643588H23852900H14721733H07230107H01436777G96952287G93710873
1823G92246285G93277652G97071163H03128177H10373444H17705276H24517436H30698796
1815H36111448H40200955H42224081H41760314H38948988H34469969H29492705H25386729
1807H23139526H23075130H25114270H28947160H33857691H38817232H43065963H46500109
1799H49472996H52369803H55367252H58470298H61650849H64819032H67715783H70083173
1791H72018881H73965358H76271316H78883127H81533462H84095238H86606580H89040247
1783H91284999H93374118H95504609H97740757H99823606I01372936I02236188I02603589
1775I02826696I03133861I03413501I03192046I01908394H99249454H95132137H89531311
1767H82681084H75413591H69032830H64854878H63774217H65800706H69851803H74372708
1759H78377759H81823416H85119424H88516585H91858468H94730144H96901781H98668576
1751I00657339I03306192I06641978I10426599I14301832I17914863I21132968I24038666
1743I26598048I28597696I30057269I31367592I32832123I34318709I35493400I36229854
1735I36719608I37252444I37923819I38607730I39215791I39837813I40574325I41371471
1727I42055781I42439025I42436119I42196997I42052191I42239111I42734849I43363653
1719I43970688I44472067I44848358I45136318I45391111I45659011I46003844I46493199
1711I47106674I47698550I48095356I48235718I48225916I48258969I48449764I48765021
1703I49123703I49499424I49888765I50255197I50536090I50699930I50806498I50984072
1695I51287931I51635899I51934857I52158991I52263791I52198825I52077156I52141097
1687I52444671I52740780I52787738I52618598I52409224I52257352I52202529I52274277
1679I52423471I52569873I52732004I52924224I53008224I52884503I52728528I52788764
1671I53061280I53357845I53554453I53608990I53485782I53216515I52925991I52685616
1663I52458462I52257067I52205094I52367395I52665385I53029196I53464925I53901908
1655I54152199I54118177I53903504I53663015I53475525I53399389I53500599I53755050
1647I54048766I54304641I54497203I54578183I54539260I54492758I54535556I54629814
1639I54743277I54944216I55219126I55388380I55361310I55299479I55363761I55452662
1631I55378008I55182596I55087427I55175644I55303810I55305975I55166868I55005250
1623I54963478I55088737I55286143I55411802I55426903I55453517I55636562I55933469
1615I56136630I56190883I56333352I56734659I57172898I57311832I57171415I57039660
1607I57005238I56877701I56551046I56179713I55944182I55890842I56047729I56441516
1599I56948708I57399254I57834299I58386968I58942029I59230160I59253297I59323164
1591I59636711I60023887I60189152I60069820I59866601I59817477I60016821I60367296
1583I60636393I60648930I60438642I60131366I59758780I59308803I58867261I58619820
1575I58770268I59399870I60297999I61042261I61339620I61191455I60770312I60327975
1567I60133418I60272582I60579747I60850667I60963959I60780001I60236224I59589524
1559I59255347I59355418I59655860I59942621I60226422I60559345I60835281
1552I60869473I60668990I60542819I60824909I61507622I62281745I62883767
1545I63225808I63293282I63136220I62892771I62642365I62387514I62261459
1538I62464906I62858464I63019626I62888209I62899040I63275843I63697098
1531I63852219I63836832I63845038I63920374I64095329I64419020I64839589
1524I65269163I65691215I66091614I66363788I66353075I66037818I65697258
1517I65724612I66151338I66560735I66592196I66302925I65986757I65876998
1510I66037020I66314437I66434795I66290730I66074860I66018328I66079760
1503I66006246I65683009I65318973I65196791I65309285I65422577I65463722
1496I65591147I65883950I66245709I66583420I66803848I66741846I66432972
1489I66300532I66697965I67358227I67620485I67169939I66328570I65605507
1482I65178213I64939775I64873554I65084751I65491760I65714808I65376872
1475I64509744I63643414I63381040I63855410I64703846I65466571I65870612
1468I65971712I66139598I66577037I66899702I66637558I65998154I65596732
1461I65639586I65858533I66049101I66225650I66352047I66304519I66146890
1454I66115777I66192141I66052293I65658620I65454604I65697258I66074062
1447I66265997I66413824I66739224I67114547I67305226I67353554I67420799
1440I67440628I67245847I66920331I66703322I66640521I66628896I66689303
1433I66887048I67102919I67137342I66968658I66748456I66606671I66550481
1426I66525862I66525634I66611002I66813195I67047415I67189885I67218606
1419I67218265I67285852I67523720I68043905I68785202I69404319I69579614
1412I69375484I69156535I69292965I69976020I71014911I71859699I72134836
1405I71996926I71791427I71655454I71567921I71495318I71385332I71099025
1398I70531312I69904103I69639223I69853840I70240901I70427252I70388041
1391I70373569I70433178I70384851I70076662I69498918I68894392I68662793
1384I68922428I69325106I69428710I69092824I68481914I67903143I67672458
1377I67982928I68741548I69507466I69784085I69520687I69114935I68827260
1370I68528644I68178852I68116279I68565344I69244297I69721058I69872874
1363I69839251I69765165I69682762I69477492I68987282I68271400I67652283
1356I67351046I67301694I67458639I67948621I68736991I69502680I70031754
1349I70453805I71041581I71989515I73232309I74259343I74409678I73612646
1342I72563271I71948372I71743102I71474347I70992913I70677881I70877340
1335I71471612I72090956I72425702I72276394I71674146I70995421I70687686
1328I70933074I71680755I72724316I73626778I73903854I73447951I72630859
1321I71946776I71655910I71757349I72157973I72739704I73362925I73966883
1314I74495616I74567419I73647637I71939824I70662498I70888854I72386039
1307I73972239I74735079I74564115I73769020I72675993I71658645I71178580
1300I71527232I72611939I74079719I75512052I76427847I76396390I75568468
1293I74982179I75685292I77384329I78588713I78413760I77616044I77411002
1286I77959225I78564664I78811992I78759563I78331242I77388661I76401974
1279I76175163I76778206I77534324I78042427I78458895I79099325I80392607
1272I82591314I85092967I86838506I87456026I87290078I86813317I86826424
1265I88320531I91063815I93012116I92304669I89770074I88108652I88268787
1258I88622454I87625166I85434553I83009832I80989954I79650169I79005522
1251I78798998I78861114I79098411I78964947I77849922I76220867I75352828
1244I75714815I76614083I77390258I77849580I77680782I76633115I75294130
1237I74765736I75447200I76694550I77689898I78154921I78177375I77742899
1230I76718371I75306098I74239854I74126221I74659057I74953343I74661907
1223I74271768I74269373I74545765I74771093I74902168I75098889I75415058
1216I75778755I76137094I76529513I77070212I77775952I78330102I78270379
1209I77604077I76952135I76853774I77190915I77517569I77703236I77944294
1202I78315969I78669636I78961984I79389507I80099234I80812038I80807820
1195I79652905I78070124I77393563I77912267I78685707I79136025I79701116
1188I80773513I82092784I83170879I83438153I82460353I80969439I80864125
1181I83024535I86088431I88133498I88558742I87919680I86862555I85775909
1174I84949016I84482170I84040058I83081979I81739573I81244804I82636790
1167I84879604I85460650I83468925I80957357I80544080I82561338I84923029
1160I85362178I83772900I82182596I82472437I84708983I87646819I89835496
1153I89923487I87406105I83706338I81266002I81181775I82522926I83925742
1146I85014438I86106668I87202658I87613427I86778099I85407424I85042248
1139I86193517I87659245I88129965I87726605I87332591I87219641I87046395
1132I86707092I86477087I86464779I86385338I85971948I85365141I84959614
1125I85055811I85706043I86525642I86709485I85770781I84164521I82652630
1118I81564278I81076462I81343849I82012887I82461267I82667563I83148769
1111I84004385I84579392I84062626I82300216I80128068I78630428I78171674
1104I78371247I78648093I78577202I78027269I77340109I77106459I77407239
1097I77658099I77479957I77225675I77369515I77802394I78107166I78150362
1090I78147627I78259779I78368966I78335001I78243595I78269695I78451258
1083I78753520I79147992I79458348I79340839I78577771I77336690I76131054
1076I75511026I75664665I76308514I77072950I77806839I78462770I79041539
1069I79665212I80355109I80841558I80835061I80369812I79755711I79325336
1062I79196090I79164747I79024215I78976231I79372068I80052390I80342800
1055I80019223I79620533I79549412I79735537I79957106I80104363I80239310
1048I80498263I80950061I81514013I81984165I82213028I82283804I82382282
1041I82546749I82699363I82771053I82626076I82160029I81542737I81110085
1034I81092418I81453380I81967068I82403026I82590857I82439384I82063264
1027I81721793I81510823I81347495I81207761I81160234I81209472I81282530
1020I81283214I81112136I80768955I80419962I80229052I80166024I80056037
1013I79770298I79338674I78926081I78662683I78515085I78417294I78427665
1006I78624500I78983639I79340724I79351553I78780304I77973928I77381596
999I76980971I76628100I76341681I76214712I76258137I76296089I76015255
992I75309175I74404891I73550757I72887190I72584927I72727165I73097020
985I73368737I73327249I72944064I72306826I71563020I71002829I70816707
978I70751855I70454834I70025601I69772803I69651989I69394403I68967449
971I68549387I68179878I67771161I67247898I66638584I66038502I65496775
964I65125442I65136952I65571429I66126491I66476852I66629352I66671178
957I66772391I67087531I67473569I67755203I68062138I68539357I69082907
950I69504504I69716727I69924277I70373683I70907546I71280814I71516974
943I71612941I71272382I70448449I69620189I68880599I67611137I65285920
936I62071918I57697072I51330387I43419843I34212654I21052900I00731195
929H74270414H44266071H06765542G59449706G23317570G15666777G27086805
922G46670916G70648394G98279762H25600547H47150398H63552192H78759862
915H93248174I04643527I12978630I19982098I26776250I33194509I38476886
908I42582064I45881036I48576220I51032056I53827026I56391251I58002296
901I58767077I58407483I57131297I56524946I57311264I59008477I61031091
894I62828033I63973717I64438168I64618934I64823177I64978527I64768014
887I63715676I61428636I57175063I48702733I33749286I15085358H99401269
880H91048784H92939927I05794340I22429727I35572727I44805332I51490466
873I56278301I59639333I62060406I63899630I65286831I66120106I66405959
866I66410176I66331989I66164217I65800862I65126012I64152203I62930039
859I61222912I58513367I54173455I47326362I37080284I23850207I10323736
852I00224402H97057871I03883423I18653540I33323814I44211519I52096076
845I57527019I60663860I62322322I63340240I64117896I64655634I64452527
838I62331781I58081171I54544731I52502856I50854823I48838364I45888444
831I41619482I36243930I30125313I22774276I13289043I00928715H83079030
824H58895713H37804500H24031272H11880260G96230136G78159680G63666068
817G54336583G47225921G40228380G33401347G26790924G18910584G09389221
810G01380259F97390994F96938966F99129694G03497473G09579276G16727721
803G24457613G33537776G45395414G56350592G60967180G59909542G54822918
796G47922199G44464631G50799745G66238786G82271128G93290987G98783934
789G99556462G97437653G95548106G95633302G97494982H00455217H03692585
782H06013131H06372895H04826244H03187729H05466788H16040603H32810596
775H46881700H53610372H53004135H45259597H32941212H22619910H17865697
768H16482715H14310964H07861191H00391619G99591053H05269781H13564765
761H22145087H30873179H40624773H50940376H60103514H67187619H72177022
754H75217724H76469235H75774894H72375511H65980958H57316066H47236507
747H37637526H31979941H31928310H34937554H36674146H34133968H27318960
740H18253613H09997381H06593666H08831238H13058257H15856817H15590570
733H12282196H07510373H03420695H01747418H03508058H08163283H13460819
726H17420394H19977725H23405545H31001060H43934914H59278728H72546531
719H82180217H89164537H94154681H96493406H95367155H90973162H84148351
712H75896051H67231272H58798321H50693277H42846560H35288258H27525655
705H17996940H05400967G90982750G78535003G70873895G67806408G67908702
698G70327381G74299949G77838782G78255249G74750837G70392632G70153796
691G76788951G89405269H05104630H21214020H36264118H49604866H61031390
684H70779223H79218444H86448210H92404925H97089670I00432978I02148655
677I01702326H98455328H92385948H85079362H79618043H78764250H82933597
670H90041182H97027781I00838560H98274163H86765120H67261989H46645200
663H34830246H37009748H49942006H66261168H80433653H90730564H97704569
656I02467844I06129942I09525564I12792964I15383348I16712419I16710481
649I15722084I14242678I12927569I12434852I12888874I13655133I13775549
642I12499020I09542091I05258825I00741795H97534119H96826614H98666753
635I01900586I04822070I05653523I02341616H92535142H75070011H52472552
628H31687593H20822627H23680797H37330190H55328329H72498263H86620485
621H97385665I05063641I09917755I12054116I11331396I07506883I00938118
614H93387681H87688209H86038411H88583090H93741575H99616569I04868971
607I08732236I10933336I11746666I11830838I11883665I12447332I13832252
600I15968328I18338625I20272451I21390838I21629504I20716273I17775414
593I11575988I01060585H85729650H66141949H44591300H25048449H11848176
586H08049821H14442492H29192721H48216869H66628853H80687306H88939264
579H92017521H91647556H89572912H86760618H83022555H77153203H67741029
572H54443649H38812958H23907551H13028794H08540372H11265190H20356523
565H33476214H47175473H57544587H61591239H59276278H54477329H53033940
558H58888988H71725906H87989105I03722261I16613146I26257546I33244373
551I38090565I40717478I40354978I35415383I23741930I04120777H78386478
544H51819927H30765472H19271531H17496245H22796288H32077276H43330102
537H55574459H68094297H80149113H91226302I01185845I10094075I18005531
530I24808059I30216721I33999748I36166598I36894447I36544085I35887984
523I35976201I37506667I40443082I44242520I48296979I52244871I56017697
516I59576303I62699468I65157127I66870752I67660035I66983587I64125761
509I58535820I49885289I37968212I22897085I05672899H88552488H74596328
502H66523540H65626836H71384776H81887072H94694584I07626158I19228377
495I28909420I36697952I42804488I47444612I50961732I53797164I56225531
488I58251336I59738606I60466226I60067540I58183293I54994365I51607633
481I49594308I49941308I52511119I56433764I60767122I64804828I68094852
474I70402633I71669587I71966950I71413825I70054779I67785066I64509631
467I60589093I57139047I55516830I56077648I57343064I56621026I51779508
460I42887405I32652896I25299979I24252883I30009742I40007124I50623509
453I59071848I63257949I60656679I48833064I28357891I05445460H90204965
446H89961399I03467354I22401632I38577014I49074066I55342789I59650273
439I63195149I66248331I68736763I70539972I71590830I71923183I71760423
432I71550825I71726005I72344210I73131668I73925507I74840393I75954962
425I77141791I78300127I79463135I80606995I81589581I82315150I82870666
418I83495141I84357023I85320575I86082160I86537153I86770804I86703445
411I85984486I84168396I80860820I75909368I69627712I62725454I56029493
404I50411856I46806804I45827068I47045583I48810497I49262696I47730805
397I44709023I40263912I32968039I20692737I02220402H78402377H52694235
390H30729684H18345421H18806111H31201828H51225544H73650215H94640388
383I12461750I26803775I37972201I46580334I53401155I59095555I63964941
376I67969590I71045000I73387315I75338694I77080472I78616294I79936248
369I81024031I81812859I82232974I82219981I81705038I80690084I79240540
362I77415445I75419390I73773922I73037296I73366570I74589760I76564048
355I79132947I81853776I84196203I86036003I87628814I89137625I90497811
348I91636315I92507204I93104549I93705431I94764493I96274444I97577982
341I98032064I97521224I96229424I94319302I91954535I89304371I86365051
334I82934039I78888013I74371724I69423353I63302400I54666286I43346215
327I32238993I26409077I29184386I39282410I52190334I63777791I72205273
320I77535235I80790725I83104090I85017629I86563482I87904977I89441484
313I91326527I93252489I94715940I95351808I95074393I93976351I92050047
306I88949223I83972928I76167409I64436572I48053071I27832919I06913411
299H89948918H81420740H84161059H97961813I18903432I41016209I59603887
292I73142382I82356865I88344011I91752114I92956950I92088112I88215903
285I78330444I58453757I28505148H96804047H76180363H72279429H77998219
278H82773233H84568408H88904730H99036604I11833858I21973539I25793893
271I20471966I02536172H70102720H26962101G82599093G46674849G23138799
264G08779622F96867560F83993316F75009576F79725095G03138278G40143696
257G80354340H15932155H44353376H66435437H83714274H97306224I08014588
250I16574109I23558885I29349879I34217498I38174337I40907248I42258715
243I42631074I42589074I42294162I41610136I40523321I39198922I37850418
236I36674929I35638719I34330562I32387447I30012591I27751996I25873391
229I24206267I22488083I20670569I18855562I16928745I14137536I08901376
222H99308436H84662381H67224605H52134272H44559273H46259734H54859718
215H66042448H76388027H84701304H91409062H97363725I03056585I07910756
208I10636258I11873806I13247955I15047119I16696804I17573677I17146496
201I14916047I10989583I06688765I04198053I05392063I10578016I18123439
194I25585830I31442759I35584124I38464349I40410485I41619026I42308181
187I42786936I43398872I44184905I44676597I44500675I44132363I44534412
180I46070064I48109945I49613570I49982738I49558976I49340712I50005191
173I51150134I51660005I50941844I49616990I48798872I48946071I49778322
166I50978259I52235924I52937388I52700376I51859975I50740620I49038506
159I46502488I43675149I41619710I41161927I42254270I43953535I45176380
152I45266022I43954902I41422532I38171488I34545691I31165912I29840032
145I32652725I39795927I49076232I57901543I65149947I70559919I73079238
138I70791632I62687842I49863861I34533325I18607266I03863648H92914852
131H88760037H92533376I01607897I10367674I13543380I09756422I02813817
124H99410501I04223811I16591206I32128608I46923971I59326126I68837290
117I75237481I78861797I80507723I80666491I79447634I77603735I76938458
110I78911379I83137255I87742220I91177107I93234483I94521155I95877353
103I97791917I99672859A000643135A001128785A002288716A004313038A006485076
96A008496406A010479356A011980986A012163347A011049918A009785357A009300391
89A009022290A007191725A002206996I94030717I84754798I77348087I73066132
82I70533477I67993300I65515353I64789783I67508447I74034242I83025788
75I92047312I99129993A004153930A008159835A011481316A013558183A014459845
68A014990630A015292777A014799492A013509057A012300802A011808655A011861654
61A012393236A013884951A016301690A019243405A023340149A029260507A035663665
54A040116810A041887083A042234707A042082893A040573284A036508795A029790951
47A020071555A006171300I88940789I72363928I59203718I49558520I45944919
40I53831756I74344826A000847493A024099230A039012387A046450558A048776575
33A046908057A043440344A042191056A042937141A043583384A043776687A044935134
26A047351194A048894198A047746690A044764857A041862350A039606998A037531499
19A035564164A034399902A034279316A034126474A033868775A035112248A038160760
12A040383287A039438200A036997295A036668931A038669206A040607705A042979198
5A048165095A057013830A067524560A073741823A072411156
##END=


$$ === CHEMSPECTRA PEAK TABLE EDIT ===
##TITLE=X8709
##JCAMP-DX=5.00
##DATA TYPE=INFRAREDPEAKTABLE
##DATA CLASS=PEAKTABLE
##$CSTHRESHOLD=0.93
##MAXX=3997.453
##MAXY=1.123045900028514
##MINX=373.96442
##MINY=0.706004665710768
##$CSSOLVENTNAME=- - -
##$CSSOLVENTVALUE=0
##$CSSOLVENTX=0
##NPOINTS=41
##PEAKTABLE= (XY..XY)
432.04222757626076, 0.99316034812136
484.45390758407893, 1.009091000255794
548.197842728694, 0.940709632384918
558.1135659734164, 0.929570120378966
579.3615443549647, 0.972536426589376
653.0212027443313, 0.945717019197654
681.3518405863952, 0.883339745697614
742.2627119468334, 0.706004665710768
769.1768178967941, 0.9123327558208221
794.6743919546516, 0.92189381753932
834.3372849335415, 0.968947928997686
923.5787941360436, 0.8559222060414781
1004.3211119859261, 0.930826646519282
1019.9029627990617, 0.966692726881594
1082.2303660516027, 0.905374689055448
1138.891641735731, 0.8550340375779101
1164.3892157935884, 0.8922035524569201
1177.1380028225171, 0.8456669288014961
1202.635576880375, 0.845153852680678
1239.4654060750586, 0.926723522756298
1260.7133844566065, 0.858513160386586
1274.8787033776384, 0.938007098461652
1311.708532572322, 0.8731639812358281
1324.4573196012507, 0.9191153468315
1352.787957443315, 0.805517718004728
1364.1202125801406, 0.8030625426425441
1406.6161693432368, 0.838562055939724
1417.9484244800624, 0.8436308339553881
1427.8641477247847, 0.87012879413858
1454.7782536747459, 0.836306674971654
1498.690742329945, 0.778648957926258
1517.1056569272869, 0.728941009440788
1578.0165282877247, 0.9382489743205781
1619.0959531587177, 0.931963962063712
1681.4233564112587, 0.748528764066286
2869.893613885848, 0.903437001496206
2930.8044852462863, 0.8608690938193401
2954.8855274120406, 0.82862464991463
3042.7105047224395, 0.976351838183002
3063.9584831039874, 0.97165064177293
3252.357224753714, 0.91704313225318
##END=


$$ === CHEMSPECTRA PEAK TABLE AUTO ===
##TITLE=X8709
##JCAMP-DX=5.00
##DATA TYPE=INFRAREDPEAKTABLE
##DATA CLASS=PEAKTABLE
##$CSTHRESHOLD=0.93
##MAXX=3997.453
##MAXY=1.123045900028514
##MINX=373.96442
##MINY=0.706004665710768
##NPOINTS=197
##PEAKTABLE= (XY..XY)
3991.786872431587, 0.999936681404644
3980.4546172947616, 1.001820187273732
3967.7058302658324, 1.000760059431784
3957.79010702111, 1.0006342930218741
3949.290915668491, 1.001163344494224
3937.9586605316654, 1.000878911277796
3929.459469179046, 1.002296309019774
3915.2941502580143, 1.00072727722391
3896.8792356606723, 1.000230412832092
3889.7965762001563, 1.0019331955758781
3878.4643210633308, 0.999939840077004
3869.9651297107116, 1.000949959441618
3861.465938358092, 0.999046187865362
3848.7171513291632, 1.0009078769308881
3835.9683643002345, 1.001604895512612
3824.636109163409, 1.00059102025646
3817.553449702893, 0.999494771636382
3806.2211945660674, 1.001695733490912
3793.472407537138, 1.001404385710586
3779.3070886161063, 1.002356867671974
3762.308705910868, 1.002754786129156
3749.5599188819388, 1.002163033964542
3741.0607275293196, 1.001005389957864
3731.1450042845972, 1.002467613653486
3724.0623448240813, 1.003384451775352
3715.563153471462, 1.003338794316898
3707.063962118843, 1.003875355480488
3695.7317069820174, 1.004529099204962
3687.2325156293978, 1.001692991093916
3674.483728600469, 1.0030650890813961
3668.8176010320562, 1.003599147363212
3658.901877787334, 1.00655649201331
3651.819218326818, 1.005302767887316
3643.3200269741983, 1.00374458330703
3633.404303729476, 1.00361476396487
3626.32164426896, 1.004985551417096
3612.156325347928, 1.004683952594452
3603.657133995309, 1.0034142541628441
3585.2422193979673, 1.003773908755914
3575.3264961532445, 1.003492216890564
3563.994241016419, 1.004187803610546
3556.911581555903, 1.005303125591272
3544.1627945269743, 1.0044885677906261
3531.414007498045, 1.0039514114996941
3520.0817523612195, 1.005561451648502
3510.166029116497, 1.0044653201712401
3494.584178303362, 1.005681138137078
3486.084986950743, 1.004106025373962
3469.086604245504, 1.005449514366388
3459.1708810007817, 1.005500655572916
3443.5890301876466, 1.00502477125026
3432.256775050821, 1.006466488677574
3416.6749242376854, 1.00424776399765
3408.1757328850663, 1.00568531030398
3396.8434777482407, 1.0043053417835501
3378.428563150899, 1.002778272217846
3252.357224753714, 0.91704313225318
3164.532247443315, 0.980328064898718
3139.034673385457, 0.9882036255765441
3117.7866950039092, 0.992326718005984
3106.4544398670837, 0.993916313595646
3085.2064614855353, 0.991974751956132
3063.9584831039874, 0.97165064177293
3042.7105047224395, 0.976351838183002
3011.546803096169, 0.988900464260372
2954.8855274120406, 0.82862464991463
2930.8044852462863, 0.8608690938193401
2869.893613885848, 0.903437001496206
2813.2323382017203, 0.985309343506338
2790.5678279280687, 0.9917665536108881
2765.0702538702108, 0.995794634849208
2753.737998733385, 0.995925764726622
2742.4057435965597, 0.996475916548704
2725.4073608913213, 0.9959284475062921
2709.825510078186, 0.997177582144102
2698.4932549413606, 0.998321156461844
2687.1609998045346, 0.999164920476722
2680.0783403440187, 0.9989431314729861
2671.5791489913995, 0.998813490982804
2641.831979257232, 0.9997834376829561
2619.167468983581, 1.003890375908886
2605.002150062549, 1.00263772489476
2592.25336303362, 1.004220824287724
2580.921107896794, 1.0033024340235461
2568.1723208678654, 1.004649024162842
2552.59047005473, 1.006446580674362
2546.924342486317, 1.00710211082678
2539.841683025801, 1.008094291651776
2522.843300320563, 1.010040144692844
2512.9275770758404, 1.010228137994164
2504.4283857232213, 1.0103759575851041
2497.3457262627053, 1.009516697249138
2481.76387544957, 1.010671119828376
2469.015088420641, 1.0091786178525721
2459.0993651759186, 1.007617571640638
2443.517514362783, 1.009935002739976
2432.1852592259575, 1.010477881248286
2426.5191316575447, 1.009786348506472
2405.2711532759968, 1.011014561646528
2391.105834354965, 1.010906558062012
2382.6066430023457, 1.01163099329227
2371.27438786552, 1.0136582647741301
2350.0264094839717, 1.014163116841714
2342.943750023456, 1.014931182541342
2334.444558670836, 1.013141851128974
2324.528835426114, 1.012106041926444
2310.363516505082, 1.012570242299122
2291.9486019077403, 1.0117182531850921
2266.451027849883, 1.015249468985676
2255.118772713057, 1.015259723165748
2242.369985684128, 1.01627240607538
2228.2046667630957, 1.015233378583164
2215.455879734167, 1.01577315803644
2204.1236245973414, 1.019751410695322
2195.6244332447222, 1.022291760389836
2184.2921781078967, 1.020999174134634
2167.2937954026584, 1.032125810890006
2157.378072157936, 1.0334806250825361
2144.629285129007, 1.023743490390164
2136.1300937763876, 1.020139079156104
2124.797838639562, 1.019525030111566
2110.6325197185297, 1.018856148815878
2103.5498602580137, 1.0190058740694141
2082.301881876466, 1.021708945594532
2062.470435387021, 1.022273520625834
2046.8885845738857, 1.02590344389175
2028.473669976544, 1.026301602910072
2019.9744786239248, 1.0255687030654401
2012.8918191634086, 1.027282456443128
2000.1430321344799, 1.02623567974445
1987.3942451055511, 1.0302734179436641
1967.5627986161062, 1.0301869895556521
1954.8140115871772, 1.026125530982116
1937.8156288819387, 1.0230873609267321
1929.3164375293195, 1.021973233384362
1923.6503099609067, 1.0220979235446501
1916.5676505003908, 1.023062209736586
1910.901522931978, 1.0231625843952101
1896.736204010946, 1.020304541291868
1872.6551618451913, 1.0239288615750581
1864.1559704925721, 1.024528362946134
1837.2418645426114, 1.026142219649724
1821.6600137294758, 1.0262131496248121
1800.412035347928, 1.0233442593058921
1783.4136526426896, 1.021040539145616
1772.0813975058636, 1.017244081677986
1738.084632095387, 1.009442072045756
1681.4233564112587, 0.748528764066286
1644.5935272165752, 1.0004466584704281
1619.0959531587177, 0.931963962063712
1578.0165282877247, 0.9382489743205781
1517.1056569272869, 0.728941009440788
1498.690742329945, 0.778648957926258
1487.3584871931193, 0.832078083931308
1476.0262320562938, 0.840068503140222
1454.7782536747459, 0.836306674971654
1427.8641477247847, 0.87012879413858
1417.9484244800624, 0.8436308339553881
1406.6161693432368, 0.838562055939724
1364.1202125801406, 0.8030625426425441
1352.787957443315, 0.805517718004728
1324.4573196012507, 0.9191153468315
1311.708532572322, 0.8731639812358281
1287.6274904065672, 0.954332035534136
1274.8787033776384, 0.938007098461652
1260.7133844566065, 0.858513160386586
1239.4654060750586, 0.926723522756298
1202.635576880375, 0.845153852680678
1177.1380028225171, 0.8456669288014961
1164.3892157935884, 0.8922035524569201
1138.891641735731, 0.8550340375779101
1114.8105995699761, 0.978862088449312
1082.2303660516027, 0.905374689055448
1053.8997282095384, 0.9931977794347441
1031.2352179358872, 0.9993922517999401
1019.9029627990617, 0.966692726881594
1004.3211119859261, 0.930826646519282
984.4896654964814, 1.01616249578235
941.9937087333851, 0.9892575553084241
923.5787941360436, 0.8559222060414781
881.0828373729473, 1.017717222557728
834.3372849335415, 0.968947928997686
794.6743919546516, 0.92189381753932
769.1768178967941, 0.9123327558208221
742.2627119468334, 0.706004665710768
681.3518405863952, 0.883339745697614
653.0212027443313, 0.945717019197654
630.3566924706797, 0.9874850328442341
620.4409692259574, 0.992932538813616
611.9417778733382, 0.992365818604496
593.5268632759967, 0.984378200363986
579.3615443549647, 0.972536426589376
558.1135659734164, 0.929570120378966
548.197842728694, 0.940709632384918
529.7829281313525, 1.021797518114444
484.45390758404983, 1.009091000255794
430.625695684128, 0.989380817790642
##END=

##END=

