##TITLE=S. Graessle SG-V2446 10-19
##JCAMP-DX=5.0
##DATA TYPE=LINK
##BLOCKS=1


$$ === CHEMSPECTRA SPECTRUM ORIG ===
##TITLE=S. Graessle SG-V2446 10-19
##JCAMP-DX=5.00
##DATA TYPE=INFRARED SPECTRUM
##DATA CLASS=XYDATA
##ORIGIN=Angelika Moesle
##OWNER=
##XUNITS=1/CM
##YUNITS=TRANSMITTANCE
##XFACTOR=1
##YFACTOR=9.5460595e-010
##FIRSTX=3997.4121
##LASTX=373.82813
##MAXX=3997.4121
##MAXY=1.0250003329996469
##MINX=373.82813
##MINY=0.5016465187942069
##NPOINTS=2560
##XYDATA= (X++(Y..Y))
2560A047475170A047636323A047784056A047663673A047397059A047159416A046813317
2553A046112813A045265017A045021754A045911448A047401180A048245230A047850239
2546A046865828A046243061A046243935A046561063A046890741A047026921A046725715
2539A045919877A045003460A044590800A044970991A045903705A046867014A047451256
2532A047552657A047214924A046443178A045290180A044055511A043198785A042963577
2525A043193977A043668451A044325997A044828568A044461489A043135534A041949131
2518A041744768A042129080A042477989A042740733A042918309A042514766A041275851
2511A039990170A039487099A039578322A039489534A038938822A038562939A039000137
2504A039968441A040422997A039713502A038626939A038334037A038855091A039427782
2497A039695832A039929541A040182669A039887270A038586291A036786612A035278210
2490A034220306A033722105A034146129A035526530A037152442A037670810A036592114
2483A035847342A036888200A038278654A037912637A036456684A036192817A036743404
2476A036454811A035915900A036367084A037334077A038024527A038546767A038619009
2469A037131337A034973508A034336380A034840763A034338378A032337708A030826996
2462A030989837A032317228A034191584A036094226A036298401A032760482A028884893
2455A028262564A029651394A031439835A032870812A033656981A033998023A034402004
2448A034562659A033093157A029942610A027576921A027415017A028526368A029660073
2441A030581548A031623281A032683120A033514183A034463693A035548696A035333718
2434A033200490A031822773A032231249A032172120A030612143A029333143A029467324
2427A030462165A031219300A030763620A029570661A029368671A029938239A029023882
2420A026409561A025045207A025592797A026342190A026554607A026763029A027189862
2413A027575610A027914716A028357721A028670727A028540667A028282482A028315887
2406A028267122A027601022A026745421A026446650A026699153A027204285A027638361
2399A027379302A026166237A024930694A024530085A024839595A025695696A027103571
2392A028416351A028316948A026553234A025008056A025314256A027168820A028484097
2385A026597565A022987217A022068177A023491787A023682475A020778437A018167550
2378A018777392A021522086A024201406A024581909A021546624A017514876A015943598
2371A016815434A018538688A020026922A020635639A020331624A019820186A019418953
2364A018851632A018613677A019678449A021935370A024258663A025510440A024819115
2357A022109699A019216151A017904932A018137018A019425571A021093567A021994000
2350A021448533A020348482A019779601A019752377A019991643A020399932A020669918
2343A020054332A017933092A015419735A014813639A016237186A018286122A019823245
2336A020371148A020329126A020581879A021055229A020242086A018379781A018044233
2329A018939109A018782824A017208612A016151645A016019898A015900952A015522509
2322A015470747A016418010A018184159A019486012A019247995A018534442A018974762
2315A020183643A019905478A015968511A011010292A009336115A010700095A013119607
2308A014912231A015335317A014967427A014867524A015348554A016018712A016680566
2301A017383129A017241143A014366389A009926101A008083277A009111772A011250870
2294A013385659A014588859A014008301A012480419A011867080A012159357A012092485
2287A011276282A010288685A009073434A007167858A005486688A005592710A007482301
2280A009691643A010779206A010698160A010388650A009954199A008616318A006629322
2273A005715527A006806586A008820119A009498207A007869923A005955980A005457404
2266A006125439A007266013A008297505A008706480A008323417A007495351A006774867
2259A006557143A006903055A007361669A006932526A005065038A003159649A002659950
2252A003128991A003801022A004521818A005300682A005918142A006131808A005722770
2245A004564776A003207040A002629854A002925066A003152031A002717206A002183977
2238A002128032A002282443A002138334A001444325A000354140I99502409I99491607
2231A000135291A000679572A000688376A000451669A000425133A000470838A000108380
2224I99343689I98637691I98174144I97822987I97628427I97719214I97929508I97954234
2216I97660833I97133099I96833766I97433805I98776556I99477434I98375323I96353548
2208I95375503I95919222I96833704I96954024I96269505I95723039I95971484I96606426
2200I96821341I96625282I96750660I97325099I97539951I96785875I95411968I94059976
2192I92917030I92044195I91747235I92165077I92835547I93036039I92460226I91492546
2184I90845678I90869655I91311161I91783325I92140601I92305877I92206536I92036016
2176I92114002I92408090I92598029I92487949I91982006I91037054I90061382I89760239
2168I90159536I90541413I90552090I90556711I90711934I90568449I89928012I89262912
2160I88939915I88745230I88469500I88318959I88485734I88808294I88986869I88821968
2152I88274877I87544965I86956353I86596205I86289442I86047054I86204337I86781586
2144I87052696I86338893I85049216I84260486I84405532I84998952I85497965I85788806
2136I85954019I86081707I86217512I86219385I85788119I84762434I83370793I82220791
2128I81912405I82394934I82887827I82795792I82404737I82300151I82541041I82780182
2120I82771503I82419160I81721092I80980004I80697280I80981939I81372183I81397159
2112I81019590I80487859I80056156I79852605I79802779I79715489I79510189I79288843
2104I79213667I79331427I79430517I79211356I78768789I78568609I78700480I78660145
2096I78216516I77881530I78080586I78425187I78319915I77864547I77642826I77918369
2088I78453409I78847899I78813557I78374923I77958018I77989175I78327158I78370802
2080I77817718I77061831I76687384I76748075I76786225I76507498I76142042I76102331
2072I76503689I77046534I77221051I76693066I75617929I74542480I73998886I74228474
2064I75094253I76110198I76690382I76516426I75695603I74632392I73738765I73190738
2056I72935487I72878293I72975823I73237692I73671331I74078995I74052896I73508865
2048I73014722I73128111I73640548I73931951I73804888I73577485I73506492I73426820
2040I72971639I72038863I71010180I70441611I70498118I70793080I70891983I70823675
2032I70905720I71232338I71569197I71607410I71202742I70581537I70283203I70599706
2024I71189755I71547281I71632448I71681150I71674344I71417033I70949989I70515664
2016I70243554I70169127I70438926I71148545I72044670I72685606I72894964I72839144
2008I72709083I72554359I72370851I72159807I71936088I71736221I71559519I71268303
2000I70684186I69888089I69314025I69345057I69824152I70171125I69963328I69214123
1992I68148101I67048113I66330252I66359161I67025073I67748742I68023223I67806310
1984I67383473I67050236I66975809I67168433I67482689I67737502I67855824I67862818
1976I67799754I67656706I67429741I67258346I67368550I67745807I68042829I67966716
1968I67575411I67062599I66450010I65631123I64679864I64024130I64110983I64807240
1960I65433316I65591661I65566811I65665776I65666963I65263419I64657886I64322027
1952I64338573I64277258I63760575I62983334I62489005I62523658I62875814I63225473
1944I63308766I62916962I62152396I61555604I61572775I61975756I62166257I61957711
1936I61710016I61731807I61891776I61887530I61611424I61144506I60638250I60308322
1928I60277915I60306324I59976771I59262469I58568834I58165291I57937888I57668401
1920I57230267I56599258I55905811I55356597I54982275I54639548I54264040I53923934
1912I53657507I53445714I53339942I53481429I53892153I54305999I54386920I54103134
1904I53686666I53282873I52915857I52665414I52570819I52480282I52228341I51843155
1896I51485691I51328470I51490624I51929008I52379880I52516372I52199369I51563428
1888I50935728I50711760I51169313I52190253I53237979I53807423I53824656I53482428
1880I52918167I52231837I51588716I51115053I50770328I50327011I49498695I48281634
1872I47113338I46413771I46087465I45815043I45598068I45602813I45687231I45521705
1864I45073643I44656363I44588054I44945393I45501287I45836148I45716639I45367543
1856I45112917I44869405I44343356I43603204I43071598I43001979I43267969I43583473
1848I43686435I43406521I42797491I42134389I41629757I41260742I40971837I40851267
1840I40930003I40963283I40622116I39847436I38870203I37942796I37163682I36508884
1832I35893673I35170567I34166797I32856328I31482982I30356083I29506288I28691334
1824I27731771I26681110I25685395I24774722I23785439I22563945I21308921I20469366
1816I20183145I20115899I19907165I19384613I18391708I16892547I15194394I13596080
1808I11916533I09800476I07391516I05296750I03891373I02933309I01921797I00636740
1800H99198520H97757990H96344808H94989319H93812032H92928645H92319178H91881168
1792H91613305H91571221H91612431H91474940H91207077H91163369H91459830H91838835
1784H92150343H92535217H93049652H93518881H93856239H94220945H94784707H95514869
1776H96236226H96833206H97360878H97930883H98525865H99039301H99457704H99840018
1768I00132295I00177564H99950286H99684233H99716826I00192986I00899358I01409922
1760I01440892I01085239I00696869I00515858I00438683I00215714H99820537H99488050
1752H99413185H99540249H99646333H99574965H99412748H99470879I00036764I01059327
1744I02068716I02528455I02386468I02160939I02361430I02973582I03643865I04175783
1736I04642265I05081710I05264906I04848813I03731030I02135651I00404217H98881455
1728H97873627H97436304H97327036H97371180H97637233H98121759H98639191H99139702
1720H99738368I00344463I00655347I00573427I00301318H99993369H99646208H99376034
1712H99489174I00138727I01112650I02066968I02841898I03483397I04070386I04607861
1704I05037191I05281078I05289819I05096071I04838947I04683849I04717129I04954834
1696I05401336I06021417I06717238I07409436I08100761I08843848I09672788I10550243
1688I11351773I11942758I12290605I12467620I12572518I12693524I12894890I13119109
1680I13135842I12776006I12254453I12052900I12374211I12886336I13096443I12803917
1672I12133884I11340471I10660386I10200023I09903937I09709939I09692706I09924167
1664I10241357I10365111I10262087I10163871I10202146I10267020I10255219I10243231
1656I10387152I10773775I11307004I11708424I11759374I11526477I11214719I10921568
1648I10675808I10546185I10573033I10699472I10812112I10806867I10660323I10450590
1640I10262150I10135586I10125970I10269830I10503476I10756229I11046633I11342344
1632I11458856I11241193I10742930I10152694I09620089I09193256I08886369I08767922
1624I08897046I09157916I09299403I09204932I09017678I08934259I08953241I08876815
1616I08552070I08074661I07675114I07379091I06940457I06206736I05405519I04917808
1608I04861675I05011591I05076341I04975189I04845129I04809414I04806292I04724247
1600I04639143I04738733I05035131I05351946I05581972I05754553I05873062I05880555
1592I05790768I05708785I05725456I05859763I06080984I06334674I06553148I06704875
1584I06857101I07099364I07358923I07419427I07198517I06857038I06583805I06426272
1576I06357589I06381128I06555083I06935087I07470814I08028519I08544765I09030228
1568I09463929I09830696I10145076I10296366I10148760I09924355I10077080I10595824
1560I10862563I10426989I09562021I08870509I08660776I08870946I09281483
1553I09629143I09716995I09483785I08893674I07975883I07079883I06656110
1546I06672344I06695134I06508754I06154912I05624867I05045808I04834826
1539I05197035I05763544I05987950I05676254I05061293I04524130I04250647
1532I04120961I03960805I03804645I03808766I03959057I04000454I03790659
1525I03618515I03855720I04321765I04419108I03971919I03547959I03787100
1518I04637207I05451536I05765605I05742128I05809499I06121882I06472102
1511I06552149I06249819I05745250I05259849I04833952I04511954I04471869
1504I04751470I05115802I05285074I05100380I04635958I04276747I04308341
1497I04404497I04041227I03354710I03037020I03441313I04219740I04818467
1490I05064602I05200719I05454971I05729702I05765105I05458342I04953523
1483I04525753I04387326I04525067I04762397I04994795I05250920I05531833
1476I05749808I05825983I05704664I05286260I04541051I03671838I02974144
1469I02546936I02304049I02189411I02207143I02314663I02417688I02459772
1462I02515717I02703971I02863377I02548248I01667046I00809571I00575550
1455I00909286I01374457I01690898I01795108I01710753I01474547I01082117
1448I00577673I00152338H99900709H99616612H99141139H98742278H98823761
1441H99403445I00116873I00605271I00746882I00645294I00527597I00566371
1434I00688440I00629435I00271347H99839082H99654512H99744986H99832338
1427H99709209H99494294H99421989H99505970H99556483H99461763H99298984
1420H99202204H99226430H99339819H99505845H99733373H99988873I00148842
1413I00198293I00292264I00369002I00044256H99270824H98624331H98508944
1406H98654801H98717115H98713619H98612717H98101404H97024144H95699438
1399H94602073H93888894H93415170H93123267H93159107H93668485H94627985
1392H95837366H96969510H97642290H97716405H97579477H97696550H97863449
1385H97443484H96315961H95088223H94365928H94170120H94140648H94040309
1378H93933413H93989234H94180797H94226814H93944902H93553909H93370401
1371H93246085H92683447H91652829H90835003H90754394H91171112H91603814
1364H91879607H91893656H91441660H90679093H90276611H90720614H91706963
1357H92525976H92895802H93120707H93469179H93755213H93668610H93221796
1350H92686631H92333601H92391357H92948563H93659369H93853179H93262007
1343H92408153H92028649H92372688H93207435H94088887H94475072H94022826
1336H93030858H92361761H92723033H93966194H95193245H95751013H95934521
1329H96354798H96952277H97109124H96403313H95029655H93823333H93684594
1322H94528395H95227337H94975645H94112488H93359974H92938011H92704239
1315H92726530H93360910H94692609H96139446H96943972H96826275H95853288
1308H94277078H92911349H92850908H94269710H96143005H97441299H97989951
1301H98097783H97956421H97597771H97108499H96626033H96159364H95634002
1294H95148789H94825604H94321097H93170034H91860688H91626604H92720473
1287H93854241H93882089H93111092H92419517H92054124H91784325H91405196
1280H90820330H90363214H90986854H93163790H95661787H96442650H94783146
1273H91730378H88583140H85859676H83843021H82973620H83247290H84087032
1266H85167102H86602075H88072889H88893212H89535272H91650706H95210853
1259H97658649H97381170H95647364H94542443H94813241H96058213H97515477
1252H98192815H97524218H96240098H95499571H95326802H94985698H94394026
1245H93958826H93573203H92866144H91926686H91000903H90002441H88771893
1238H87435074H86360062H86013775H86753303H88411245H90134687H90900002
1231H90327686H89059862H88253087H88384022H88572401H87650676H86025451
1224H85594497H87349158H89925579H91220064H90810652H90085547H90396806
1217H91659635H92655974H92455794H91365047H90341922H89748002H89103070
1210H88029743H87002559H86889420H87828252H88889154H89096201H88534500
1203H88096803H88355487H89066480H89642605H89779159H89563745H89153458
1196H88675800H88519015H89142344H90273988H90978175H90831506H90406858
1189H90410917H90932345H91631912H92168388H92417145H92569870H92860711
1182H93117835H93105597H93273808H94362869H96294170H98041151H98475164
1175H97045623H94299493H92033457H91952848H93891954H96085686H96963578
1168H96244780H94961846H94578283H95599661H97165506H98133435H98143863
1161H97507672H96582326H95595040H94872059H94597390H94208083H92802893
1154H90643627H89396908H90292408H92821874H95411220H96694841H96283493
1147H94827290H93404430H92629749H92162019H91288185H90264747H90202745
1140H91256591H92245125H92340407H91931557H91698534H92015100H93026237
1133H94229062H94660203H94207770H93539236H92961176H92673644H93248707
1126H94634354H95600348H95444874H95184441H95938767H97079715H96908070
1119H95012734H92802768H91581836H91207701H90808279H89907346H88693095
1112H87831125H87980729H89153208H90683588H91862437H92447178H92640926
1105H92798522H93097230H93316953H93116524H92530097H91983131H91880794
1098H92195674H92342218H91677680H90294905H89062609H88562722H88526383
1091H88435597H88045915H87432077H86825107H86412635H86235871H86306801
1084H86716838H87387433H87910172H87935585H87543843H87011800H86384101
1077H85583321H84847477H84751945H85715254H87620830H89862265H91486803
1070H91777332H91042550H90130816H89517665H89211464H88984498H88468502
1063H87346036H85796924H84615703H84546896H85559406H86970653H87893813
1056H87452994H85493408H83029877H81283833H80913945H81882436H83643528
1049H85628214H87454742H88729122H89064607H88451331H87425521H86753427
1042H86957665H88010012H89324353H90158039H90431335H90785301H91551241
1035H92542397H93450947H94100126H94518404H94827915H95070553H95162525
1028H95069241H94908274H94736004H94529519H94415443H94630670H95208668
1021H95860406H96218993H96240347H96191770H96253647H96366412H96422107
1014H96461257H96612484H96923992H97338337H97735699H97938376H97801510
1007H97457721H97272339H97462653H97944557H98417283H98574317H98529986
1000H98693139H99155437H99696034I00131671I00563874I01168783I01835506
993I02336517I02783331I03511120I04593188I05679689I06308262I06483653
986I06455805I06252566I06037027I06166900I06723357I07308660I07442404
979I07177475I06886697I06848359I07237729I08053620I09050770I09809279
972I10105240I10254719I10590516I11111944I11707925I12256389I12644260
965I12914558I13320974I14045891I14915167I15359358I15219869I15074448
958I14954441I14431139I13166125I10927749I07884347I05100567I03838799
951I04634834I07337569I10640343I12621782I13372174I13934749I14826129
944I16195791I17947642I19715165I21087200I22104081I23109974I24107437
937I24735074I25067499I25824260I27320111I29126783I30863649I32608320
930I34417115I36085361I37551990I39155799I41238389I43600332I45968518
923I48382847I50870417I53537812I56489303I59439858I62021212I64501601
916I67491992I70928073I73991393I76544899I79030658I81520476I83492924
909I84789532I85947026I87419026I89684563I94219195A002131716A008641606
902A011522105A013372859A015491852A017549217A018960214A020340365A022523046
895A025816453A030260986A036229468A043266781A047552657A047598487A045120783
888A041866337A038923836A037103177A035701422A032077150A023289359A009728482
881I94289627I74918300I42715946H93577511H41926156G97836290G56424245
874G14076301F74112716F42891966F23841826F16060490F16871572F23470376
867F33174771F44043466F55289292F66675045F77909258F88496602F97814313
860G05490626G11436255G15040235G15147318G11898741G08020967G07115851
853G10534574G16912343G24691744G33622082G43056491G51421007G59012591
846G67376483G76978728G86147771G93946028H01103036H07681672H13140527
839H17215920H18733625H15944350H12770638H12049218H12729616H11754568
832H03205170G83318722G57604092G36682031G27760933G33713056G52770626
825G79381505H03921470H16438617H20168037H20495217H19505746H19376934
818H22407911H28730422H37966774H49838302H62538895H74297033H86146708
811H99131148I10823726I19857089I28010561I35998758I42703208I47743472
804I51819365I55676535I60173891I66057706I70812311I72523827I72797185
797I72143761I69677982I63643689I52193375I36665856I21328901I06954381
790H89894359H65878632H36746841H10614432G90372706G73742015G58235350
783G42477744G26954846G12676419F99296739F86062605F73154403F61837458
776F54863021F53538815F56022638F61214504F70377116F84696752G01364594
769G16629620G30560011G46223085G67059230G88584390H02506103H09867287
762H12704640H11107076H06022543H00724406G98545285G99863747H04031987
755H11700371H23280933H36985608H47351918H44366148H23897581G93439959
748G57399667G15651513F72956721F39098172F19699809F15192900F23120343
741F38333294F57248254F79508820G01060204G13911025G15789378G08282024
734F93996168F78111248F66584508F62035702F63782870F70344523F79842369
727F90405987G01677851G14136493G27294014G40104625G52323126G63543977
720G72974951G81031269G89147653G98322565H07527885H13592398H13580909
713H05676193G89135976G65720726G39606674G14150354F90330561F69690162
706F55792738F49974297F50189524F54085343F60048768F67115614F75120232
699F83932374F92472843F99778456G06062380G11836614G17380886G22934023
692G28683782G34627038G40629050G46501001G52049331G57162523G61840454
685G66173533G70292509G74236719G77887715G81178562G84244318G87196434
678G89885182G91852885G92459854G91052229G87009491G79893131G70010285
671G58780568G48025012G38917909G31924865G27371001G25586307G26741242
664G30761252G37193031G45260463G54180000G63291661G72004712G79674407
657G85378522G88087563G87660293G85712009G84977726G87394178G92765556
650G99391770H05761548H11431696H16631117H21529581H25982357H29776150
643H32918019H35611762H37923004H39391757H38808015H34198393H23225487
636H04538243G80018383G55905876G40174307G37529203G46904669G63199126
629G80773708G95824630H06634320H12932979H15731183H17228720H19872887
622H24903286H31589816H37612683H39842629H35296008H22960683H05734012
615G89711726G79947390G76558576G75345074G71474292G61952157G46009856
608G25421468G04919434F90805347F87657547F95821072G11903049G31504339
601G51579790G70887491G89193733H06546781H22967052H38342033H52513564
594H65513801H77724810H89828049I02555054I16417324I31591376I47802352
587I63882955I76911665I81272031I69083500I34211129H78891233H16259542
580G63390564G30083789G14255814G07035804G00821500F93339434F86681626
573F83839839F85735487F90794545F96604245G01432341G04552980G05991637
566G06228905G05978587G06091165G07352308G10134277G14362584G19795839
559G26129339G32994695G40122420G47439210G54980031G62763489G70724837
552G78790271G86899724G94914456H02748991H09411420H09887080G95435572
545G63134502G25067439G01070881G00515299G16052059G34794187G49439693
538G58585134G62953679G64306420G65357143G68394176G73862022G80536003
531G86975524G92608459G97572048H02133467H06470855H10606377H14409412
524H17794293H20846249H23730806H26555547H29247105H31609672H33614401
517H35460910H37299676H39148869H41028159H42924494H44752832H46514674
510H48412320H50735363H53640900H57040266H60710806H64478687H68250315
503H71771313H73896425H72078825H63879211H49970360H34700465H22466791
496H13647406H04320643G89759742G68546965G43873131G21025763G03882947
489F93887773F91299864F96097552G07530758G23519389G41140300G57921345
482G72611119G84890062G94842402H02805311H09327814H14992093H20210620
475H25142177H29789825H34149566H38204042H41897497H45237047H48313167
468H51208776H54023026H56870557H59689179H62210715H64305045H66217614
461H68281597H70499181H72616488H74506953H76211413H77772763H79350971
454H81280899H83582275H85188144H83448469H74998973H58946592H39969380
447H26634345H25125506H34836707H50064331H64952412H76686886H85286486
440H91750359H96882532I01228162I05159072I08818123I12264506I15620665
433I19035017I22644803I26480431I30346654I33978107I37238047I40037250
426I42245281I43653218I43609198I40002846I27896236I00625251H56527205
419H06142925G68381189G55989669G66770700G90004316H17279671H45153628
412H71801471H95221655I13530707I24136034I22336417I03229020H67670195
405H26188031G94178488G81375183G86268091H00343903H15902891H29680556
398H41522800H52001689H61556729H70616317H79389996H87592795H94960410
391I01890265I09078743I16698924I24319167I31472055I38126242I44760011
384I52094222I60692572I70783589I82179457I93351168I98947764I88100048
377I48992564H80277254G98403985G29660577F92522545F87798472G03901116
370G27983153G52195813G73629125G91865747H07157184H19848286H30393735
363H39390446H47461936H55003506H62044316H68452992H74190450H79275920
356H83609436H87055258H89811752H92416208H94987946H95916351H89563994
349H64846828H12069635G38778795F75634480F55531993F84531351G39291669
342G91738372H29384471H54110628H71413226H84631750H95034276I03285465
335I10157065I16346830I22156155I27621067I32739754I37423491I41522237
328I45138642I48630605I52066499I54894361I55719243I51027826I34264702
321H99075890H46200793G86517285G33442633F89543892F43980090E89537337
314E40714157E25501144E56202839F14809836F69994614G04130205G22405103
307G40030322G62785530G78891547G70722589G36987545G01750842F93886837
300G13298749G25681589F99593949F41195061E83030569E49206923E44293411
293E65362828F07479997F60208112G10757606G51812063G82781934H05750371
286H22970299H36445573H47699766H57691755H66942093H75592643H83511782
279H90641504H97240183I03629004I09962505I15612111I16202659I01965130
272H66272872H19490573G86881366G86258912H12134010H45738370H74052273
265H94710654I09658989I20848121I29980574I38472341I46225767I49017914
258I37854133I06236645H61206884H22899743H08287018H16661774H33300582
251H45079201H50211000H55106031H65392357H80703400H96570650I09496647
244I19202353I26825594I33076487I38434503I43637670I49352338I55683840
237I62171815I68072176I71926785I70346204I58202879I31667551H92167076
230H48202213H12705764G95972236G99187844H15211004H35376742H54439182
223H70568988H83551368H93729800I01690086I08125487I13637852I18654888
216I23545236I28470987I33141486I37149384I40433113I43169128I45574091
209I47953517I50419108I52755326I55086049I57720476I60556518I63071436
202I64925749I66302654I67558865I68872706I70482571I72880853I76070987
195I79014549I80674614I81169943I81325791I81533338I80857998I77099107
188I69147500I59394153I51045871I41281285I18908141H73108195H07439783
181G43180308G03737963F95502758G08456292G33447565G68774805H10664633
174H50093678H81008290I03752946I20222544I31415985I38807389I44136308
167I48465454I52426897I56289498I59874871I63188509I66627337I70283266
160I73705298I76459545I78515037I80101050I81562997I83503039I86594581
153I90206241I90863099I83390024I65899985I44235212I28896571I26418741
146I34828026I47603484I59765665I69454388I76689944I82110150I86165251
139I89189609I91695973I93888269I95492264I96562156I97730141I99554421
132A002122974A005045494A007557103A009041153A009589305A009901875A010791131
125A012667049A015140945A017040152A016268156A009198187I91744862I63625957
118I32309487I10504413I07134517I20694209I41885382I61703460I76305195
111I86231061I93304339I98113578I99871361I98330554I93664237I83688920
104I63271553I28661426H85030049H47129511H27166700H24116679H25506759
97H18486804H01690774G86924387G88043731H09241960H44179018H81246495
90I10966586I31645323I46134544I56271391I61607491I59660455I46778914
83I22609587H94300617H73772171H70677569H86048928I11577302I37295491
76I58722060I75506538I87351592I94004655I97466648A001456563A007546426
69A013166686A015490228A014039833A007969513I93531055I67402205I33504257
62I03919283H91769402I01577821I23326387I44282853I61436283I75747553
55I86747619I94638536A000941753A005956979A008764486A009570636A009567702
48A008169505A001457811I83040428I46901669H92496068H28052584G70771479
41G44351164G63764012H18465387H82140808I34005705I66712379I82978177
34I87931588I85423475I81263789I81324417I86031381I93262755A000177937
27A004967883A009030726A015006576A023364911A032246921A039608730A044724670
20A047552657A048920069A044897750A039451259A039037226A043570609A049909604
13A055738410A059526335A059518715A054319047A046845723A045783885A054495999
6A065801205A072907138A073741823A067411382A055508635A047552657
##END=


$$ === CHEMSPECTRA PEAK TABLE EDIT ===
##TITLE=S. Graessle SG-V2446 10-19
##JCAMP-DX=5.00
##DATA TYPE=INFRAREDPEAKTABLE
##DATA CLASS=PEAKTABLE
##$CSTHRESHOLD=0.93
##MAXX=3997.4121
##MAXY=1.0250003329996469
##MINX=373.82813
##MINY=0.5016465187942069
##$CSSOLVENTNAME=- - -
##$CSSOLVENTVALUE=0
##$CSSOLVENTX=0
##NPOINTS=37
##PEAKTABLE= (XY..XY)
430.4687547753024, 0.7105620500438258
458.78906716307426, 0.8512883771771419
485.69336393122285, 0.8311539878989356
506.93359822196135, 0.7512027020303027
512.5976606994918, 0.7867066852676401
536.6699262291162, 0.8659560073785761
581.98242604936, 0.8867301936111974
625.8789102500973, 0.6639310710282101
695.2636755998433, 0.7598398325204042
732.0800817037903, 0.7715955966905571
753.3203159945288, 0.7505674356357265
788.7207064790932, 0.5195857286863954
798.6328158147712, 0.6623885032268801
815.6250032473617, 0.5016465187942069
860.9375030676042, 0.6257747409331583
899.1699247909337, 0.6565765137721085
943.0664089917932, 0.7459053988741389
962.8906276631492, 0.7216722361659306
1003.9550806252437, 0.7876697175243608
1063.4277366393121, 0.6599189634085908
1139.8925800859706, 0.6687160724914291
1172.46093933177, 0.6739313597227927
1183.7890642868306, 0.6527975791564421
1229.1015641070726, 0.6564419859286047
1267.333985830402, 0.7040497654825578
1297.070313837436, 0.7493444078570697
1315.4785168894095, 0.6926490059007266
1370.70312604533, 0.6204693312632672
1407.519532149277, 0.6319832202416269
1424.5117195818675, 0.587266802737755
1445.751953872606, 0.7622960804054457
1469.82421940211, 0.6238720413549492
1532.128906654943, 0.7821820964891574
1544.8730472293864, 0.6947249168193513
1554.7851565650644, 0.7751870151956471
1581.689453333333, 0.6750169987039135
1604.3457032434544, 0.5880950093139156
##END=


$$ === CHEMSPECTRA PEAK TABLE AUTO ===
##TITLE=S. Graessle SG-V2446 10-19
##JCAMP-DX=5.00
##DATA TYPE=INFRAREDPEAKTABLE
##DATA CLASS=PEAKTABLE
##$CSTHRESHOLD=0.93
##MAXX=3997.4121
##MAXY=1.0250003329996469
##MINX=373.82813
##MINY=0.5016465187942069
##NPOINTS=171
##PEAKTABLE= (XY..XY)
3515.9667894099257, 0.9523420323033407
3507.47069569363, 0.9515834441845077
3498.9746019773347, 0.9501913776480428
3491.894523880422, 0.9505231375814821
3486.2304614028917, 0.9513844241176279
3473.4863208284487, 0.9467278114270483
3464.990227112153, 0.9458671797505841
3455.078117776475, 0.9470034834878952
3443.7499928214147, 0.944831013222822
3426.7578053888237, 0.943455158759206
3412.5976491949978, 0.9412863847283713
3404.1015554787027, 0.9395809162854917
3385.6933524267292, 0.9373394241918098
3378.6132743298162, 0.9377095688304985
3368.7011649941383, 0.9361794586368161
3351.7089775615473, 0.9347631928395187
3344.6288994646347, 0.9341474166346235
3338.9648369871043, 0.9334915269331036
3331.8847588901913, 0.9332636586744147
3323.388665173896, 0.9335645428330072
3314.8925714576008, 0.9323515880563348
3307.8124933606878, 0.9317930929814695
3297.9003840250098, 0.9297851318689717
3282.3242122118013, 0.9287154071236434
3272.4121028761233, 0.9288456430587959
3256.8359310629153, 0.9263893359881855
3251.171868585385, 0.9267540565558663
3241.259759249707, 0.9262381187688579
3225.683587436499, 0.9261292211405057
3201.611321906995, 0.9253129356834487
3190.2831969519343, 0.9224646082241994
3178.955071996874, 0.9230808607774635
3166.210931422431, 0.9233505722787587
3152.050775228605, 0.9202631704415736
3144.970697131692, 0.9217358229031255
3137.890619034779, 0.9205475446902607
3130.8105409378663, 0.9187977309825798
3120.8984316021883, 0.9179067008342439
3113.8183535052754, 0.9180541034481953
3102.490228550215, 0.9166870113125942
3077.0019474013284, 0.910063981005855
3055.76171311059, 0.9081438178663965
3044.4335881555294, 0.9075551028309721
3017.5292913872604, 0.9026735420213047
3009.033197670965, 0.9017093766473213
2993.457025857757, 0.9001953000151751
2979.296869663931, 0.8981422175432386
2908.4960886948024, 0.851099192415365
2902.832026217272, 0.8507098544694456
2871.679682590856, 0.8588439219429864
2853.271479538882, 0.8585851779094508
2847.607417061352, 0.8585847607466506
2837.695307725674, 0.8612082002269871
2816.4550734349355, 0.8565937276614642
2798.046870382962, 0.8585497133438024
2778.222651711606, 0.8636165851243016
2747.0703080851895, 0.8706511250547551
2731.494136271981, 0.8683980698192008
2724.414058175068, 0.8688478467316325
2718.749995697538, 0.8689236042598245
2704.589839503712, 0.8692128059508007
2691.845698929269, 0.8688116662115215
2673.437495877296, 0.867515265510336
2664.941402161, 0.867674051800241
2649.365230347792, 0.8637863388819663
2638.037105392731, 0.8635739085107009
2625.292964818288, 0.8645949951282708
2604.05273052755, 0.8652143472870546
2585.644527475576, 0.8686192033329123
2575.732418139898, 0.8674129833012172
2562.988277565455, 0.8654993172098545
2553.076168229777, 0.8637607086668148
2538.916012035951, 0.8627772917546378
2531.8359339390386, 0.8625996109491643
2524.7558558421256, 0.8625322577717561
2517.675777745213, 0.8646268245544616
2503.515621551387, 0.8634142277550205
2495.0195278350916, 0.8632279631328447
2487.939449738179, 0.862044512362269
2470.947262305588, 0.8633335225041897
2449.707028014849, 0.8612353797675955
2434.130856201641, 0.8596947784545226
2415.7226531496676, 0.8579447260953541
2405.8105438139896, 0.8596490022354022
2397.314450097694, 0.8588155500995465
2390.234372000781, 0.8585935822602345
2383.1542939038686, 0.8583837741915138
2364.746090851895, 0.8577219840706168
2349.169919038687, 0.8525807847616387
2337.841794083626, 0.8568347093420882
2323.6816378898, 0.8533541549536073
2308.105466076592, 0.8503194445010444
2298.193356740914, 0.8498633500064354
2282.617184927706, 0.851826964899526
2272.705075592028, 0.8515358559058616
2262.79296625635, 0.851853846603078
2245.800778823759, 0.8531166308557343
2235.888669488081, 0.8521807781396221
2221.728513294255, 0.8523207892397027
2197.6562477647517, 0.8511520613566939
2183.496091570926, 0.8499460217455234
2169.3359353771, 0.8428918713450391
2150.9277323251267, 0.8539355386153359
2122.6074199374752, 0.8457940213969612
2112.6953106017972, 0.8479316819560677
2105.6152325048843, 0.8453937761234571
2098.5351544079717, 0.8496809591752047
2082.9589825947633, 0.846629917324049
2075.8789044978503, 0.8477824923197779
2064.55077954279, 0.8481855384071393
2057.4707014458772, 0.8499876845676051
2044.726560871434, 0.8525639168745022
2031.9824202969908, 0.8514634958202456
2023.4863265806953, 0.8539697516925838
2005.078123528722, 0.8490235802884026
1988.085936096131, 0.8497928370833328
1981.0058579992183, 0.8512207261626773
1969.6777330441575, 0.8521515719705818
1962.5976549472448, 0.854548393726024
1947.0214831340363, 0.8475288745201938
1928.6132800820633, 0.8513947126431243
1910.2050770300898, 0.8460060355600325
1894.6289052168813, 0.8445894709710727
1873.3886709261428, 0.8443937299756312
1862.0605459710823, 0.8409256933349728
1849.3164053966389, 0.8465000975970907
1822.4121086283703, 0.8538143036596859
1813.9160149120748, 0.8555099959830316
1796.9238274794839, 0.8565415135798171
1789.8437493825709, 0.8577420708890168
1765.7714838530674, 0.8649083368945106
1755.8593745173894, 0.865682839249136
1720.458984032825, 0.8628098953662541
1604.3457032434544, 0.5880950093139156
1581.689453333333, 0.6750169987039135
1554.7851565650644, 0.7751870151956471
1544.8730472293864, 0.6947249168193513
1532.128906654943, 0.7821820964891574
1469.82421940211, 0.6238720413549492
1445.751953872606, 0.7622960804054457
1424.5117195818675, 0.587266802737755
1407.519532149277, 0.6319832202416269
1370.70312604533, 0.6204693312632672
1315.4785168894095, 0.6926490059007266
1297.070313837436, 0.7493444078570697
1267.333985830402, 0.7040497654825578
1229.1015641070726, 0.6564419859286047
1183.7890642868306, 0.6527975791564421
1172.46093933177, 0.6739313597227927
1139.8925800859706, 0.6687160724914291
1063.4277366393121, 0.6599189634085908
1003.9550806252437, 0.7876697175243608
962.8906276631492, 0.7216722361659306
943.0664089917932, 0.7459053988741389
899.1699247909337, 0.6565765137721085
860.9375030676042, 0.6257747409331583
815.6250032473617, 0.5016465187942069
798.6328158147712, 0.6623885032268801
788.7207064790932, 0.5195857286863954
753.3203159945288, 0.7505674356357265
732.0800817037903, 0.7715955966905571
695.2636755998433, 0.7598398325204042
625.8789102500973, 0.6639310710282101
580.5664104298548, 0.8843648423501089
536.6699262289953, 0.8659560073785761
512.5976606994918, 0.7867066852676401
506.93359822196135, 0.7512027020303027
485.69336393122285, 0.8311539878989356
458.78906716295387, 0.8512883771771419
430.4687547753024, 0.7105620500438258
417.7246142008594, 0.9367202514989446
##END=

##END=

