##TITLE=RB-502-2
##JCAMP-DX=4.24
##DATA TYPE=INFRARED SPECTRUM
##DATE=7/2/2019
##SAMPLING PROCEDURE=Diamant-ATR
##ORIGIN=Angelika Moesle
##XUNITS=1/CM
##YUNITS=TRANSMITTANCE
##RESOLUTION=4
##FIRSTX=3997.453
##LASTX=373.96442
##DELTAX=-1.4165319
##MAXY=0.95754087
##MINY=0.44315606
##XFACTOR=1
##YFACTOR=8.9177943e-010
##NPOINTS=2559
##FIRSTY=0.9268744
##XYDATA=(X++(Y..Y))
3997+1039353868+1038978774+1038626204+1038434046+1038295156+1038177789
3989+1038330113+1038880389+1039513477+1039779559+1039547966+1039082440
3980+1038820769+1039044208+1039613868+1040068566+1040093162+1039847332
3972+1039719204+1039822736+1039941240+1039975995+1040158864+1040662755
3963+1041196789+1041203807+1040476277+1039507529+1039092064+1039522233
3955+1040270283+1040555346+1040074648+1039150080+1038446076+1038534570
3946+1039365164+1040258720+1040605809+1040414519+1040064155+1039766124
3938+1039552845+1039481930+1039497302+1039381205+1039145602+1039197468
3929+1039762448+1040489043+1040887129+1040824302+1040536899+1040311455
3921+1040235393+1040236463+1040243280+1040298755+1040526940+1040898559
3912+1041098471+1040821561+1040212468+1039761513+1039721209+1039965569
3904+1040369403+1040900163+1041276326+1041122800+1040507958+1039890911
3895+1039635323+1039835970+1040337455+1040756929+1040817618+1040643505
3887+1040461305+1040320545+1040197630+1040121034+1040051723+1039802484
3878+1039271591+1038697119+1038485043+1038827052+1039388023+1039550773
3870+1039134506+1038702667+1038948563+1040002463+1041401981+1042371264
3861+1042546981+1042253964+1041858016+1041454316+1041171391+1041363683
3853+1042018695+1042339115+1042117548+1041874124+1041932273+1042195548
3844+1042317460+1042133589+1042043625+1042686071+1044007255+1044982821
3836+1044975402+1044683654+1044814122+1045001936+1044552519+1043697929
3827+1043358326+1043850587+1044508740+1044651706+1044241856+1043558973
3819+1042750970+1041988618+1041680495+1042071831+1042707593+1042978487
3810+1042782518+1042431352+1042194746+1041860289+1041083833+1040176576
3802+1040005270+1041009977+1042458688+1043523082+1044134448+1044529326
3793+1044776693+1044673027+1044006587+1042978420+1042192807+1042075173
3785+1042507146+1043071725+1043476028+1043686099+1043835014+1044050165
3776+1044243327+1044179831+1043732150+1042994862+1042271074+1041959142
3768+1042195213+1042659001+1042954960+1043034898+1043140903+1043444881
3759+1043868433+1044174751+1044200684+1044036731+1044026772+1044548508
3751+1045416198+1045820567+1045722181+1046026561+1047163941+1048228134
3742+1047998212+1046833361+1045722783+1045109880+1044945793+1045050795
3734+1045402696+1045860135+1046040998+1045911132+1045881322+1046189712
3725+1046518889+1046440622+1046080098+1045947091+1046280679+1046780827
3717+1046950060+1046609922+1045981847+1045393473+1045118301+1045328506
3708+1045860469+1046243316+1046167455+1045746911+1045340337+1045260064
3700+1045553549+1045982248+1046277069+1046345378+1046203748+1045816891
3691+1045159473+1044386560+1043794510+1043601081+1043852124+1044456807
3683+1045188147+1045727261+1045776855+1045272964+1044632256+1044682251
3674+1045698922+1046870322+1047587827+1047761271+1047424743+1046951397
3666+1046805557+1047004199+1047217813+1047257447+1047314393+1047670572
3657+1048278062+1048644333+1048306668+1047424141+1046546961+1046158967
3649+1046347450+1046662925+1046803952+1046935690+1047223427+1047674984
3640+1048175265+1048520282+1048589927+1048470288+1048213296+1047665092
3632+1046764518+1045849909+1045496537+1045900906+1046570421+1047034677
3623+1047186399+1047125042+1047061546+1047155787+1047363853+1047549796
3615+1047618974+1047499735+1047227838+1047027525+1047107129+1047446866
3606+1047879574+1048271378+1048483923+1048369028+1048024078+1047855179
3598+1048147728+1048798261+1049536886+1050165697+1050614380+1050872441
3589+1050835279+1050363471+1049626850+1049005793+1048543542+1048158355
3581+1048042057+1048357398+1048860688+1049214795+1049392583+1049489432
3572+1049425468+1049060399+1048443753+1047834860+1047458763+1047308177
3564+1047410239+1047932042+1048678153+1048951052+1048365152+1047486234
3555+1047177242+1047613426+1048236155+1048506447+1048420828+1048239029
3547+1048080957+1047979631+1048042258+1048301188+1048552498+1048563927
3538+1048343362+1048053954+1047707734+1047161936+1046481593+1046097409
3530+1046419568+1047324753+1048199461+1048621809+1048767917+1048985140
3521+1049293864+1049542835+1049675575+1049583071+1049083792+1048266967
3513+1047510228+1047054862+1046840179+1046670143+1046322787+1045690032
3504+1044991710+1044668215+1044905088+1045458305+1046047548+1046665932
3496+1047360311+1047897688+1047911924+1047369134+1046576570+1045784809
3488+1045102126+1044687331+1044643619+1044810245+1044938574+1044981484
3479+1044987900+1044871803+1044525516+1044088530+1043857672+1043923240
3471+1044088062+1044094278+1043751533+1042998271+1042025245+1041207082
3462+1040829582+1040966600+1041445226+1041793986+1041540069+1040752718
3454+1039980741+1039605981+1039550773+1039574166+1039530053+1039326398
3445+1038806065+1037834510+1036571274+1035478074+1034863900+1034615598
3437+1034518749+1034515809+1034503911+1034209357+1033469528+1032469032
3428+1031571667+1030965314+1030483012+1029780078+1028731258+1027571420
3420+1026543119+1025586602+1024577150+1023600582+1022688913+1021582412
3411+1020074750+1018310631+1016523653+1014839940+1013442293+1012539648
3403+1012085819+1011757177+1011188119+1010194708+1008913493+1007657475
3394+1006546295+1005422283+1004066944+1002335843+1000311658+998460516+997246206
3384+996465005+995406226+993759006+991921900+990365179+989073738+987759170
3374+986341272+984945630+983583340+982166377+980754293+979435181+978039874
3364+976311112+974267611+972140228+970041585+967931513+965848444+963980660
3354+962413445+960906786+959137453+957162594+955369334+953919955+952514354
3344+950784590+948697845+946514652+944498955+942658240+940701695+938341182
3335+935630572+932842630+930110364+927427893+924858244+922442255+920035624
3325+917495784+914899066+912427936+910180913+908122373+906013037+903464508
3315+900329879+896914797+893580189+890365220+887189285+884083997+881018745
3305+877802506+874282757+870418926+866215960+861820634+857572819+853756176
3295+850352323+847102933+843739250+840167033+836498101+832952953+829723547
3285+826822449+824004899+820995657+817878873+815107173+813085728+811820086
3275+810929806+810029031+809132468+808524177+808270193+808251278+808602511
3265+809630009+811342596+813449995+815673022+817793855+819650678+821305517
3255+823040629+825096027+827501589+830147433+832913051+835703867+838413006
3245+840944357+843342701+845848386+848715932+851964453+855353735+858612884
3235+861637298+864477306+867244995+870064150+872949876+875703128+878074002
3225+880068110+881969848+884072033+886455271+888967506+891326215+893336364
3216+895113383+897031831+899328380+901810004+904081088+906005751+907808837
3206+909779685+911977649+914181561+916093058+917637481+918966819+920166158
3196+921167523+921964164+922641298+923236289+923806416+924532209+925585841
3186+927002804+928675288+930323844+931637142+932657355+933801954+935341698
3176+937120321+938898342+940640538+942390153+944156946+945983692+947934823
3166+950027317+952244396+954489681+956487532+957982227+959119474+960336859
3156+961725483+962839269+963395895+963826732+964762663+966253749+967874300
3146+969359170+970738370+972040038+973261634+974545923+976078516+977800728
3136+979383048+980558726+981411778+982170454+982781754+983043023+983132452
3126+983544909+984472418+985700430+987062787+988490644+989709166+990428141
3116+990797754+991237948+991845371+992334023+992557194+992769538+993297892
3106+994147802+995009209+995568040+995794019+995936317+996211087+996536321
3097+996685302+996604428+996372367+995944672+995193213+994179082+993172437
3087+992460814+992318650+993035152+994680767+996876459+999076962+1001094463
3077+1003076741+1004987502+1006427190+1007009549+1006702629+1005829058
3068+1004923605+1004511750+1004825688+1005731408+1006908356+1007999618
3060+1008739848+1009212859+1009828369+1010750197+1011541157+1011723023
3051+1011454735+1011241723+1011152027+1010764969+1009827434+1008602830
3043+1007610622+1007294078+1007795161+1008732897+1009307702+1008888896
3034+1007409507+1005046988+1001734837+997174555+991158745+983795150+975622749
3024+967669041+961236764+957350075+956167646+956841171+957976145+958275311
3014+956941829+953929379+950124833+947095340+946176720+947613534+950688343
3004+954652765+959276075+964469579+969815005+974746504+978926077+982209020
2995+984502695+985854024+986439457+986311261+985327876+983458554+981061748
2985+978773286+977139968+976403148+976544176+977298240+978047961+977991149
2975+976658401+974178248+971067547+968048881+966015138+965742773+967473808
2965+970890092+975376785+980148141+984388403+987629037+989893905+991363002
2955+992179895+992711189+993539377+994876335+996301653+997355552+998124188
2945+999007384+1000159201+1001376920+1002393257+1003125934+1003642791
2936+1003914821+1003700606+1002780181+1001190042+999082576+996477837+993315671
2927+989687577+985900476+982261688+978773352+975139644+971327947+968206618
2917+967322821+969670434+974652196+980500644+985735587+989973242+993456832
2907+996381056+998816628+1000838207+1002501601+1003869973+1005081075+1006236502
2897+1007245887+1007866544+1007894081+1007285322+1006005510+1003741043
2888+1000074517+995267136+990697163+988061946+987982476+989583510+991570801
2878+993448010+995472729+997829834+1000404630+1003133286+1005982986+1008644537
2868+1010675807+1011914914+1012523473+1012751123+1012832331+1012972356
2860+1013257286+1013609388+1013922657+1014215140+1014556481+1014865940
2851+1014945945+1014766953+1014586758+1014724645+1015329461+1016343859
2843+1017513723+1018440764+1018855226+1018914110+1019048254+1019468062
2834+1019970215+1020266374+1020340965+1020413284+1020660450+1021070501
2826+1021528206+1021962318+1022340086+1022601823+1022734831+1022880804
2817+1023198685+1023621569+1023877424+1023771553+1023375137+1022961144
2809+1022795586+1022950784+1023287045+1023609070+1023816267+1023893398
2800+1023836853+1023674437+1023496582+1023360968+1023200223+1022927457
2792+1022604898+1022384132+1022280934+1022139639+1021854375+1021521723
2783+1021328829+1021352690+1021487302+1021558818+1021543512+1021625790
2775+1021932442+1022309073+1022544543+1022696332+1022962480+1023389909
2766+1023938848+1024644589+1025476587+1026171367+1026438652+1026314734
2758+1026185269+1026393001+1026852311+1027145395+1027044203+1026803987
2749+1026838810+1027200135+1027551235+1027634047+1027529713+1027385477
2741+1027154819+1026778455+1026425017+1026378564+1026790152+1027549497
2732+1028307238+1028707731+1028690620+1028474801+1028270344+1028160462
2724+1028191475+1028364919+1028556209+1028580471+1028401145+1028241737
2715+1028414446+1028954296+1029497086+1029634505+1029351313+1028991457
2707+1028858450+1028971540+1029181678+1029355256+1029416212+1029340685
2698+1029172187+1028961046+1028697304+1028380559+1028111938+1028007069
2690+1028049378+1028127377+1028190004+1028265264+1028315459+1028205110
2681+1027886627+1027498032+1027195590+1027026424+1026995411+1027066393
2673+1027101215+1026988393+1026761144+1026446338+1025951738+1025240583
2664+1024428837+1023630725+1022919370+1022459191+1022426574+1022738707
2656+1023058994+1023169009+1023192202+1023355220+1023687738+1024099593
2647+1024598939+1025256223+1026044442+1026827915+1027461271+1027923655
2639+1028407495+1029120588+1029922442+1030405680+1030457212+1030459217
2630+1030794476+1031412459+1032017008+1032463284+1032819597+1033168691
2622+1033511837+1033831723+1034126077+1034388750+1034668399+1035103380
2614+1035767415+1036508313+1037055715+1037257833+1037204295+1037204897
2605+1037566824+1038204391+1038599135+1038388596+1037833240+1037451261
2597+1037393580+1037404475+1037218265+1036809952+1036344961+1035987378
2588+1035798160+1035799363+1035983101+1036169244+1036091712+1035731456
2580+1035351082+1035140008+1035028656+1034821258+1034370971+1033686952
2571+1032949329+1032362961+1032041604+1032034653+1032304010+1032670816
2563+1032941309+1033037221+1032940841+1032670415+1032327202+1032019548
2554+1031832268+1031936869+1032470636+1033253442+1033926900+1034334277
2546+1034471495+1034238431+1033621785+1032940039+1032542420+1032414626
2537+1032375392+1032487747+1032963232+1033742561+1034457593+1034784229
2529+1034682435+1034399176+1034368832+1034916301+1035907774+1036846312
2520+1037362567+1037451662+1037327544+1037262712+1037439765+1037764998
2512+1037965779+1037945260+1037878690+1037963975+1038248905+1038672924
2503+1039189514+1039814114+1040488040+1040953566+1040946749+1040455089
2495+1039672351+1038878985+1038418740+1038435850+1038615042+1038547536
2486+1038293686+1038227650+1038482971+1038872368+1039219457+1039501981
2478+1039716063+1039770603+1039617878+1039416429+1039379200+1039448578
2469+1039317174+1038778261+1037943322+1037153298+1036662708+1036350174
2461+1035914057+1035385236+1035092954+1035110733+1035161596+1035080655
2452+1034990358+1035063879+1035338449+1035672104+1035857378+1035915527
2444+1036126601+1036597474+1037049165+1037207437+1037161118+1037180702
2435+1037368249+1037623168+1037839656+1038023661+1038281989+1038750790
2427+1039455462+1040219887+1040888332+1041631570+1042749834+1044145543
2418+1045299632+1045826916+1045825914+1045664300+1045612968+1045703667
2410+1045828053+1045888340+1045829456+1045587503+1045128995+1044549377
2401+1044062731+1043857672+1043933867+1044071821+1044042412+1043842032
2393+1043624408+1043449961+1043267961+1043084759+1042962044+1042901422
2384+1042891865+1043035232+1043492670+1044303882+1045280116+1046041867
2376+1046218319+1045788952+1045273499+1045373488+1046269249+1047362984
2367+1047894880+1047749708+1047460434+1047432229+1047452948+1047120096
2359+1046509264+1046112515+1046189245+1046463681+1046466889+1046007780
2350+1045287201+1044655783+1044341779+1044277748+1044175152+1043998098
2342+1044145008+1044878888+1045969281+1046973253+1047602064+1047836865
2333+1047800438+1047509760+1046953201+1046452185+1046475645+1047012487
2325+1047607544+1048037512+1048524560+1049187458+1049746356+1049987173
2316+1050093713+1050297635+1050480971+1050376036+1049990582+1049536485
2308+1049054718+1048455583+1047867410+1047647446+1047970340+1048509856
2299+1048667794+1048215903+1047571853+1047246085+1047273622+1047465447
2291+1047836197+1048414077+1049051911+1049739539+1050610503+1051420645
2282+1051591617+1050997027+1050216962+1049882305+1050148921+1050814827
2274+1051629313+1052455362+1053255144+1053972783+1054521388+1054893675
2265+1055132153+1055238358+1055258877+1055316558+1055417751+1055357329
2257+1054875762+1053872058+1052616174+1051703236+1051482270+1051679508
2248+1051908428+1052137214+1052257790+1051890649+1051242790+1051408013
2240+1052993875+1055007032+1055912284+1055437134+1054591969+1054184258
2231+1054117487+1054013621+1053723812+1053208558+1052619717+1052530355
2223+1053423509+1054860122+1055730285+1055505776+1054818817+1054651789
2214+1055413072+1056917793+1058607655+1059515381+1058926873+1057578686
2206+1057340209+1059158199+1062040783+1064422083+1065780295+1066463044
2197+1066663625+1066376356+1066016166+1066138012+1066503949+1066261662
2189+1065288436+1064614843+1065172338+1066600664+1067568209+1067024148
2180+1065094472+1062869439+1061410636+1061081593+1061690887+1062764370
2172+1063544301+1063235310+1061764208+1060229610+1060210361+1062309271
2163+1065470101+1068237590+1070477595+1072678499+1073741823+1071954444
2155+1068066552+1064804529+1063732182+1064074058+1064604216+1065447978
2146+1067213099+1069175793+1069736229+1068539029+1066843285+1065618548
2138+1064446211+1062680488+1060731897+1059592779+1059636157+1060370571
2129+1061081125+1061306836+1060858889+1059833195+1058710452+1058138320
2121+1058410016+1059237937+1059984315+1060006840+1058996719+1057210677
2112+1055347103+1054164942+1054106258+1054996472+1056121621+1056866529
2104+1057227320+1057586105+1058226546+1059137880+1060045940+1060621146
2095+1060773203+1060679696+1060570216+1060544283+1060437409+1059895956
2087+1058836508+1057745714+1057294425+1057731611+1058699491+1059508296
2078+1059639432+1059086215+1058245528+1057593925+1057466666+1057858269
2070+1058393306+1058660992+1058518093+1058067739+1057619925+1057613977
2061+1058278412+1059345679+1060155621+1060078557+1059081269+1057965945
2053+1057729473+1058577378+1059764953+1060460736+1060737645+1061400075
2044+1062665851+1063653514+1063599108+1062865763+1062225523+1062008701
2036+1062443281+1063781509+1065552044+1066580679+1066138079+1064612705
2027+1063150760+1062692987+1063076971+1063319592+1063040544+1062932267
2019+1063307628+1063150024+1061694630+1060041662+1059693236+1060397641
2010+1061019701+1061640290+1063086595+1065103161+1066641568+1067074143
2002+1066126850+1063934100+1061559417+1060080829+1059303972+1058665804
1993+1058805830+1060709439+1063682188+1065741663+1065748080+1064080942
1985+1061766881+1059706470+1058566951+1058949264+1061326487+1065167192
1976+1068254366+1068448865+1066279508+1064327908+1064411589+1066309718
1968+1068301487+1068303425+1065722949+1062357795+1060421034+1060149137
1959+1060217379+1059799375+1059148775+1058763521+1058826549+1059179186
1951+1059652599+1060460669+1061902094+1063655987+1064848308+1064832802
1942+1063716409+1062293764+1061464373+1061530409+1062020732+1062246376
1934+1062094989+1062081354+1062523286+1063034863+1063131978+1062903861
1925+1062642123+1062272109+1061698840+1061221217+1061046904+1060870051
1917+1060377188+1059801915+1059586563+1059847097+1060324587+1060644740
1908+1060645008+1060515208+1060602967+1061116081+1061990721+1062967156
1900+1063786588+1064319286+1064480900+1064164289+1063496445+1063027778
1891+1063272204+1064038901+1064548273+1064379641+1063842264+1063392579
1883+1063215459+1063292456+1063540692+1063841329+1064090300+1064246634
1874+1064307857+1064273101+1064134079+1063889987+1063591422+1063323669
1866+1063134050+1063056385+1063188256+1063648368+1064417872+1065216184
1857+1065628507+1065484003+1065046282+1064702535+1064558633+1064515656
1849+1064606288+1064965007+1065477587+1065744337+1065612065+1065411885
1840+1065366101+1065333351+1065155829+1064903516+1064754869+1064846503
1832+1065243253+1065785108+1066091025+1066092362+1066202911+1066679599
1823+1067214703+1067431859+1067406862+1067400579+1067427849+1067330533
1815+1067074210+1066724715+1066306777+1065861905+1065454795+1065043475
1806+1064543193+1064018850+1063627180+1063449993+1063493705+1063724296
1798+1064023997+1064292752+1064603080+1065082775+1065617612+1065902074
1789+1065878881+1065734311+1065604111+1065516152+1065489150+1065575772
1781+1065783437+1066029200+1066241410+1066412715+1066514643+1066472535
1772+1066299225+1066150176+1066107935+1066053662+1065842187+1065532260
1764+1065377263+1065534065+1065838578+1066046310+1066094768+1065916311
1755+1065416764+1064673460+1063831370+1062952452+1062159153+1061711205
1747+1061770825+1062291425+1063069819+1063840126+1064436787+1064875177
1738+1065245325+1065571628+1065783504+1065788249+1065665000+1065538342
1730+1065282353+1064753465+1064088963+1063554193+1063248744+1063103706
1721+1063017819+1062886683+1062593866+1062119050+1061617699+1061198358
1713+1060787706+1060264366+1059618779+1058981680+1058480463+1058103831
1704+1057740701+1057280121+1056655054+1055979857+1055517540+1055257273
1696+1054984240+1054685007+1054595043+1054958775+1055807148+1056831305
1687+1057713766+1058576175+1059714090+1060844519+1061456152+1061623380
1679+1061695164+1061918537+1062256335+1062470885+1062562252+1062832478
1670+1063474456+1064239281+1064699460+1064883465+1065157500+1065740727
1662+1066446736+1066975023+1067275726+1067406996+1067440415+1067582245
1653+1068039817+1068464705+1068505543+1068346402+1068260382+1068365852
1645+1068456016+1068334304+1068084665+1067884151+1067845586+1068001251
1636+1068268937+1068401610+1068237189+1067808758+1067161701+1066361050
1628+1065495165+1064617784+1063795277+1063046092+1062169780+1060924189
1619+1059150981+1056584139+1053200805+1049659601+1046307748+1042648107
1611+1037864319+1030944928+1020626363+1005429769+983822954+955513437+923866437
1601+896168820+879570502+876561460+884110264+895927201+905755176+909650354
1591+906144373+895420971+878621270+857357668+833937609+812177201+797221089
1581+793150128+801066674+821105806+852643258+887269824+913665372+931945732
1571+948272355+965312003+980404865+991268360+998721786+1003730349+1006583791
1561+1007172834+1003763032+993429629+975583648+948479753+909371306+859330121
1551+802585631+745563698+697337829+664024293+645359950+639314129+645571157
1541+666608112+701933668+737112115+762578750+784067395+808422650+834751561
1531+856786338+873157140+887311999+901624996+915549799+928049017+940084314
1521+952645691+964223749+973612399+981735407+989007034+994763312+998958458
1511+1002166142+1004716207+1006762249+1008360810+1008982603+1008305268
1503+1006680439+1004182708+1000667637+996347236+992089463+988816679+986206593
1493+982443754+974774375+960766493+942167383+925948436+917625851+917904765
1483+924899416+935802746+947736716+958952580+969150035+978410623+986417467
1473+992528454+996196851+997833243+998763225+1000263201+1003212890+1007603871
1463+1012127058+1015527301+1017746586+1019351698+1020727154+1021345338
1455+1020088051+1016219942+1009098567+998263345+984465266+970834416+961619277
1445+957518172+953811210+944332663+925973902+897737371+857840171+810069936
1435+769573735+746866100+740874820+749157370+769486511+797053794+827709388
1425+859829467+890892838+917563758+939681147+959211911+975420096+986213077
1415+992645354+996939554+1000047114+1002080589+1003113502+1003403512+1003449362
1405+1003807212+1004651843+1005671454+1006318178+1005990672+1004476928
1397+1002459894+1001304000+1002306501+1005711824+1010627550+1016104981
1388+1021583882+1026521263+1030370791+1032963165+1034397038+1034825335
1380+1034560924+1034037249+1033527009+1032955411+1031849111+1029468880
1371+1024894362+1016545910+1002000317+978618823+943189200+891465104+822774213
1361+746513597+677140291+623638241+589295268+575130718+579627369+598378201
1351+626322383+659674952+695691011+732146395+767384460+800208809+830000991
1341+856875968+880865419+901228380+917535486+930698471+942039522+952200885
1332+961193119+968891105+975297382+980459605+984201056+985995854+985140195
1322+980846129+971881298+956090314+930547217+892671461+842473808+785541438
1312+733308906+697067938+680016793+675385997+672112412+662750965+647070732
1302+629810719+616328583+609763700+610664741+618033016+630392342+646412980
1292+665187473+686186063+708938412+732643267+756048154+777925261+797814743
1282+816178651+833781008+850991962+867575241+882934920+896546521+908175777
1272+917672370+924680255+928675823+929189472+925871974+918415674+906561041
1262+890370233+870572853+848209167+823278972+793904661+757878844+716111386
1252+674927757+644364065+632968140+643026907+669899878+705377824+741780005
1242+773963647+799129645+815980009+824250327+824538198+818209186+807407850
1232+795025398+784234958+777508193+775806367+778790812+785780984+796318176
1222+810026091+826325710+844187933+861748783+875494527+878984534+863249494
1213+821775521+757757801+685942238+625786210+591942048+589227294+612955075
1203+651734211+691603340+721968924+740231639+749981080+755322897+759735868
1193+768901947+788670185+818684871+851835991+880893157+903152910+919107245
1183+929742021+935811101+938101301+937554700+935135704+931455477+926404538
1173+919092675+908150245+892359128+871283340+845329791+815181497+781235274
1163+743910997+705008077+668738369+640738378+625685685+625683881+639745635
1153+663266753+688376340+707147357+715835346+715335599+707757854+694662509
1143+678873464+665101386+656973499+654784826+657122347+663441333+674268201
1133+689785216+708948371+729809542+750551675+770319846+789103295+806930093
1123+823337656+837597183+849334583+858913119+867107309+874152557+879039341
1113+879974871+875652131+866077538+852563187+836921920+819138834+794699764
1103+756329074+701718918+639818622+587051119+555596278+545064400+545341643
1094+547123341+549607771+558560739+578538447+608257575+642469278+676250545
1084+707128776+734431648+757872828+776898698+790397276+796381806+793415808
1074+784186901+776514314+778202438+790785872+809580482+829017806+846360364
1064+861235602+873915015+884681260+893925005+902099144+909421835+915699115
1054+920425288+922755792+920963200+911927253+891924882+859393817+818350347
1044+779188096+754377809+751160234+767384727+794302948+823064824+848736183
1034+869878141+886534608+899243229+908888135+916447365+922652995+927954843
1024+932698327+937177133+941504618+945601847+949418758+953053402+956571146
1014+959866855+962819285+965453365+967867683+970096392+972123719+973987292
1004+975800671+977623139+979314271+980606715+981313726+981369803+980794329
994+979888409+979392071+980093467+982165776+985019085+987803551+990008867
984+991670055+993123244+994618207+996156214+997587680+998782006+999762919
975+1000722176+1001840174+1003094386+1004308764+1005352170+1006161176
966+1006530321+1006068672+1004684994+1003124798+1002621776+1003803937
958+1006121875+1008393026+1009586283+1008901261+1005544061+999336092+991853859
948+985997057+983212724+981193351+975504445+964476463+952424591+947022286
938+952656919+966742869+982821455+996059232+1005152525+1010759287+1013870925
928+1015190037+1014985914+1013363558+1010514327+1006388291+1000210532+990387035
918+975029897+953824978+930781550+914334486+912205767+925060629+946163820
908+967501211+985041275+998419611+1008104153+1014300091+1017550617+1019051930
898+1019972421+1020436744+1019243220+1014567509+1004840726+989506647+969864933
888+948493387+925752601+897139105+858053718+813059528+775385689+752418657
878+736684486+718634516+704120537+709962569+743786211+795720379+848988831
868+892689975+924593566+947022286+963067587+975401248+985827355+994637323
858+1000885796+1003394021+1000642038+989138170+962242541+913476221+845874587
849+778602596+738616368+740713674+773337710+802891749+797968404+759032733
839+722389201+725508591+770765588+830496126+879837586+913288808+935782026
829+951594732+962810128+971038739+977735226+983807515+989423099+994387951
819+998645524+1002220682+1005083883+1007257183+1008787436+1009814935+1010746922
809+1011956354+1013372114+1014669303+1015695599+1016639951+1017855465
800+1019384181+1020841447+1021945609+1022742584+1023228629+1023121153
792+1021818416+1018628512+1013806760+1009203435+1006820331+1006735179
783+1006969312+1004722223+996772793+979619988+952354879+921509131+900594289
773+900379272+919296530+945749693+968895516+984938010+995164740+1001971243
764+1006995112+1010915287+1013930878+1016159454+1017600077+1017975038
755+1016649108+1012731473+1004732783+989072468+961205217+923396433+890659374
745+881413690+899589516+931057724+958710560+975622147+983761330+986949897
735+987704564+987174005+985487084+982521019+978534674+973892249+968612057
725+962376617+954718601+945280424+934136277+921793126+908684747+894564042
715+878369291+858713408+834574106+805621007+772206078+735329816+696726931
705+659362686+627611485+604955717+589711066+573990998+550135757+520234162
696+497665349+496934611+522199329+565764793+615179038+660421398+696508572
686+722641179+740566764+753005895+762193229+769278579+774818637+779335808
676+783321284+787047161+790542582+793969894+798223257+804528475+812027016
666+818508486+824301993+830512435+837122434+843800473+850658708+857470357
656+863560691+869001495+874604514+880600540+886236243+890714782+894009956
646+896563498+898465503+899099928+896802643+887627875+864411805+819258340
636+750626867+669443976+594898087+541808459+514386917+511367248+531304787
626+570440369+619800878+668997967+711938029+747364644+776181461+799671032
616+818893138+834570430+847319154+857872988+866945829+874749686+880770442
606+884185858+884180310+879621566+868717568+849008214+817862698+774426900
596+722618588+672263666+636197746+624338902+638263171+670689032+710906520
586+750645582+785779915+815247198+839393785+858743552+873919092+885870172
577+895333547+902416691+906894361+908052394+903709536+889498333+859572876
567+809642842+741431780+665155190+597185212+553772339+544485183+568166545
557+613363989+664567619+710461246+746771057+772309209+785537227+787479803
547+785818882+791001892+806647102+826585375+841763522+846362169+837242675
537+813990379+783998752+762863813+763073818+782931753+809552544+830796295
527+841409282+840581695+828565648+806250820+776598797+746476235+726109263
517+723515352+738345274+763198872+790277570+814958726+835049992+849702927
507+859617189+866983325+874214181+882617440+891838394+900425524+907564611
497+913966009+920696784+927695111+933841723+938211316+940885833+942540138
487+943588222+944151799+944668657+945766402+947237637+947736047+945867194
477+941519590+936124236+931694088+929983840+932131542+937940956+945585472
467+952633259+957601051+960571660+962271548+963302790+964411296+966498442
458+969842542+973561803+976433559+978002645+978704977+979282256+979898033
448+980032912+979352168+978193734+977006025+975247186+970734894+960785074
438+945281025+929616232+922712882+929054660+944593397+961409874+973942979
428+980763584+982173395+978510947+971804100+966709316+967645380+974499337
418+980919918+982456120+982049411+983843741+989377850+997158514+1003582637
408+1005669783+1003543136+999649629+995841340+992734649+991462056+994103756
398+1001148736+1009192608+1014726650+1017598273+1018762923+1019209533
390+1020248461+1022487530+1025093539+1026904311+1027653630+1027650289
381+1027134568+1026077326+1023848216+1019764221+1014641164+1009508283
##END=
