##TITLE=X8426
##JCAMP-DX=5.0
##DATA TYPE=LINK
##BLOCKS=1


$$ === CHEMSPECTRA SPECTRUM ORIG ===
##TITLE=X8426
##JCAMP-DX=5.00
##DATA TYPE=INFRARED SPECTRUM
##DATA CLASS=XYDATA
##ORIGIN=ComPlat
##OWNER=
##XUNITS=1/CM
##YUNITS=TRANSMITTANCE
##XFACTOR=1
##YFACTOR=8.9383045e-010
##FIRSTX=3997.453
##LASTX=373.96442
##MAXX=3997.453
##MAXY=0.9597431368359104
##MINX=373.96442
##MINY=0.6364481409651913
##NPOINTS=2559
##XYDATA= (X++(Y..Y))
2559I89553631I89122916I89005484I89064900I88937865I88530824I88136452I88081370
2551I88365847I88643254I88551363I88080570I87538292I87139852I86877382I86823300
2543I87191199I87916793I88568567I88852443I88857445I88742747I88554097I88323702
2535I88061899I87785958I87717140I88114513I88807098I89299963I89379118I89195602
2527I88803964I88153256I87543160I87485944I87946801I88359845I88452536I88498282
2519I88725543I88923529I88793961I88299362I87643587I87140652I87035291I87303496
2511I87704936I88026156I88125049I87922128I87570434I87443133I87747814I88294361
2503I88692534I88814967I88933465I89172396I89246749I88934265I88439933I88119247
2495I88054697I88028423I87793560I87404523I87175728I87241612I87480943I87777556
2487I88062899I88251816I88338239I88484612I88886586I89617648I90552832I91214542
2479I91098911I90398790I89669862I89202737I89047496I89087240I89119248I89064033
2471I89012153I88956671I88863246I89013153I89537293I90013087I90003018I89572769
2463I89058232I88606244I88298895I88262818I88479410I88644254I88386585I87917860
2455I87636385I87605442I87838572I88338773I88978410I89500083I89657926I89362847
2447I88847109I88750816I89443268I90442335I91156260I91515623I91716943I91732481
2439I91349778I90588908I89761553I89027490I88287559I87700068I87721474I88314233
2431I89059232I89781559I90607713I91445404I91902059I91712742I91056100I90427065
2423I90071102I89774023I89278491I88673462I88392854I88736612I89687734I90908460
2415I91921598I92532961I92866784I93074040I93184202I93209076I93229081I93234949
2407I92987483I92274626I91330040I90764888I90825305I91208407I91656394I92164063
2399I92655861I92808969I92451406I91836042I91284761I90936068I90815435I90941736
2391I91331040I91900659I92413063I92633122I92524159I92279694I92205941I92400126
2383I92658528I92872386I92971279I92844978I92690337I92733548I92719011I92151059
2375I90856580I89498216I89061099I89560433I90324637I90972877I91468410I91880587
2367I92224212I92322105I92014823I91589642I91595777I92150126I92850513I93366718
2359I93733949I94111450I94450141I94445140I93942739I93198273I92645992I92529094
2351I92715877I92943871I93225613I93668599I94139191I94496754I94783497I94961945
2343I94806903I94366519I94176535I94355516I94388991I94031496I93355715I92479747
2335I91636788I91176265I91287895I91893924I92694138I93288897I93411130I93038830
2327I92687670I92878921I93326040I93572573I93633123I93822306I94201275I94422267
2319I94150861I93468745I92780294I92298432I91923865I91484814I90976478I90771624
2311I91145390I91921665I92837243I93761223I94584577I95007424I94705743I93833910
2303I93074173I92938870I93206142I93309636I93145259I93253154I93775094I94262091
2295I94534564I94688405I94795033I94893193I95123855I95502156I95728150I95492687
2287I94792366I93908396I93304501I93540364I94715279I96160932I97212747I97699811
2279I97718482I97423403I96986686I96511626I96001956I95536098I95345981I95542633
2271I95859452I95815840I95420667I95369454I95843314I96239020I96160665I95949876
2263I96153263I96786566I97485287I98041969I98455413I98712615I98710881I98305773
2255I97582646I97053704I97020029I97207879I97344115I97524164I97930339I98423471
2247I98707213I98725218I98625258I98454145I98165602I97889995I97898130I98212614
2239I98516296I98657000I98835181I99141196I99375926I99412269I99341050I99160001
2231I98751759I98256626I98040902I98237288I98608320I98895931I99034901I99091916
2223I99245824I99723552A000585649A001622393A002495627A002951349A002908671
2216A002476089A001927075A001552775A001451681A001515298A001597854A001644466
2209A001723354A001942412A002289372A002600789A002691279A002479023A002060844
2202A001761831A001978489A002760698A003637199A004097056A004148669A004197616
2195A004505898A004872396A004862060A004382265A003885199A003832718A004144202
2188A004490361A004881532A005474291A006053379A006250498A006122197A006062181
2181A006236295A006472024A006642070A006780040A006820318A006600592A006199685
2174A005936548A005989629A006280773A006642803A006842724A006660875A006207954
2167A005922677A006084721A006486028A006692750A006559981A006375665A006427079
2160A006572985A006507633A006255233A006047511A005950151A005971357A006214689
2153A006593657A006735628A006483027A006200285A006291443A006641536A006786175
2146A006505833A005977892A005385000A004695949A003818914A002698015A001331782
2139I99817844I98150731I95978017I93003154I89674797I87031023I85829368I86145719
2131I87634918I89787360I92032094I93933136I95400195I96614854I97711414I98591249
2123I99024365I98861455I98241355I97677605I97775031I98724751A000165204
2116A001544639A002509764A003034305A003357124A003745361A004233425A004657338
2109A004954418A005249497A005605126A005872264A005888268A005674811A005338254
2102A004960086A004738227A005021770A005955553A007188083A008147806A008592925
2095A008769973A009008703A009283176A009321653A009112998A009038311A009369200
2088A009870400A010116466A010055983A010023641A010241300A010555050A010675749
2081A010480764A010110064A009922014A010239632A010965160A011600329A011786446
2074A011625803A011380738A011135339A010910479A010859865A011162346A011795449
2067A012522843A013091395A013395944A013454293A013290782A012948357A012606799
2060A012478965A012486967A012284780A011781445A011374069A011422682A011744435
2053A011927617A011935419A012093195A012570123A013097730A013202692A012686087
2046A011860599A011280711A011209559A011401010A011474963A011442954A011678084
2039A012336127A013065255A013433954A013448558A013487035A013813655A014274645
2032A014467897A014177286A013528379A012708226A011793982A010974762A010598595
2025A010788579A011294848A011812053A012146409A012127071A011738100A011310386
2018A011236966A011517641A011806985A011829324A011564387A011147275A010785045
2011A010672548A010810852A010974162A010972962A010873669A010870001A011016240
2004A011136739A010933951A010231630A009258837A008626201A008793112A009554649
1997A010277709A010603463A010639739A010543047A010319921A010065386A010000235
1990A010173881A010387271A010485431A010557117A010764039A011067120A011217627
1983A011042247A010644007A010327723A010392340A010903677A011533445A011759172
1976A011414480A010916547A010760172A010926083A010985099A010681217A010208891
1969A009910144A009893673A010047914A010235965A010316320A010133337A009693685
1962A009275441A009240565A009722094A010463959A011001836A011116934A011039780
1955A011035579A010975763A010588059A009975428A009577655A009652475A010011371
1948A010284844A010322520A010229830A010086725A009813785A009393139A009059250
1941A009071787A009355863A009593793A009624801A009511571A009270640A008841125
1934A008289644A007775573A007343391A006940150A006557714A006216089A005915409
1927A005649004A005372063A005015168A004648603A004484092A004559446A004569849
1920A004164407A003290840A002166606A001065578A000193878I99659668I99490556
1913I99687209A000182141A000716151A000915871A000601054I99907268I98996958
1906I97751558I95909532I93520626I91128986I89381518I88506151I88206871I87944600
1898I87228476I85786756I83695264I81355304I79236204I77589829I76405847I75574624
1890I74980665I74450390I73789547I72989599I72288478I71953722I72054482I72395240
1882I72583824I72275075I71443919I70352360I69318684I68660307I68631633I69151172
1874I69782341I70145238I70143571I69769004I68999265I67970390I67036940I66547876
1866I66567814I66794141I66820415I66531605I66175776I66135032I66770002I68335754
1858I70768005I73567087I76080760I77986003I79482670I80932724I82292822I83116175
1850I83208000I82954065I82834967I82924924I82967736I82663454I81809359I80380643
1842I78603768I76927186I75830626I75523544I75804486I76292950I76720197I76930053
1834I76755473I76041082I74785613I73255537I71878902I70871833I70056414I69185915
1826I68245596I67262133I66114693I64753529I63381895I62240323I61370157I60690375
1818I60175837I59838881I59579278I59180771I58436105I57176702I55248252I52629352
1810I49539525I46281586I42992573I39656881I36334725I33258169I30691349I28825916
1802I27890599I28159404I29677611I32119997I35061851I38252171I41574194I44943428
1794I48274186I51430497I54269724I56793399I59111419I61230853I63026067I64440311
1786I65613426I66754197I67872497I68715189I69072284I69074485I69067350I69298745
1778I69874699I70880235I72346294I74104297I75848297I77406580I78850434I80274682
1770I81617241I82763281I83638648I84175459I84392383I84490543I84630514I84673659
1762I84341770I83542356I82393582I81014280I79382976I77352633I74782612I71679449
1754I68238595I64812211I61881694I59970182I59411433I60141295I61772998I63925841
1746I66435045I69227859I72103495I74763407I77060755I79134310I81208532I83287421
1738I85194465I86906056I88579837I90197737I91488682I92308301I92835309I93320972
1730I93848247I94365185I94798434I95129523I95431936I95821108I96336446I96882392
1722I97303638I97551771I97765695I98132060I98690342I99328913I99893931A000228354
1714A000255561A000110322A000043904A000141264A000289503A000415604A000560509
1707A000747559A000959950A001220219A001553242A001881396A002048974A001947881
1700A001609390A001198280A000929208A000935010A001157269A001381596A001461217
1693A001497093A001692345A002066579A002452949A002747628A003005363A003267167
1686A003419074A003330384A003089653A002965686A003105123A003398269A003642201
1679A003711486A003631864A003591854A003757498A004035572A004193548A004175143
1672A004092988A004011233A003917074A003796108A003657338A003577717A003673075
1665A003934679A004204951A004362993A004403538A004342855A004186279A004010166
1658A003982158A004232892A004673275A005014368A005042775A004814848A004528104
1651A004318181A004225890A004252497A004386200A004625864A004969489A005332986
1644A005558780A005600791A005624998A005788508A005995564A006032507A005870597
1637A005662074A005536241A005560247A005772704A006102458A006362462A006423211
1630A006324852A006196151A006123464A006108060A006135068A006230760A006397804
1623A006558581A006666676A006801379A007038976A007321585A007543311A007665477
1616A007679147A007584655A007463423A007427947A007468558A007515904A007639003
1609A007953354A008366131A008684483A008912077A009130869A009225561A009069386
1602A008860730A008918212A009260237A009681216A010083657A010450222A010650476
1595A010585258A010430684A010472828A010744968A010995901A010991567A010765706
1588A010576856A010636138A010918481A011260972A011530111A011644808A011631872
1581A011680885A011896542A012056052A011929351A011738633A011939154A012565387
1574A013075258A012938221A012247236A011590994A011382872A011571255A011945622
1567A012330859A012520643A012459893A012407612A012518575A012466562A011933085
1560A011236966A010980697A011211826A011386273A011130471A010662145A010394140
1553A010432017A010595728A010744367A010907344A011134604A011371535A011537846
1546A011638007A011698089A011662880A011468961A011180017A010981364A011039646
1539A011334859A011644675A011803918A011927351A012181885A012428218A012347863
1532A011865334A011232631A010778243A010721895A011071988A011554918A011817721
1525A011791581A011678017A011635206A011785312A012337194A013239835A013938089
1518A013976632A013570057A013214295A013169950A013577592A014476699A015464164
1511A015895146A015582995A014956161A014588663A014804654A015493238A016125607
1504A016200627A015727367A015054721A014383541A013778446A013463495A013651679
1497A014131607A014405480A014300852A014196424A014544651A015313190A016035583
1490A016353802A016341598A016280182A016313724A016412684A016473434A016349534
1483A015948160A015410149A015066924A015116137A015406548A015614804A015574260
1476A015378074A015207495A015130474A015070925A014965497A014938156A015179221
1469A015585263A015730502A015377607A014819658A014535849A014680821A015072926
1462A015526980A016014244A016549320A017046720A017303856A017111538A016451628
1455A015610269A014975433A014682888A014580527A014528046A014566924A014797585
1448A015210096A015616004A015791585A015750307A015708096A015712630A015635409
1441A015556522A015709629A016013177A016126207A015991638A015934156A016227101
1434A016818193A017430290A017795254A017860738A017791986A017718567A017566126
1427A017221167A016732569A016259977A015941425A015844732A015906082A015882542
1420A015505241A014678553A013425752A011748169A009730229A007686283A005930946
1413A004391268A002730490A000946213I99492356I98540902I97482019I95645928
1406I93273226I91301899I90427865I90653792I91435601I92196738I92986483
1399I94506356I97157532A000226953A002420140A002933344A001818379I99864857
1392I98162068I97229285I96846516I96817374I97145729I97740021I98449545
1385I99144931I99623459I99679407I99372125I99107054I99299572I99971618
1378A000802241A001538371A002195213A002844454A003497028A004283372A005406873
1371A006786042A008001500A008761770A009285510A010018440A011077657A012205225
1364A013187488A014001439A014596665A014939890A015268178A015903881A016821060
1357A017706163A018356071A018750710A018905684A018897214A018900216A019061459
1350A019389947A019738374A019850204A019586800A019204564A019243041A019985307
1343A021018783A021418423A020545990A018765113A017245107A016957697A017883144
1336A019163553A019966302A020134213A019992509A019828598A019832466A020215902
1329A020930293A021543924A021817130A022063596A022564463A022990777A022810062
1322A021976839A020852472A019740441A018901483A018721235A019360273A020475371
1315A021626412A022577067A023026587A022706435A021962902A021606140A022046591
1308A022984709A023877081A024530256A025261918A026327070A027282192A027360613
1301A026378551A024930096A023929095A023988444A024802329A025309131A024854943
1294A023836936A023143418A023538257A025281990A027668829A029347812A029489116
1287A028206106A026237313A024956903A025744514A028254786A030278527A030326674
1280A029281327A028564135A028009454A026842741A025506117A024846807A024541992
1273A023933230A023459169A023819066A024691432A025476309A026216174A026860546
1266A026753918A025723175A024720707A024575735A024903156A024950969A024822668
1259A024975242A025272321A025377883A025263919A024905356A024170826A023413691
1252A023552128A024963505A026673830A027295996A026729111A026275856A026892288
1245A027952838A028250385A027722177A027359013A027613214A027823070A027340475
1238A026463173A025794061A025271654A024503849A023590204A022985709A023002714
1231A023830402A025409425A027041261A027861814A027789661A027328738A026649956
1224A025606211A024423694A023721039A023872680A024633217A025449169A026089140
1217A026801330A027740248A028553999A028805066A028497051A027855146A026877284
1210A025629683A024826935A025323602A026859679A028167362A028578472A028615016
1203A028775058A028825005A028586408A028454906A028740382A029063135A028769324
1196A027782726A026853478A026875017A027989315A029463309A030322472A030073939
1189A028974312A027615481A026445235A025910025A026546862A028186568A029419564
1182A028987582A027503185A026475043A026281925A026409292A026834806A027850411
1175A029178966A030324073A031096946A031128021A030025059A028445704A027726778
1168A028351812A029704440A030885290A031251321A030861683A030458709A030379088
1161A030017724A028907694A027490115A026326470A025417293A024688432A024544727
1154A025409558A026918362A028247584A029162829A029996652A030931235A031968046
1147A033045134A033548402A032465179A029779060A027197903A026637486A028223644
1140A030459042A031851081A032106083A032043800A032503322A033410699A033893695
1133A033229517A031623821A030010322A029262656A029549799A030227514A030588744
1126A030644225A030751854A031024193A031768793A033378557A035114955A035540735
1119A034700044A033988520A033772262A032987852A031108349A029043263A027881953
1112A027670296A027758720A027862948A028254252A029025525A029765924A030001920
1105A029439770A028093876A026627484A025945235A026152890A026499583A026390087
1098A025942834A025598342A025529323A025434698A024948234A024316799A024319600
1091A025395287A027031125A028256520A028567470A028080339A027231712A026533792
1084A026325936A026622949A027158959A027583473A027750651A027878152A028240782
1077A028674097A028657027A028005186A027201504A026783659A026751184A026818935
1070A026925697A027276056A028023524A029109547A030298399A031291065A031871353
1063A032020193A031900561A031692906A031485917A031342545A031343479A031517325
1056A031852548A032379489A033036665A033521528A033526063A033098348A032593880
1049A032243253A032052269A032080543A032401029A032785731A032842413A032542466
1042A032268326A032262925A032341879A032287532A032277395A032544534A032963779
1035A033248389A033195975A032810338A032316273A031982917A031972514A032310604
1028A032811672A033150561A033192040A033085878A033001189A032941573A032914233
1021A032999722A033127490A033086279A032818207A032423168A031919033A031249587
1014A030497919A029915697A029718711A029910162A030316004A030795532A031347347
1007A031933103A032353816A032400428A031983717A031197907A030430635A030075873
1000A030009922A029901626A029708107A029630154A029763923A029946038A029995318
993A029900293A029723979A029498119A029289263A029249519A029461242A029765857
986A030036329A030386356A030858883A031226381A031243852A030981582A030811270
979A030931502A031199240A031458710A031644559A031689505A031585877A031518126
972A031717912A032080143A032289265A032240919A032071140A031940505A031829809
965A031547067A030956109A030051400A028906093A027975911A027950971A028646424
958A029388623A029831141A029990717A030071072A030231248A030449706A030579408
951A030469312A030040797A029497318A029242383A029213309A029009654A028469643
944A027794263A027296796A027108546A027132486A027227311A027396089A027776458
937A028405293A029021991A029536862A030201040A031021326A031751988A032387892
930A033119354A033972716A034733919A035269529A035822411A036764729A037836616
923A038558809A038779268A038647233A038552208A038863690A039494326A040109824
916A040678710A041451984A042411307A043262935A043905240A044498665A045273206
909A046211057A047023808A047425782A047283877A046669513A046130835A046253001
902A046566885A046724461A046942319A047574022A048491067A049251204A049576291
895A049300083A048397642A046949788A044990330A042611827A039889766A036476052
888A031800268A025637819A018718234A012480565A008287443A007378734A009924815
881A014218830A018683092A022817064A025986846A027207172A026294861A023266651
874A017313058A006812916I90396056I68528872I44096602I21657331I05498741
867H96742065H92472923H88462050H82128022H73548860H64852666H58271572
860H54537106H53341053H54769902H59736564H68954097H81682369H95646772
853I08429325I19220213I29291374I40587863I52379285I61737722I68480393
846I74174049I79295486I82840502I84222338I83859841I82332766I80031083
839I76459194I70042944I62580281I59911767I61536468I65220520I70386703
832I76844431I83989276I90737348I96455144A001368125A005672544A009222560
825A012546783A016477835A019923090A021777386A022187696A021097804A018413886
818A015033115A012184686A010698822A011305318A014013709A017630210A020887348
811A023057662A023730375A022656621A019697163A015179687A009638538A003070514
804I95342180I86131649I72205323I45776118I08351838H73382282H41139255
797H06775194G70628456G38321211G18215499G15469631G26151688G43711254
790G66272223G93809991H22476727H46737086H65702360H80998986H93682913
783I03924920I11049627I14265487I13582638I10210335I06930858I07672923
776I14227077I23676738I32841524I41136210I48860543I55411229I58984652
769I58359285I53304199I43314459I29405538I18750420I16499685I19297700
762I24083714I30138267I37441088I45562327I53065135I58111685I59106885
755I54731381I44459832I28215286I06325296H84214580H72228239H72742710
748H80628420H91214920I00608766I06245740I09235875I13186532I20553636
741I30591255I41482636I52269989I61228652I66286806I67615761I66498129
734I64237191I62339016I61865023I62759662I64470053I66637833I68924511
727I70954588I72660511I74211193I75677252I77015610I78332695I79851769
720I81577497I83346970I85161322I87139385I89188533I91013622I92510956
713I93762490I94816439I95702076I96483085I97266028I98229486I99541902
706A001177541A002995628A004913541A006792443A008363730A009436217A009995367
699A010072454A009663011A008811517A007768905A007008168A007000366A007885869
692A009336791A010748835A011573056A011480431A010259971A007749433A003959219
685I98977953I92654327I84806026I76069356I68180312I63043671I61723185
678I63842752I67531205I70461789I71270739I69968124I67284606I63857956
671I59731318I54134488I45608406I32781441I15672864H96367031H78412761
664H65498972H59676414H60224094H64679086H70834333H77677297H85062340
657H92927444I00856566I08263081I14812100I20594647I25964084I31217423
650I36409478I41465164I46342736I50955970I55065337I58424836I60993456
643I62914437I64339285I65285071I65597355I65024335I63370892I60725318
636I57644360I54943104I53026324I51539927I50047594I48883149I48840938
629I49996714I51311066I51589940I50546994I48716705I46570597I44022982
622I40715097I36574989I32101059I28199415I25740290I25133595I26163204
615I28142332I30293842I32190483I33987897I36238366I39404146I43536919
608I48365477I53549598I58791467I63781602I68121963I71428248I73625036
601I75062420I76203259I77300419I78483136I79941459I81784952I83831367
594I85709402I87158257I88184665I88940600I89491614I89789694I89924797
587I90268822I91207140I92785229I94712078I96602317I98109854I98970551
580I99088182I98531366I97381325I95651929I93408796I90893523I88448002
573I86298427I84395851I82433926I80091566I77411449I74966395I73541080
566I73651710I75394976I78472333I82085699I85104574I86846907I87692333
559I88508418I89191267I87978943I82925258I74455991I65751996I59963981
552I57937372I59319141I64350688I73045347I83625578I93353514A000570512
545A005177545A007724892A008746900A008637470A007692484A006332920A005296043
538A005355659A006807981A009374401A012553918A015880208A018906151A021246377
531A022743778A023391818A022996646A021097738A017399815A012340595A007255167
524A003826850A002959485A003984892A005231292A005638135A005710887A006764169
517A009445287A013179286A016765312A019079331A019356672A017496774A014504040
510A012307052A012569522A015498573A019911153A024358142A027974911A030415564
503A031399227A030424633A026809999A020335134A012331659A005851192A003886066
496A007103193A013601999A020795990A027142288A032316739A036536202A040044807
489A042972857A045432115A047631237A049746336A051722932A053382642A054656917
482A055560292A056070095A056218601A056177590A056129111A056119308A056092434
475A056005011A055913586A055970668A056311226A056917588A057597837A058030486
468A057688461A055753610A051588429A045791211A040561212A038344886A039971254
461A044308948A049489134A054083763A057455732A059651520A061105842A062213538
454A063077303A063641721A063879584A063649923A062477676A059770418A055304957
447A049385506A042769003A036832014A033446041A033829077A037326947A041807945
440A045408375A047659578A049094095A050316355A051658915A053353301A055541153
433A058022684A060257749A061793093A062584971A062794294A062430063A061339971
426A059392050A056471869A052499206A047790346A043378632A040562746A039831550
419A040416973A041164840A041605625A041831418A041651304A040329150A036909968
412A030772726A022783655A016170152A014903547A020188694A029060735A036923905
405A040980457A041060279A038234723A033831745A029622618A027658426A028978046
398A032637492A036461915A038812544A039709051A040512532A042577618A046093092
391A050145176A053667385A056091567A057280018A057254745A056009345A053300087
384A048532345A041011866A030451974A017279249A002336718I85870379I66607158
377I42923488I16519157H94473591H85193709H91109625I06298755I21572775
370I30556913I30507166I19613985H97088558H67349001H41473744H30434724
363H36179928H51297306H67110470H80048999H90906437I01036747I10515350
356I18724013I25493825I31452952I37372936I43181090I47402820I47821198
349I43862339I38869403I38614668I46260981I59521729I73437319I84715537
342I92679334I97731486A000478621A001673274A001940612A001673274A001365525
335A001606923A002532237A003599989A004251163A004727091A005896937A008233562
328A011338193A014477766A017092066A018740774A019073929A017935692A015142811
321A010224162A002979223I94640525I88007283I85613443I87578102I91582174
314I94883124I95985485I94669333I91293830I86534090I81364973I76683586
307I72865566I69873632I67545142I65525869I63414504I61520397I61134360
300I63549473I68969323I76578093I85343571I94416999A002990493A010328256
293A016202228A021031853A025330537A029152559A032212711A034381759A035885094
286A036981654A037609889A037545272A036791603A035528999A033749256A031232449
279A028044863A025071934A023692765A024357743A025661092A025431497A022493378
272A016776915A008132402I95693474I78057688I53730446I22317175H86322277
265H50860189H19760668G92342665G65902324G40835751G21297523G12045714
258G17073260G38961649G75392329H17545542H55398937H83939306I03314957
251I15628317I23128725I27567646I29717688I29671142I27542506I23480152
244I17454207I10128447I04350100I04796220I14646989I32408008I52772457
237I70334289I82128978I87545427I87079902I81454731I71255935I56973847
230I39435155I20317973I02253340H87751926H76871749H66507509H54820315
223H47175003H53624395H77777658I11562697I42827929I64883097I77866904
216I84409455I86392452I84868911I81361706I78008409I76228132I76989869
209I82519949I92930401A002732490A008930082A012488301A014117003A013125071
202A008975828A003362326A000008762A001835117A008534309A017169420A024754516
195A030056801A033428904A035414168A035623491A033108084A027773457A021154019
188A015718632A013281913A013798318A015620205A017139145A018222102A019902618
181A022858342A026667961A030716978A035076945A039362758A041038740A036602619
174A025407891A011969429A003516033A004393201A013211294A025328470A036859021
167A046164845A052788217A056215200A055594301A049987067A039210917A025289259
160A012893476A006938216A008992899A016575328A025861812A034385226A041276403
153A046270139A049417648A051091229A051589296A050997338A049705725A048844562
146A049733799A052611369A056137713A058613308A059704267A060455268A061803229
139A063754417A065798564A067546299A068857316A069764759A070571575A071695542
132A073040235A073741823A072892996A070420334A067107114A063931265A061521820
125A060083168A059424326A058586701A055705731A049517475A041478857A035137761
118A032641159A032810671A033485652A034250190A035164101A034425704A029646692
111A020619343A009370133I98919470I93027294I94682070A003585785A016469233
104A029319871A039238591A045328154A047841092A046960657A043354626A039007996
97A036003126A034456979A032607684A029026992A023985310A018874009A015238103
90A013881473A014060188A013591862A009986231A002088185I91335508I81532885
83I76366169I76396511I79211797I81949596I82697663I80603370I75934787
76I69209388I59637427I44783186I20601716H82459110H32621709G88150544
69G67582774G69899661G80695616G91582195H05146958H24671515H46664800
62H65297252H79221844H90510198H99505938I05301755I09376646I14678464
55I22297236I30618462I37352064I41391211I43666887I46570264I51720575
48I58684905I66562013I75465262I85361843I94368386I99827847A001222353
41A000621726A000001960I98657200I93831442I84243677I72969460I64996994
34I62211049I63085016I65868360I69681914I73149375I75464595I77853767
27I81892313I86418392I88528023I87689132I86832370I89271822I95601316
20A003501563A009261771A009876002A006873665A005739362A008918279A014521311
13A019657952A023073333A025397288A027608546A029800333A030786397A029494184
6A027376084A027652291A032092413A038208582A039120959A032625355
##END=


$$ === CHEMSPECTRA PEAK TABLE EDIT ===
##TITLE=X8426
##JCAMP-DX=5.00
##DATA TYPE=INFRAREDPEAKTABLE
##DATA CLASS=PEAKTABLE
##$CSTHRESHOLD=0.93
##MAXX=3997.453
##MAXY=0.9597431368359104
##MINX=373.96442
##MINY=0.6364481409651913
##$CSSOLVENTNAME=- - -
##$CSSOLVENTVALUE=0
##$CSSOLVENTX=0
##NPOINTS=31
##PEAKTABLE= (XY..XY)
420.70997243940565, 0.8600535349226421
470.2885886630179, 0.6860888562966684
490.1200351524626, 0.8727058122020461
524.1168005629684, 0.8890771222350315
597.7764589523345, 0.9000320387294772
616.191373549676, 0.8969731873586049
671.4361173416728, 0.8725824305282195
688.4345000469116, 0.7572308141602414
715.3486059968723, 0.8083356577343754
739.4296481626266, 0.6364481409651913
798.9239876309616, 0.859091157509262
864.084454667709, 0.8389623710750407
888.1654968334633, 0.7422678430485459
902.3308157544952, 0.7912130912526391
951.909431978133, 0.9071516941216062
1077.9807703753172, 0.8990604235783964
1154.473492548866, 0.8562335922865775
1175.721470930414, 0.870180661629886
1246.5480655355746, 0.8269125775289677
1311.708532572322, 0.7684049559800064
1334.373042845973, 0.8596174672239832
1409.4492331274432, 0.8597442463473504
1434.9468071853007, 0.7796241593680776
1454.7782536747459, 0.8191953258684083
1495.8576785457385, 0.639508542238064
1556.7685499061763, 0.8579983666579052
1589.3487834245502, 0.7627422174064639
2851.4786992885065, 0.8575511528935349
2925.1383576778735, 0.8293768716549396
3008.7137393119624, 0.8635609104133244
3396.8434777482457, 0.8846014691561687
##END=


$$ === CHEMSPECTRA PEAK TABLE AUTO ===
##TITLE=X8426
##JCAMP-DX=5.00
##DATA TYPE=INFRAREDPEAKTABLE
##DATA CLASS=PEAKTABLE
##$CSTHRESHOLD=0.93
##MAXX=3997.453
##MAXY=0.9597431368359104
##MINX=373.96442
##MINY=0.6364481409651913
##NPOINTS=75
##PEAKTABLE= (XY..XY)
3994.6199362157936, 0.8840032168161879
3987.5372767552776, 0.8831772155837165
3976.205021618452, 0.8820527143094851
3960.6231708053165, 0.882851655718913
3947.8743837763877, 0.8826450056941948
3932.2925329632526, 0.882242198320411
3922.3768097185302, 0.8826067399187999
3901.128831336982, 0.8823677251873177
3878.4643210633308, 0.8840407684210533
3869.9651297107116, 0.8838760801606408
3857.2163426817824, 0.8833393993312082
3848.7171513291632, 0.882751816645309
3837.3848961923377, 0.8837755868031473
3820.3865134870994, 0.8828363962454706
3799.138535105551, 0.8834556294676044
3777.890556724003, 0.8855758256852396
3762.308705910868, 0.8856210061329958
3750.976450774042, 0.8868638827367035
3742.477259421423, 0.8872968506313617
3733.9780680688036, 0.8840529271966646
3721.229281039875, 0.886313015924199
3704.2308983346365, 0.8871527267281123
3688.649047521501, 0.8886252596584908
3678.7333242767786, 0.8859435269742693
3668.8176010320562, 0.8872944667855516
3647.5696226505083, 0.8855818465271509
3633.404303729476, 0.8875189969945916
3629.1547080531664, 0.8877034737673366
3609.3232615637216, 0.8878458091158555
3592.3248788584833, 0.8896705461029215
3585.2422193979673, 0.8896915269850744
3579.576091829554, 0.8902103258425242
3563.994241016419, 0.8911668611800831
3548.412390203284, 0.8919444632813478
3529.997475605942, 0.8920793485530659
3394.0104139640343, 0.8811643076226556
3375.595499366693, 0.8917546226320723
3042.7105047224395, 0.868761832714435
3029.9617176935103, 0.8657924484086249
3017.2129306645816, 0.8639299229516243
3008.7137393119624, 0.8635609104133244
2990.2988247146204, 0.8784878208293452
2977.5500376856917, 0.8719526483191149
2925.1383576778735, 0.8293768716549396
2893.974656051603, 0.8661819055308075
2851.4786992885065, 0.8575511528935349
2361.3586646207973, 0.8852745842654893
2340.110686239249, 0.8909857219702384
1589.3487834245502, 0.7627422174064639
1556.7685499061763, 0.8579983666579052
1495.8576785457385, 0.639508542238064
1474.6097001641906, 0.8106424169250261
1454.7782536747459, 0.8191953258684083
1434.9468071853007, 0.7796241593680776
1409.4492331274432, 0.8597442463473504
1334.373042845973, 0.8596174672239832
1311.708532572322, 0.7684049559800064
1264.962980132916, 0.8481029225909621
1246.5480655355746, 0.8269125775289677
1175.721470930414, 0.870180661629886
1154.473492548866, 0.8562335922865775
902.3308157544952, 0.7912130912526391
888.1654968334633, 0.7422678430485459
864.084454667709, 0.8389623710750407
821.5884979046127, 0.8809713072827394
798.9239876309616, 0.859091157509262
739.4296481626266, 0.6364481409651913
715.3486059968723, 0.8083356568405451
688.4345000469116, 0.7572308141602414
671.4361173416728, 0.8725824305282195
525.5333324550429, 0.8875980330583023
490.1200351524626, 0.8727058122020461
470.2885886630179, 0.6860888562966684
420.70997243940565, 0.8600535349226421
405.12812162627006, 0.8820608213516665
##END=

##END=

