##TITLE=DMK- HES 2
##JCAMP-DX=5.0
##DATA TYPE=LINK
##BLOCKS=1


$$ === CHEMSPECTRA SPECTRUM ORIG ===
##TITLE=DMK- HES 2
##JCAMP-DX=5.00
##DATA TYPE=INFRARED SPECTRUM
##DATA CLASS=XYDATA
##$CSCATEGORY=SPECTRUM
##ORIGIN=Rieke
##OWNER=
##XUNITS=1/CM
##YUNITS=TRANSMITTANCE
##XFACTOR=1
##YFACTOR=9.4186181e-010
##FIRSTX=3997.453
##LASTX=373.96442
##MAXX=3997.453
##MAXY=1.0113164168834798
##MINX=373.96442
##MINY=0.4068796924483019
##NPOINTS=2559
##XYDATA= (X++(Y..Y))
2559A060482084A060613524A060807679A060948422A061037210A061160550A061213139
2552A060974495A060467718A060007265A059918288A060302041A060962155A061520952
2545A061726877A061647076A061485892A061315849A061084356A060768760A060449746
2538A060307357A060485058A060835651A060948739A060609221A060070739A059718248
2531A059682049A059901708A060277361A060655102A060865268A060852737A060664658
2524A060331658A059903100A059603261A059751788A060350960A060877481A060779391
2517A059990558A058921251A058252657A058581037A059810452A060972154A061209975
2510A060649216A059895442A059308801A058897709A058504147A058001990A057434523
2503A057032924A057001662A057235432A057416551A057395794A057327953A057437814
2496A057707909A057858525A057629564A057171199A057162909A058135455A059672873
2489A060738763A060792807A060182561A059569151A059424104A059737359A059992520
2482A059868737A059681353A059967333A060726043A061416153A061726877A061563478
2475A060790972A059611235A058570532A058046605A057934086A058093245A058637359
2468A059275071A059401892A059054653A058768673A058801771A058921314A058878851
2461A058627867A058225698A057932820A058379351A059839943A061019237A060932032
2454A059957524A058768990A057970284A057951552A058631094A059513714A060166044
2447A060343619A059806908A058690961A057698860A057380416A057631020A057927441
2440A057974778A057931808A057969905A057962690A057823086A057812201A058102927
2433A058406500A058657800A059032947A059254567A059007570A058552116A058196271
2426A058004837A058011862A058030784A057576912A056693849A056159543A056394516
2419A056817316A057159808A057746956A058389920A058445799A057846248A057178983
2412A056966982A057248216A057809417A058502818A059111166A059319623A059144580
2405A059010418A059113127A059156350A058926820A058462443A057788723A057020330
2398A056508870A056452041A056707202A057117724A057457305A057410349A057092664
2391A057208283A058080841A058907582A058883723A058211269A057720060A057861120
2384A057835743A056706126A054791979A053257852A053280698A054486255A055542969
2377A056083729A056435018A056943377A057605896A057995155A057858588A057414399
2370A056887751A056382049A056057403A055966338A055853629A055616378A055602582
2363A055988740A056391605A056389327A056023989A055802306A056397934A057816568
2356A058930490A059067880A058710769A058228356A057502996A056518300A055684788
2349A055424565A055643274A055869071A055731302A055284644A054883868A054884564
2342A055589356A056898382A057959526A058256138A058129190A057873966A057335294
2335A056431601A055603848A055502784A056315412A057137279A057010268A056340852
2328A056023167A056184667A056180111A055881664A055719088A055846035A056005764
2321A055987854A055874197A055868374A055969375A055812432A055100362A054038459
2314A053380117A053909170A055127637A055766867A055554423A054931204A054234069
2307A053592244A053212668A053345564A053869238A054276912A054237296A053972770
2300A054095794A055174910A056837757A057906747A058013128A057522235A056882561
2293A056518553A056702139A057192905A057435409A057253152A056880030A056631261
2286A056671257A056937618A057185185A057113927A056582406A055746490A055027079
2279A054786094A054871274A054898296A055031699A055721936A056633856A056828011
2272A056179668A055615366A055972730A056873702A057267517A056995207A056543930
2265A056166378A055847934A055662955A055783574A056107651A056185933A055728897
2258A055014106A054573777A054623518A054903043A055101184A055216424A055284011
2251A055232562A055029167A054718760A054387532A054175088A054212679A054426832
2244A054538211A054413479A054264888A054363231A054607064A054565993A054091237
2237A053564146A053447387A053795006A054207743A054264888A054014727A053872275
2230A054069847A054456702A054785588A054932849A054869945A054701167A054650856
2223A054781538A054937469A055069226A055249458A055333816A055039799A054398227
2216A053765768A053424352A053396191A053541111A053650339A053555666A053276521
2209A052981745A052786451A052725445A052857708A053174887A053471435A053554021
2202A053502697A053455108A053281837A052829927A052350995A052250880A052545529
2195A052934662A053213933A053290507A053064773A052643113A052435922A052725129
2188A053279938A053615153A053510988A053177102A052956052A052922954A052829800
2181A052472563A051992175A051725497A051857127A052243665A052479714A052254677
2174A051752836A051498751A051754101A052305936A052791134A052947192A052636848
2167A051977303A051359969A051069623A051006592A050951789A050919704A051116833
2160A051625635A052215947A052511419A052347894A051910476A051540645A051486031
2153A051787578A052257651A052531354A052270181A051504636A050783264A050718398
2146A051262133A051722270A051583551A051006466A050497727A050377741A050546898
2139A050618916A050377108A050041703A049911655A049968041A050046387A050117328
2132A050170676A050074738A049753572A049402157A049368363A049742940A050145552
2125A050125428A049701173A049268122A049109406A049226101A049480123A049713387
2118A049825209A049814388A049738257A049715602A049925704A050430330A051035070
2111A051476538A051660884A051624939A051408571A051082660A050800667A050701438
2104A050739281A050712322A050526458A050310913A050202001A050193395A050297307
2097A050609550A051088672A051467742A051488879A051120060A050571389A050179789
2090A050179915A050508928A050866545A050977039A050821677A050669669A050801932
2083A051128920A051226567A050851610A050254401A049881405A049934184A050273639
2076A050596197A050632395A050314267A049858687A049607893A049683264A049874571
2069A049936589A049833246A049627574A049402916A049384817A049784834A050460769
2062A051085887A051595892A052083177A052382826A052176205A051448061A050596766
2055A050125301A050253135A050740990A051145184A051244033A051091709A050772126
2048A050349706A050001961A049960320A050289650A050780669A051038487A050803515
2041A050336416A050264906A050795477A051355350A051340225A050894833A050539811
2034A050416027A050400080A050583034A051051397A051449326A051299027A050663467
2027A050087774A049892797A049895201A049872989A049908301A050104924A050342365
2020A050548734A050870532A051335795A051651645A051577666A051292319A051143349
2013A051132970A050924577A050406535A049973294A050040944A050506144A050976786
2006A051291876A051497485A051527039A051267891A050838194A050490702A050302117
1999A050234466A050379070A050808261A051275992A051412305A051154107A050747698
1992A050440455A050339138A050422419A050565124A050663657A050753141A050948624
1985A051331112A051838838A052211897A052201518A051931992A051838332A052142854
1978A052577677A052706207A052353589A051688792A050999125A050463997A050143084
1971A050096064A050374323A050898947A051464198A051914209A052230945A052438706
1964A052540973A052580842A052663174A052871378A053195707A053499786A053553451
1957A053227603A052690323A052259613A052085709A052148423A052437757A052891059
1950A053262598A053323731A053136600A052939788A052825307A052676400A052370359
1943A051977114A051755557A051860671A052044321A051878391A051334339A050837878
1936A050671125A050672517A050602905A050405333A050052272A049528725A049024669
1929A048818427A048924047A049083649A049131808A049180157A049417472A049887101
1922A050471274A050966787A051151386A050926665A050406978A049765469A049047831
1915A048209952A047181716A045842630A044142889A042253486A040423380A038737942
1908A037155466A035655512A034279974A033179151A032634404A032897285A033935140
1901A035335359A036499085A037058072A037144644A037220268A037640030A038370705
1894A039074042A039465706A039542722A039375590A038798188A037502767A035356242
1887A032464360A028968876A024907572A020346705A015610794A011162888A007191700
1880A003652740A000876415I99712245A000789020A003820633A007720184A011231362
1873A013577990A014842655A015730147A016795151A017891418A018379526A017783709
1866A016144847A013850997A011456779A009741217A009486879A010833243A013072352
1859A015313360A017194662A018832702A020304747A021451198A022141688A022419820
1852A022267623A021573462A020524975A019692350A019478577A019714309A019850812
1845A019339858A017883127A015510236A012352309A008295181A003020345I96392690
1838I88674338I80379787I71991575I63747778I55644787I47618685I39648021I31734438
1830I24021845I16962848I11081373I06408240I02298776H97961428H93170840H88554852
1822H85332755H84674223H86964276H91408575H96315478H99918354I01141251H99742172
1814H95869707H89647195H81230189H71013581H59502438H47107283H34358181H22237171
1806H11948166H04233231G99036488G95843628G94262923G94284756G96100307G99789566
1798H05306842H12719912H22164964H33391900H45557208H57630312H68835540H78675104
1790H86822900H93137806H97622036I00306411I01261111I00653017H98706152H95742000
1782H92401435H89765916H89070932H91105888H95795411I02414586I10182932I18539628
1774I26964165I34876481I41807456I47522810I52007357I55428925I57986732I59724317
1766I60612063I60799763I60578143I60058772I58986111I56834143I53010090I47056788
1758I38857859I28735037I17280722I05073077H92700071H81105773H71614208H65424604
1750H63291116H65694257H72853306H84256676H98429981I13443000I27692498I40250673
1742I50740921I59189062I65998721I71758185I76839625I81283797I85089498I88400699
1734I91358460I93963540I96142656I97857332I99163384A000192949A001073417
1727A001928888A002965541A004351964A005934630A007282766A008142224A008709184
1720A009302533A009921639A010356652A010641240A011059926A011690296A012269786
1713A012596204A012786626A013078744A013552297A014078376A014472001A014704126
1706A014957009A015428157A016137506A016949501A017681948A018200306A018541533
1699A018906680A019381056A019752912A019800691A019668492A019721080A020103821
1692A020676983A021294190A021919878A022539617A023160811A023830228A024518376
1685A025057365A025285883A025241900A025175009A025331194A025703936A026077437
1678A026340825A026610983A026980688A027315206A027395577A027177817A026872346
1671A026796405A027126177A027740980A028305029A028548608A028492855A028369705
1664A028315787A028250605A028103913A028020505A028214343A028687770A029198660
1657A029505587A029585514A029578870A029611334A029739547A029996796A030356691
1650A030715194A031000794A031212479A031332718A031321137A031211909A031120970
1643A031141031A031259625A031384421A031459539A031527949A031627621A031699828
1636A031645277A031414165A031052750A030739622A030691083A030921943A031191659
1629A031277345A031211846A031168243A031192481A031186343A031138880A031188937
1622A031391003A031604396A031687551A031644265A031548516A031477512A031489662
1615A031577437A031697993A031842027A031989288A032076620A032110160A032190531
1608A032343741A032422340A032224957A031710523A031123628A030845559A031038132
1601A031484789A031813043A031830636A031659263A031597055A031822535A032267041
1594A032798942A033387735A033986084A034426666A034597406A034622656A034709481
1587A034821873A034690496A034227575A033756110A033678018A034068985A034714291
1580A035347889A035752336A035800305A035535336A035217018A035229991A035763854
1573A036519400A036947325A036868600A036594391A036420360A036316765A036140013
1566A035871499A035657537A035737338A036232724A036930618A037428535A037526499
1559A037343102A037075475A036847779A036757790A036839742A036937453A036817087
1552A036471304A036166149A036161023A036491745A036974284A037311903A037294690
1545A037022633A036824301A036857145A036924163A036793419A036555851A036469215
1538A036555788A036645524A036830060A037472897A038562582A039432925A039472287
1531A038877293A038355644A038276033A038470694A038740093A039103532A039515257
1524A039729030A039607715A039325342A039190738A039471781A040323708A041585968
1517A042729128A043287481A043264952A042933218A042465804A041979594A041632482
1510A041432252A041212467A040949459A040769860A040594057A040266183A040072851
1503A040493942A041393649A042125083A042440680A042671729A043114273A043746226
1496A044338373A044511960A044024358A043141359A042327971A041663364A040997618
1489A040456098A040323519A040617029A041084823A041460033A041540214A041231515
1482A040704930A040402307A040659050A041307329A041802272A041818663A041603624
1475A041657036A042136221A042684386A042860189A042625912A042270763A042006996
1468A041895046A042024019A042423340A042858606A043011184A042882464A042805638
1461A042973973A043123576A042893286A042353601A041865556A041605586A041597612
1454A041915487A042466753A042903981A042990806A042720648A042114958A041330428
1447A040768404A040658227A040770239A040788465A040708791A040746951A041026349
1440A041401939A041633304A041780756A042199252A043003780A043817230A044164659
1433A043909815A043305644A042776717A042588258A042669767A042785197A042747164
1426A042443971A041914095A041426746A041242843A041345300A041591600A041957444
1419A042429415A042874301A043224640A043579916A043929812A044036952A043817040
1412A043560931A043508975A043559665A043655350A044002209A044644603A045277442
1405A045568294A045318387A044535249A043661995A043271723A043375066A043534225
1398A043483598A043182050A042643251A042055851A041789616A042042814A042474663
1391A042536998A042208048A041841761A041539138A041127160A040509890A039772379
1384A039044109A038445380A038140732A038231165A038509867A038604856A038462720
1377A038429939A038751991A039292435A039857813A040388827A040783212A040922057
1370A040822702A040530710A040034185A039448429A039056259A039046514A039370147
1363A039819716A040143096A040211443A040152399A040197647A040356300A040365919
1356A040021085A039478932A039149540A039259147A039636446A040032476A040452238
1349A040928259A041192153A040947054A040355224A039939765A040098101A040884403
1342A042002439A042834559A042818231A042078760A041432695A041558440A042335692
1335A043123766A043490749A043492394A043413986A043537705A044105235A045124548
1328A046092664A046218536A045164417A043436641A041961938A041382890A041751139
1321A042671033A043588206A044066758A044028472A043811598A043899626A044527718
1314A045553866A046653676A047557496A048154769A048552571A049081814A050049487
1307A051407369A052856633A054261091A055520756A056039494A055052709A052790691
1300A050640052A049793947A050249844A051343516A052636025A053923092A054877792
1293A055205856A054990564A054512138A053871769A053145270A052707599A052862012
1286A053224565A053169445A052927194A053509152A055341157A057566533A058982699
1279A059342025A059449861A060102191A061130490A061726877A061617143A061080369
1272A060155286A058407576A055733643A051775744A043768755A025977132I92569017
1265I42141088H80581150H20605017G78156423G64948830G79764340H10394611
1258H45094983H77663765I05542833I28275406I46874088I62544372I75638118
1251I85980155I93801723I99853431A004829187A009201848A013356687A017169349
1244A019671149A020008326A018696072A017267945A016792367A017201877A017928629
1237A018684364A019484462A020270068A020853672A021151738A021280268A021483536
1230A022007969A022895398A023935152A025031988A026412462A028102963A029492993
1223A029921235A029469895A028772443A028297182A028161121A028381666A028924135
1216A029536406A029889846A030014516A030311823A030964596A031651795A032020297
1209A032119843A032257169A032736734A033733708A035137027A036557813A037601364
1202A038055425A037948222A037626867A037636170A038307801A039454948A040448694
1195A040698729A040262956A039786302A039679226A039695490A039384703A038631118
1188A037753371A037322282A037831400A039368692A041453768A043119779A043618835
1181A043375762A043580549A044562841A045342941A045132585A044530756A044667132
1174A045789915A047251835A048470998A049163830A048889494A047387452A045285036
1167A043666805A043066494A043438033A044625808A046273973A047817719A049021758
1160A050028034A050744218A050849838A050439506A049959624A049486704A048588833
1153A046998130A045127649A043888171A044018536A045376734A046960476A047914417
1146A048247796A048263048A047860815A046965349A046077160A045708911A045745616
1139A045892371A046262392A047085208A048170210A049145288A049986900A050880404
1132A051913956A053263738A054865832A055661753A054407403A051539696A049060044
1125A048193688A048324686A048545736A048844183A049516891A050416534A050994885
1118A050705108A049529990A048251150A047703745A047694189A047168806A045460142
1111A042957899A040785617A040165752A041522621A043803245A045483114A046102537
1104A046166200A046061023A045626262A044588344A043004476A041244995A039728840
1097A038741422A038492464A039128023A040417242A041701588A042451755A042617558
1090A042412519A042024272A041656087A041634127A042191341A043150535A044009360
1083A044309768A043779450A042367081A040381170A038340139A036515413A034846997
1076A033304074A032054154A031285129A031066356A031388788A032148637A033072961
1069A033818128A034169101A034188086A034338448A035297895A037365315A040099620
1062A042676792A044525946A045583989A046191134A046867449A047937199A049112950
1055A049755028A049696553A049183828A048387780A047539460A047096536A047259302
1048A047578000A047503831A047097549A046824542A046902571A047219560A047712605
1041A048468783A049403233A050042716A050021326A049712691A049694085A050082901
1034A050623409A051025261A051173219A051147336A051144551A051309849A051588804
1027A051921867A052415671A053045725A053471245A053440110A053064393A052500724
1020A051668035A050467857A049113646A048004027A047391629A047261834A047431118
1013A047702859A047927010A047962512A047673432A047061350A046375733A045877942
1006A045478178A044888436A044065050A043316718A042920751A042700334A042407013
999A042198366A042322719A042686348A042894362A042667742A042035473A041234173
992A040535266A040084938A039923501A040074686A040446289A040772897A040915476
985A040902439A040731636A040449770A040228466A040176384A040174105A040046209
978A039741497A039213393A038407283A037372339A036192412A034800167A032963037
971A030639887A028091826A025485860A022788892A020058826A017579175A015629589
964A014234940A013350801A013172910A013852073A014827024A015563268A016223762
957A016946843A017621069A018169107A018518181A018465655A017928439A017190043
950A016821604A017159034A017722513A018056652A018393448A019030084A019950421
943A021095163A022620367A024508630A026289818A027794075A029453884A031309999
936A032565931A033176114A033881349A034760805A035384720A035712530A035949465
929A036154252A036308917A036497820A036606288A036068439A034770677A033237752
922A032008337A031520102A031958153A032930003A033811104A034523364A035316753
915A036115522A036630336A036906064A037156288A037469543A037781849A037976953
908A037992458A037891520A037949615A038639345A039849143A040210873A039671821
901A039295915A039626194A040345984A040735053A040837510A041055903A041479525
894A041977126A042544845A043385318A044419186A045164417A045512605A045757450
887A046211385A046908203A047571039A048015924A048334811A048639207A048949677
880A049355580A049926780A050352491A050159158A049422028A048447520A047288793
873A045741502A043424364A039841422A034585761A027753257A020164953A012943759
866A006815288A001917687I97981242I94463102I90818269I86948398I83441650
859I81384988I81843669I85301182I91455411I99381903A007735878A015118572
852A020899805A025641348A030238540A034310667A036863157A038289955A039622776
845A041312392A042883730A043852859A044393113A044789523A045132522A045560890
838A046376999A047300880A047499908A047216902A046936175A046760436A046590582
831A046246951A045571775A044612518A043670285A043142688A043276976A043982528
824A044740732A045097526A045345978A045952238A047121154A048564722A049627827
817A050074421A050110240A049906023A049463859A048773748A047884547A046857133
810A045846680A044951340A043928420A042358031A039798389A035588684A028822058
803A017337874I93654588I47368271H94717687H67470761H63978884H73242122
796H91086207I15762923I43276654I66708133I82139901I91723291I98929487
789A005050364A008806324A008353465A003298920I93673826I78875530I59132613
782I37839621I20502124I11056059I10472013I17780538I30681775I44375451
775I53821832I58561476I60942151I62868828I64982382I67017401I68711573
768I70040534I70612684I68964266I63962690I57776250I53170641I51551460
761I53798923I59950493I68354399I76175904I81564967I84243962I84004496
754I80152788I72243445I61586381I53626222I54400436I62763840I74020139
747I84861360I93089147I97804616I99542138I98988088I96420915I91752908
740I83840401I70735454I53370618I36827523I24778087I18256939I17506836
733I21502768I27833368I34369072I40493177I46552479I52564698I58022298
726I62605947I65934615I66758697I63249671I54831906I44517017I37855189
719I38050673I44660608I55418104I66947916I76131922I82132813I85785684
712I87947587I89071508I89530632I89802943I90288836I91039826I91803915
705I92447828I93138318I94105359I95498553I97507878A000351728A003854173
698A007241758A009831270A011535061A012499886A012841809A012766375A012658413
691A012892246A013538628A014325689A014922772A015201727A015240014A015238875
684A015466317A016103839A017070753A018154489A019316127A020644772A022104983
677A023494064A024562548A025078122A024887511A024094881A023172961A022737632
670A023083795A023896106A024464079A024294161A023489254A022456209A021380573
663A020072496A018220051A015701037A012708154A009756088A007587034A006840791
656A007625131A009458211A011680424A013825303A015640158A016978738A017759977
649A017984128A017812882A017586326A017652015A018168158A019084382A020196595
642A021163762A021610800A021344501A020454667A019153045A017506842A015281528
635A011934319A006739094I99013528I88293876I74307322I56884454I36292015
628I14478577H96300163H87879993H91557038I02318141I09493011I01407866
621H70545913H19570833G64873712G29965769G29763830G60298986H04302780
614H45351915H76254813H97383773I11385705I20272403I25102480I26185836
607I23160552I15582057I04208557H91951740H83167118H81326444H86943139
600H97668613I10235331I22185411I32287033I40211943I46134426I50364888
593I53163237I54850954I55965193I57097467I58578310I60454106I62725680
586I65420876I68438947I71502012I74269794I76445746I77850458I78443871
579I78269334I77437088I76169892I74701833I72964248I70329425I66012960
572I60360256I55750407I55296346I60064215I68050574I76138820I82463155
565I86802402I89622204I91342259I92146027I91996108I90796752I88664972
558I86129948I84057718I83181680I83476582I84149226I84592656I85276438
551I87299497I91076530I95871548A000605117A004677179A007968509A010517330
544A012406226A013764741A014750767A015500301A016013976A016156111A015928036
537A015629020A015510236A015365949A014700836A013233346A011028410A008175194
530A004527703I99912665I94628336I89581639I85665001I82894940I80186518
523I75903720I68766124I58868719I48295253I40263519I36915044I37825636
516I40755615I43482516I44667190I43367592I38354625I28697130I15871707
509I04820765I01092270I06159028I16469803I27195973I35792199I42104447
502I46813462I50603152I53989028I57101834I59664640I61450700I62688469
495I63833591I65033579I66049538I66671365I67008668I67362425I67944257
488I68766757I69746075I70805636I71848364I72766613I73536271I74207017
481I74812137I75373591I75899353I76305636I76473465I76414547I76245643
474I75977952I75353087I73742703I70189758I63957374I55519105I47008882
467I41244103I39945392I42724375I47583120I52363392I55973863I58444528
460I60020042I60329057I57900476I50461902I37608066I24262007I18930469
453I26022691I41443510I57451351I69903525I79344906I87461440I94878561
446A001521277A007360162A012553614A017284082A021643581A025682103A029447302
439A032910511A036000282A038746991A041235376A043435755A045285099A046935289
432A048695340A050679731A052699625A054518656A056025698A057163415A057911051
425A058334863A058572683A058855246A059471757A060451834A061373057A061726877
418A061397421A060117252A057501288A053159256A047307588A041313278A037513146
411A037728754A041473133A046138735A049281981A050208203A049290777A046396617
404A039847687A026892913A007097470I86471997I75652103I81108374I99156359
397A020163371A036988902A048057122A054771792A058734627A060923046A061726877
390A061406851A059789948A056889649A052444022A045728276A035656588A021275775
383A002702470I82205463I64394286I54290069I53947893I60699901I69226451
376I75726905I80190315I84836932I90894842I97298978A002126207A004459356
369A004711036A003762222A002164937I99927790I96667659I91732024I84315030
362I73935023I60985438I46485904I31131596I14733168H96418631H74978947
355H49072499H17594161G80246816G37916752F92668354F47543486F06218624
348E72296010E48442934E36085496E35697628E46760975E67007189E91841671
341F15100639F31262070F37497744F33325440F18457215E92761312E59368828
334E25831613D99682250D82829285D71295740D60099782D47816038D37124484
327D31995106D34480706D43698284D57251882D73094393D90145152E07907189
320E26023489E44152225E61970427E78950750E94037811F05786205F12912980
313F14829025F12266851F07706237F04415477F04416236F07720413F13563727
306F21469906F30750483F39772356F46484368F49798100F50535357F51140161
299F54233412F61186156F71986558F86093288G02865661G21292970G39992083
292G57767505G74053351G88901262H02644110H15406882H26930365H36972880
285H45617960H52949964H58693354H62356286H63438440H61312293H54981060
278H42845052H22717812G92895802G54260504G11506945F71996241F43289862
271F30992670F37031848F58634045F89381771G22296525G52430018G77148691
264G94714264H02961732H00247741G88637242G74818453G65456620G61929178
257G61364496G61799446G64118799G69750049G78810019G90595371H04268797
250H18274779H29303699H31980606H20107416G90727951G49996374G13688592
243F97428692G05245387G27995933G51571573G66234631G69793652G65179626
236G56990000G49110590G43680203G41586836G43598693G50306655G61123448
229G74607908G90015501H07412865H26096917H43908727H58430030H68564306
222H75170254H80609248H87374355H96420149I06602711I15922588I23143782
215I28130106I31211524I32792734I33507652I34323634I36414785I40536653
208I45105494I47298153I46442998I42269365I33292740I17333311H92493260
201H58618362H19437114G83314500G60767476G58661959G73920835G92355675
194G96020886G76031731G40519111G08944392F95348046F95886718F95088139
187F84676743F72698438F73084027F90898685G20688040G54353215G86132720
180H12948114H33945000H50083712H63269156H75141460H86240815H96518429
173I06612014I17687638I29735997I41063744I49818938I55267109I57285294
166I55496956I50224904I44261414I42086791I46352186I55673960I66177941
159I74568178I78999060I77218505I65847473I44183258I18930722I01578733
152H99342978I10680660I28944443I48127488I65275260I79420087I90205111
145I97620903A002131586A004725402A006401032A006886482A003666157I92007436
138I66381778I24567162H73272308H28976142H09099443H19380158H50496133
131H87216526I19117093I43274439I60683953I72971146I81834303I89208454
124I96422813A003261456A008598500A012038104A014200450A015445560A015363924
117A013812014A011669286A010027703A008731396A005945135I99617889I89862556
110I79758276I73392743I72386910I73753461I71725910I60406327I33922161
103H88751349H31495662G81514455G58239160G66573516G96188588H32104516
96H65175266H93615852I18137459I38678259I54041680I62280099I61743135
89I51666700I32432206I08024446H87717227H81496425H92230885I13643103
82I36962507I57511597I74488377I88133894I98586045A005952602A010682817
75A013890992A016758953A019188357A019291826A014173618A001574119I82079022
68I60305389I43661673I37605281I40696824I47242083I54535357I64351126
61I78306671I94158580A007433761A016139341A021477524A025640779A030395358
54A035942820A040856938A043730911A044748515A045480963A047556990A051464198
47A056149545A059892025A061726877A063064950A063577929A063825495A064601483
40A066623275A069427888A071359566A070930248A068568495A066907546A068400286
33A072163017A073741823A071322734A067041708A062475904A058800252A057660510
26A059413156A061815981A061726877A059946576A056197577A053033131A050401156
19A044185289A029515649A009056928I92807913I87222354I92334866A004874562
12A020972645A037587188A051751127A059561810A058898279A052571729A045345915
5A040624117A040333707A044625049A051972367A061726877
$$ === CHEMSPECTRA ===
##$OBSERVEDINTEGRALS= (X Y Z)
##$OBSERVEDMULTIPLETS=
##$OBSERVEDMULTIPLETSPEAKS=
##END=


$$ === CHEMSPECTRA PEAK TABLE EDIT ===
##TITLE=DMK- HES 2
##JCAMP-DX=5.00
##DATA TYPE=INFRAREDPEAKTABLE
##DATA CLASS=PEAKTABLE
##$CSCATEGORY=EDIT_PEAK
##$CSTHRESHOLD=0.93
##MAXX=3997.453
##MAXY=1.0113164168834798
##MINX=373.96442
##MINY=0.4068796924483019
##$CSSOLVENTNAME=
##$CSSOLVENTVALUE=0
##$CSSOLVENTX=0
##NPOINTS=0
##PEAKTABLE= (XY..XY)
##END=


$$ === CHEMSPECTRA PEAK TABLE AUTO ===
##TITLE=DMK- HES 2
##JCAMP-DX=5.00
##DATA TYPE=INFRAREDPEAKTABLE
##DATA CLASS=PEAKTABLE
##$CSCATEGORY=AUTO_PEAK
##$CSTHRESHOLD=0.93
##MAXX=3997.453
##MAXY=1.0113164168834798
##MINX=373.96442
##MINY=0.4068796924483019
##NPOINTS=41
##PEAKTABLE= (XY..XY)
2952.052463627834, 0.8332408649351237
2925.1383576778735, 0.7480859142726707
2893.974656051603, 0.837381957231907
2851.4786992885065, 0.81310093307268
2158.794604050039, 0.7204760895811824
1589.3487834245502, 0.9243290411045084
1502.9403380062545, 0.8137487154860201
1476.0262320562938, 0.8575388181185236
1451.945189890539, 0.8962299804237427
1436.363339077404, 0.8981841195163819
1412.2822969116496, 0.8641646492423333
1392.4508504222044, 0.8833299858294322
1259.2968525645033, 0.8362602572697674
1246.5480655355746, 0.6873366817963323
1225.3000871540262, 0.8300877197467037
1179.971066606724, 0.8997571455299463
1160.1396201172788, 0.9260212766836409
1106.311408217357, 0.8824444991580698
1092.146089296325, 0.8487043963992088
1032.6517498279904, 0.8852986682102796
1015.6533671227521, 0.865505514796489
939.1606449491787, 0.9189294556618866
909.4134752150117, 0.8984870891466664
861.2513908835026, 0.5045531384626485
835.7538168256447, 0.4068796924483019
811.6727746598904, 0.5692758551592334
756.4280308678653, 0.5943078982629327
736.5965843784202, 0.7171001422722978
716.7651378889755, 0.6568814501930526
702.5998189679435, 0.6984723196271332
651.6046708522281, 0.7145547258818858
641.6889476075057, 0.6549217691855234
636.022820039093, 0.6335889683988528
603.442586520719, 0.8873155701483518
587.8607357075839, 0.8470568050698702
562.363161649726, 0.7620598658539719
525.5333324550429, 0.9158540950729072
514.2010773182169, 0.7141565076504797
492.953098936669, 0.8302478183590293
466.03899298670785, 0.8830946070282187
393.7958664894445, 0.9298270332109009
##END=

##END=

