##TITLE=X8617
##JCAMP-DX=5.0
##DATA TYPE=LINK
##BLOCKS=1


$$ === CHEMSPECTRA SPECTRUM ORIG ===
##TITLE=X8617
##JCAMP-DX=5.00
##DATA TYPE=INFRARED SPECTRUM
##DATA CLASS=XYDATA
##ORIGIN=ComPlat
##OWNER=
##XUNITS=1/CM
##YUNITS=TRANSMITTANCE
##XFACTOR=1
##YFACTOR=7.2739081e-010
##FIRSTX=3997.453
##LASTX=373.96442
##MAXX=3997.453
##MAXY=0.7810299343628466
##MINX=373.96442
##MINY=0.43580722489934137
##NPOINTS=2559
##XYDATA= (X++(Y..Y))
2559I25015537I25511459I25175821I24243144I23368976I22989743I23192061I23855472
2551I24681786I25347491I25766466I26042451I26235181I26353998I26405377I26252386
2543I25670511I24745128I23981746I23821628I24202665I24709974I25036353I25162956
2535I25182868I25162218I25118215I24976945I24681376I24455623I24634423I25113380
2527I25356833I25018244I24304274I23799177I23929876I24429729I24524865I23898902
2519I23187308I23058493I23523111I24406211I25514406I26156433I25407883I23517375
2511I22225132I22736621I24384659I25561936I25579390I25315042I25587912I25922240
2503I25415914I24159071I23217955I23232131I23855552I24539123I25281280I26389971
2495I27677789I28314650I27690080I26196831I24459064I22516522I20747535I20265955
2487I21694633I24260025I26020244I25695422I24936137I25890118I27617559I27572082
2479I25771547I24632290I24357291I23794096I24050005I26339904I28967983I29626559
2471I28622920I27539467I26234771I24750618I24604268I25545712I25371091I23561295
2463I22359191I23156251I25543663I29191277I33572118I35451237I30337825I22738915
2455I19921220I21152413I23685686I26101859I27770220I28473292I28751079I29122691
2447I28727316I26592698I24073194I22949181I22858388I22722691I22730718I23586862
2439I24870910I25836610I26873927I28122166I27714827I24816090I22879610I23549168
2431I23937661I22419747I21500428I23089468I26306389I29148093I29734888I28353409
2423I27813978I28838349I28599894I25726150I23481811I23686505I24488400I24411456
2415I23979206I23924304I24262565I24942280I25999266I27124837I27754815I27768418
2407I27501365I26927190I25875041I25185736I25991810I28009167I30011610I30978702
2399I30414606I28780906I27510789I27272334I27445152I27788412I28708551I29799951
2391I29841660I28774433I28289658I29473159I31597946I32577166I30447957I27241442
2383I27215547I29884187I30948219I27699012I24066557I24328119I27558643I31146767
2375I32892481I31657109I28337103I25333561I24255026I24968505I26200519I26557955
2367I25811535I25232443I25705255I26590732I27174003I27660499I28515247I29924012
2359I31658502I32617400I31220350I28019983I25675100I25432302I26887775I29018050
2351I30354378I29918358I28661843I28208534I28810814I29912950I31266814I32711880
2343I33284252I31324747I26989057I23654301I23503444I25683130I28580310I30975342
2335I32471704I33445271I33655290I31723483I28810406I28687573I30829483I31221171
2327I28603500I26679722I27427207I29227331I30446643I30959036I31556073I32620675
2319I33353904I32809966I32050026I32948695I35111091I35531050I31377763I25430172
2311I22683030I23382005I25463932I27259305I28193457I28847362I29911229I31088096
2303I31721106I32246034I33744445I35652899I35200900I31749049I29201353I29258717
2295I30650602I32249475I33137574I32221451I30027916I28792870I29103926I29647946
2287I29639834I29487256I29182919I28110776I26776988I26547712I27617559I28928650
2279I29587800I29832236I30386991I31135620I31206094I30557842I30634787I32390006
2271I34435225I33828518I29909016I26341871I25789492I27249882I28774023I29433255
2263I29469638I29480946I29716451I30119447I30734757I31701358I32678773I32501614
2255I30308244I27524883I26256158I26501414I27191784I27819714I28534831I29473653
2247I30382730I30664696I29864686I28537863I27969752I28561135I29305342I29070411
2239I27954592I26913260I26572377I26981764I27877566I28787544I29187918I28926436
2231I28460263I28401264I28836710I29304605I29449644I29323452I28989697I28406999
2223I27767844I27405492I27359029I27399674I27448020I27690816I28239917I28811062
2215I28854164I28170758I27350836I27157614I27509150I27542498I26887530I26287297
2207I26448151I27112299I27672051I28051612I28550155I29153499I29444482I29080817
2199I28242213I27591830I27596583I27945579I27984829I27659515I27474734I27610431
2191I27798327I27842494I27680821I27283724I26947512I27192522I28048171I28939876
2183I29400068I29407034I29125723I28795081I28666842I28740836I28790002I28736739
2175I28727725I28813271I28826057I28617675I28249997I27925092I27823975I28057267
2167I28602271I29153092I29261748I28810160I28151584I27759650I27911245I28562528
2159I29276744I29501594I29201193I28949054I29163169I29545272I29503397I28923569
2151I28278595I28057759I28323090I28772958I28992811I28689294I27908950I27075507
2143I26732411I27115905I27861423I28175755I27581997I26514771I25905933I26227642
2135I27168594I28117003I28680444I28789920I28592683I28349886I28314732I28595715
2127I29085243I29493320I29512412I29067134I28460916I28165104I28336693I28685771
2119I28915538I29044845I29141210I29038699I28589733I28043992I27888546I28290477
2111I28864078I29099665I28981667I29063364I29819450I30957888I31630477I31420539
2103I30753113I30164514I29706945I29335415I29286004I29630492I29897791I29573048
2095I28768369I28088487I27910587I27985072I27802342I27230705I26600155I26133079
2087I25575621I24663676I23761893I23511063I23812452I23779920I22880923I21572292
2079I20605855I20131978I19639336I18531712I16707659I14643512I12892389I11679058
2071I11068991I11202722I12047228I13125107I13853499I14164144I14538379I15378788
2063I16596544I17890179I19133666I20316842I21348751I22108445I22574701I22837165
2055I23084141I23545071I24246832I24848048I24960228I24639831I24275100I24070245
2047I24034272I24250110I24681130I25040205I25270711I25696815I26428484I27179575
2039I27750308I28136506I28274498I28108973I27748424I27403525I27338954I27668444
2031I28049401I27977291I27456215I26965048I26870404I27239557I27955409I28685522
2023I29057137I29136130I29408590I30081917I30711240I30744590I30183279I29463083
2015I28921439I28692900I28908410I29584604I30415751I31005414I31268125I31375061
2007I31370881I31133820I30721564I30477210I30681740I31268125I31918097I32285366
1999I32151225I31569593I30887663I30500646I30564152I30948957I31414311I31811326
1991I32127954I32377634I32500385I32421965I32203751I32081328I32263979I32687869
1983I33059646I33128479I32858558I32439337I32187608I32312080I32777680I33457808
1975I34242167I34886729I35053158I34674908I34086721I33712323I33742806I34062384
1967I34375406I34446369I34254868I33947172I33729531I33783777I34162436I34754720
1959I35387731I35917329I36232810I36201670I35629544I34405070I32762767I31179954
1951I29871897I28606368I27171462I25820795I25098548I25337658I26405704I27755225
1943I28556792I27980486I25737049I22427859I19093186I16406108I14513223I13434606
1935I13173863I13498522I14018533I14548213I15192039I16093823I17238322I18451077
1927I19487742I20210480I20783344I21553771I22587321I23463456I23767711I23660365
1919I23665444I24001330I24433088I24709154I24810846I24766023I24529536I24131128
1911I23719361I23405850I23181080I22954096I22616410I22158922I21715036I21377513
1903I21050642I20588728I19954080I19197417I18481399I18121013I18400685I19321561
1895I20582829I21722329I22310189I22191372I21588025I20879627I20298896I19858780
1887I19482907I19119407I18775902I18513274I18415107I18500327I18648726I18705103
1879I18704448I18922334I19621800I20728770I21799599I22431793I22726624I23167068
1871I23942168I24656220I24866813I24595090I24088108I23431662I22716135I22283721
1863I22435316I23033665I23641027I23915782I23711006I22990563I21847948I20537842
1855I19401701I18687895I18305303I17821265I16947916I15981643I15465074I15498998
1847I15667964I15549393I15032988I14179551I13019892I11582365I10011516I08528510
1839I07293874I06437650I06187724I06705768I07707932I08500158I08545554I07811508
1831I06499026I04750442I02823469I01214598I00289377H99939318H99792476H99640308
1823H99559020H99728479I00219482I00944268I01765256I02559776I03187870I03538258
1815I03556859I03112072I01967246I00014788H97388348H94320644H91058734H87814118
1807H84631118H81496962H78630675H76384943H74845069H73759405H72825336H71923880
1799H71213679H71017834H71465736H72329743H73362555H74622348H76257522H78124021
1791H79852365H81204016H82157014H82729960H82995783H83215227H83668453H84368658
1783H85150149H85975152H86999113H88378788H90072634H91824823H93403538H94821316
1775H96210416H97598532H98937974I00180722I01236887I02046812I02646308I02964247
1767I02770288I02109335I01499842I01353081I01453544I01346527I01015477I00811438
1759I00850443I00789314I00156219H98773514H96867682H94795997H92716363H90673768
1751H88933131H87922283H87864923H88705004H90281834H92374087H94687668H96939218
1743H98926256I00615267I02224055I04035981I06057189I07984159I09470443I10380014
1735I10904286I11441012I12213163I13048900I13645200I13949782I14185533I14574107
1727I15105587I15563651I15769001I15790634I15901994I16324165I17023221I17792831
1719I18474843I18987889I19233472I19184634I19010505I18937002I19059261I19378675
1711I19848865I20326675I20649613I20813499I20982138I21300405I21700205I21898999
1703I21702008I21328590I21255908I21686520I22349112I22876579I23176245I23329561
1695I23354636I23277117I23282197I23522701I23857193I24026077I24032797I24140224
1687I24498151I24949002I25228510I25266286I25239654I25371255I25684687I25949034
1679I25923551I25714432I25721480I26105629I26551481I26740442I26766335I26867044
1671I27060020I27259794I27490057I27799638I28114054I28253357I28070132I27615594
1663I27152042I26886792I26748390I26542058I26230510I25945512I25806780I25819893
1655I25867174I25761714I25389856I24822564I24265105I23949051I24060329I24596155
1647I25232525I25532847I25387725I25113954I25065034I25290705I25633882I26025898
1639I26545745I27184327I27696308I27843393I27739244I27727692I27899609I27960984
1631I27694177I27341330I27347066I27804309I28346526I28612513I28640538I28705191
1623I28917669I29173742I29410065I29688426I30013986I30256536I30304146I30206879
1615I30124281I30176397I30363555I30631755I30985913I31468476I32026426I32506285
1607I32801116I32916246I32894203I32769404I32598143I32479735I32547010I32903217
1599I33495010I34094751I34512825I34776354I34968920I34994323I34738411I34385403
1591I34259867I34384010I34472919I34310671I33877193I33278844I32804885I32815538
1583I33288430I33699130I33585147I33059810I32624201I32628790I33016135I33486242
1575I33850643I34220124I34810606I35584313I36250346I36661045I36962350I37262179
1567I37457695I37506534I37583478I37836109I38160357I38263032I37923870I37288893
1559I36812640I36772487I37044129I37454827I38010320I38684875I39365085
1552I40012105I40564977I40858661I40922986I41059831I41370232I41561569
1545I41431034I41192989I41144561I41320328I41617208I42025367I42535708
1538I42931409I42894865I42434836I42046508I42164260I42579957I42687303
1531I42179747I41288207I40539575I40402812I40837520I41199297I40992310
1524I40545720I40509338I40973873I41493884I41663178I41411367I41036475
1517I41001406I41464139I42139923I42741221I43194203I43392505I43268361
1510I43125123I43356532I43873265I44279949I44516518I44880100I45501802
1503I46129157I46456193I46548130I46808712I47449343I48195763I48688238
1496I48899572I48943329I48823447I48552133I48190109I47736144I47283900
1489I47148940I47525550I48157823I48607363I48735276I48733473I48731588
1482I48596546I48237308I47923466I48021716I48495838I48905799I48874743
1475I48452654I48065309I48131028I48675294I49307157I49550773I49254467
1468I48795504I48777804I49290522I49640665I49146302I48030402I47171638
1461I47123128I47703285I48458062I49174901I49841835I50367336I50586288
1454I50448460I50034402I49483826I48983645I48677670I48547380I48525502
1447I48676686I49138928I49928449I50841048I51493972I51561984I51086059
1440I50445182I49954343I49574127I49060754I48364402I47839310I47952392
1433I48700450I49510048I49852980I49742520I49499313I49341327I49356650
1426I49545201I49750469I49822167I49839213I49911897I49916485I49735637
1419I49577487I49755058I50271053I50793273I50944461I50635618I50254337
1412I50360944I51031977I51770612I52113049I51946216I51353931I50648319
1405I50333904I50610134I51146203I51536828I51625408I51311812I50469192
1398I49358453I48823774I49563147I51398344I53393822I54479566I54331333
1391I53740851I53582291I53905229I54319861I54609284I54831595I55007524
1384I54813896I53836479I52252027I50948641I50704696I51524127I52847098
1377I54099680I54981060I55405689I55373730I55054644I54822826I54875515
1370I54898461I54470636I53739540I53275660I53354653I53791818I54353703
1363I54951803I55521310I55957002I56146946I56084095I56034438I56358523
1356I56971047I57344708I57258586I57083470I57172381I57478111I57872667
1349I58358917I58938828I59574215I60144867I60349640I60023263I59540700
1342I59415901I59634031I59858558I59977785I59967788I59683281I59324042
1335I59555860I60572773I61559286I61710225I61335909I61356723I62072496
1328I62993536I63594916I63672189I63157750I62173777I61217584I60865720
1321I61219304I61866983I62398793I62832518I63559189I64800545I66077464
1314I66592066I66341403I66191365I66613535I67247365I67845959I68550916
1307I69226045I69628385I70028921I70683320I71139662I70912515I70321624
1300I70014829I70103491I70235010I70234027I70283684I70568272I71176454
1293I72285144I73808056I74900112I74607739I73198563I72220737I72965681
1286I75055148I76666804I76381069I74743436I73625733I74128863I75597365
1279I76676064I76848308I76668525I76686389I76798979I76987612I77788114
1272I79214251I80087272I79537271I78398917I78101628I78878284I80159710
1265I82139783I85451922I89245559I91139264I90020986I87631690I85782317
1258I83953183I81108365I78003132I76282573I76081485I75938986I74791619
1251I72872676I71116799I70544919I71420890I72522533I72410845I71567077
1244I71796353I73503392I75138156I75328920I74213101I72746074I71761282
1237I71761855I72763364I74031351I74630765I74473106I74228916I74133780
1230I73723491I72935444I72599969I73303532I74354944I74590531I73965960
1223I73523303I73803629I74277095I74543905I75007457I75957013I76912142
1216I77313089I77223526I77066277I77143959I77601119I78443330I79279478
1209I79285050I77908242I75652923I73827559I73448243I74520305I76295766
1202I78021815I79426811I80591140I81564624I82245735I82434286I81944676
1195I80985942I80275660I80263941I80600318I80928254I81592321I82876943
1188I84186885I84808750I85020079I85630558I86712535I87670121I88580673
1181I90202736I92212390I93085248I92392829I91484900I91338549I91593802
1174I91912479I92396025I92751658I92686431I92677417I93202672I93953517
1167I94137233I92942175I90419148I88299854I88536178I90863935I93220208
1160I94419033I94822195I94681417I93877392I93233237I94114617I96165324
1153I97197807I96138365I94319475I93341238I93261180I93161045I92476165
1146I91619204I91631414I92975035I94565547I94894141I94226633I94413791
1139I96579055I99818019A002180684A002642269A001884624A001164262A000814939
1132A000385964I99889638I99781227I99912090I99637661I98774802I97678977
1125I96714425I96320443I97065715I98775785A000052704I99571695I97597772
1118I95495604I94262114I94078805I94659620I95427591I95785435I95738155
1111I95789695I95945717I95507403I94142396I92423230I90998649I90067776
1104I89604142I89442304I89437470I89730007I90469789I91365590I91946239
1097I92140608I92305232I92786483I93677205I94943061I96471954I97907271
1090I98934673I99733289A000528302A001118538A001318561A001294470A001184499
1083A001027827A001048884A001280621A001208757A000454961I99510241I99237862
1076I99828754A000662852A001270788A001883231A002635960A003077141A003092135
1069A003370170A004277935A005328118A005934661A006037335A005956946A005900326
1062A005681293A005180948A004981005A005834607A007509361A008706549A008444574
1055A007527880A007412832A008164168A008733754A008288230A006898475A005301404
1048A004309074A004221228A004600627A004892181A005116459A005616885A006517030
1041A007683080A008753257A009165021A008834708A008463339A008581176A009107743
1034A009627753A009891610A010245440A011133376A012286151A013024048A013348789
1027A013731545A013925996A013309866A012022376A010862144A010296982A010239377
1020A010514377A011166726A012200602A013312160A014115776A014465343A014550566
1013A014798771A015583538A016908478A018394844A019502632A019857773A019695034
1006A019759196A020516760A021741645A022720373A022914578A022843613A023402058
999A024547950A025686628A026578663A027509782A028781867A030449736A032331477
992A034121606A035762762A037423584A039010412A040232181A041289085A042584851
985A044123165A045816113A047556010A049050980A050133202A051172322A052643610
978A054444555A056173308A057813973A059729556A061880808A063575552A064499053
971A065379039A066690703A068228117A069789380A071194458A072211372A072884043
964A073455432A073741823A072630265A068396676A061231737A052707362A042421211
957A029980120A016211880A000911796I82924224I62833501I41112029I12938851
950H68718594H07541775G47640399G02246061F70329068F50404567F42682947
943F46642806F61330816F83787768G07784021G30031978G52609837G75945915
936G95725828H11397278H25443223H37588746H47515904H56408367H64910126
929H72819928H80078528H86730995H92247485H96442315I00371896I04590080
922I08755902I12083693I13814576I14187581I14354089I14900404I15985821
915I18255563I22048627I26684229I31287791I35284237I38781895I42391652
908I46347291I50546217I54808405I58378092I59982701I61083607I63895238
901I67680434I70952012I72901684I74563899I77012929I80060641I83252406
894I86367800I89148538I91079199I92333092I94020382I96428198I99196235
887A002107837A005234621A008861995A013319945A018710570A024639152A030589695
880A036234426A040249063A038868811A028315529A007423403I75243945I32300690
873H84432655H41592075H11808469G98058993G99351315H11830017H29786451
866H48302803H65285833H80704081H94860896I07672366I18861041I28061446
859I34125234I34123595I23911847I01356524H70245440H40726756H23256327
852H21276009H32074140H51139017H71325532H86399452H96588584I03388221
845I06206981I05295692I03422963I02684247I03611024I05808655I07268551
838I02903281H90713183H81329553H78486947H79266226H82742333H88574796
831H95671231I02807326I09607291I16376609I23027928I28733216I32969755
824I36500027I40489426I44918039I49155562I52427058I54358866I55810979
817I57679527I59935256I62335205I64921656I67743531I70414220I72385442
810I73771182I75011144I76065178I77008094I78270758I79964604I81889037
803I83934336I85881304I87169203I88261420I90550011I93954172I97870150
796A001866351A005396540A007273283A006007426A001176226I92616779I79098056
789I60218534I40031855I24472831I15412139I12187596I12925822I13712967
782I10762524I03900774H95942543H89589006H85982609H85181451H87057784
775H90933937H95469241H99514442I02431617I04540340I07184562I11185514
768I16274262I21915551I27484075I32222434I35820063I37726469I35972229
761I27266352I09387765H86280636H68391150H62580566H66817433H75767909
754H85638447H94837952I02709650I08802610I14036560I20360763I28612186
747I38328505I48238947I57120020I64659193I71098687I76615016I81298965
740I85281562I88604109I91347891I93935898I96585938I98828639I99637499
733I97622436I91293071I79006034I58852870I31399725I03765732H85228978
726H79442158H84910137H97392691I11711999I24478075I34339843I41265345
719I46402520I51128997I56285430I61976458I67657326I72730587I76909438
712I80039334I82020801I82861292I82400853I79830217I73881231I63891714
705I49810779I31542552I10731878H92288948H81423378H80605422H89357025
698I03808097I18664785I30876027I39421707I43996426I45259168I44967368
691I45110275I47110263I51546825I58133656I65939718I73862139I81187932
684I87823437I94034231A000097771A006130341A012064902A017801576A023392552
677A029023271A034819269A040741050A046612517A052171290A057114179A061196091
670A064355571A066719711A068459608A069705225A070461887A070090439A066519278
663A056521157A038218593A014549499I94159929I86770222I95534772A014544256
656A034374072A048928802A056898832A058664458A053731404A041088406A021037016
649I96401894I72085448I52956246I41269606I35525723I31667024I25329464
642I13286043H93848653H66891428H33627699G96018201G56116509G15922853
635F77869347F45111535F20626205F05643855E99170147E99137656F03855160
628F12328526F23529940F35929444F48040181F59163709F69329731F78689393
621F87108471F94144186F99247519G02130604G03177509G03596402G05058513
614G08935649G15626712G24485742G34369881G44331455G53938872G63099535
607G71708721G79552968G86559757G93077100G99764721H06999885H14206205
600H19853886H22548011H22540472H22133133H24192854H30101196H39178687
593H49753688H60325656H69745587H76831612H80488981H80591491H78593555
586H76857099H77208225H80113515H84965613H90794798H96701419I02011659
579I06434127I10205885I14054260I18900456I25313567I32888385I39684908
572I41441522I31373913I03625118H60479463H15540730G85907571G79622947
565G91692835H11397114H30726340H46155239H56424264H61422628H62525418
558H62381444H63695320H68021996H75420145H84886866H94676688I01809915
551I01888498H91377413H71604958H49773600H34327657H28948913H31472268
544H37994282H46728185H57843354H71093715H84831800H97086060I06771978
537I13721489I17953931I19073765I16106033I07808886H93580617H74708634
530H54836781H38619180H29162211H26162602H26000273H23459054H14012000
523G95870376G71181499G45580350G25748321G16145329G16728436G22417088
516G24715592G16227846F96343374F72793219F56256409F52844258F61523178
509F77349173F95751826G14235072G31814731G47956288G61987238G73194758
502G81434790G87607562G93196901G99003387H04415072H08159707H09696796
495H09800043H10099874H12220806H16896151H23456924H30330637H36342719
488H41501446H46502924H51761703H57125615H62300564H67215512H71927731
481H76390188H80497667H84343665H88271689H92578371H97219873I01868504
474I06217305I10179827I13816297I17125077I20001607I22435152I24536747
467I26118330I26319254I23800570I17002408I03964444H82685874H53214718
460H20224843G92730890G79411616G82826512G98049816H17104286H34471877
453H48722762H60588530H70932778H80178990H88341668H94936693H99248374
446I01440188I03470491I08049061I16138646I25925518I34384338I39215620
439I39510288I35797447I29839775I23770087I19034269I15636826I11641200
432I03896923H90555852H72736673H52707900H30765181H05047590G74810594
425G43710818G19366020G08515937G11784155G23326410G35569855G44008681
418G48494082G51848504G57545269G67527329G81402997G97366984H13571966
411H28841158H42691997H54966333H65461685H73837988H79554748H81744103
404H79609322H73577737H66199582H61443196H62361614H68769891H76654618
397H79863591H73855852H59755250H44451315H34845127H32135024H33260265
390H36586582H43261747H53617140H65331067H75691787H83845697H90360991
383H95768579I00106728I03349216I05695246I07464722I09034590I10876999
376I13331685I16256726I19169884I21870892I24732263I28161417I31861147
369I35004647I37266850I39330177I42153198I45991412I50136830I53014999
362I52329463I46079091I34563630I20918959I08092737H95195879H78628460
355H57505011H36429906H21970148H17373797H21325092H30805332H43952855
348H59949865H76992551H91779752I01591373I06179284I07241594I06733875
341I05896826I04991929I03277433H99539682H93341507H86190252H81275798
334H81462955H87293041H97068115I08661831I20793994I32737200I43726997
327I53253945I61479308I68717670I74758186I79069703I80958901I78920731
320I70982331I57066347I40401337I25299391I13674945I04290496H94585485
313H82130546H65118835H43547399H20640537H02036183G92718189G94538637
306H05817774H22099373H37295960H45321714H42114462H27769752H08033925
299G92870767G90710829H01851483H17555793H26634185H22710995H05351928
292G77341075G43786452G11715894F86410480F68173514F54726941F45898394
285F44607790F54496886F77194095G10036964G45520777G74030496G88032930
278G85043645G69179875G50307564G38904200G39587442G49423726G61697242
271G70545620G73883080G74595739G78894391G91429306H11194304H32766477
264H51106565H64035547H70721857H69410276H57002782H31458911G96462578
257G63285871G44361692G42972590G50895096G56750994G54548608G44273685
250G28043465G08328369F88587953F73270046F66274975F69053747F79944884
243F95602280G12895549G29129457G41457383G47711771G48179830G45834945
236G44389143G46193612G51838752G61057677G73223356G86874992G99912874
229H11309352H21910248H32811464H43892217H54322424H63019945H67626457
222H63566013H45322042H10741652G66055795G25305829G01654843F99166392
215G13113599G35732266G60361652G82648941H01417512H18402511H35157740
208H49026853H57089068H61103460H63611328H66574226H71613152H78826519
201H86519254H92862632H97271333I00040354I01357341I01115611H99359735
194H96459195H92803879H88778507H85201199H82844025H80521266H74612842
187H62801566H48720467H40699549H44407557H58029037H75305261H91220083
180I04116449I14275670I22096973I27700323I31524033I34536261I37590689
173I40726897I43223702I44428590I44636483I44990641I46342538I48502558
166I50839410I53071540I55151501I57004149I58585408I59494156I58636213
159I55408147I51228640I48713233I49113850I51402276I54082881I56854688
152I59980817I63347448I66688923I69618306I71109425I69943620I65906940
145I59932469I53296474I47026763I41562962I36965706I33725680I32832336
138I34567563I37320523I37848154I33478048I25190161I18126995I17619603
131I24800849I36597211I48835656I58801983I66043703I71495540I75869498
124I79210561I81585520I83087045I83542403I83294361I83639259I85490763
117I88134493I90160372I91154092I91544308I91085427I88642540I83372862
110I74491543I59767027I36946780I08147966H80078364H59244090H48515528
103H46667793H50756588H59536870H73179494H90249713I07066154I19945885
96I27124263I28578589I25309634I19166771I12509141I07284284I04042372
89I02404985I02448251I04520756I08010056I11621779I14957518I18783359
82I23613658I28927175I33922015I38486163I43026957I47450161I51030174
75I53505183I55817616I59267584I63807477I67690350I69711885I71199070
68I73589760I75848603I76478417I76339032I77247125I78588370I77188044
61I70300974I58476260I45784260I36376619I32334942I33562613I37100588
54I39530118I40973791I44323542I51366878I61525608I73054835I83955068
47I92815164I98806350A000943344I99116914I95836487I95090969I99369545
40A007715611A016376504A021807609A023183597A022264849A020147360A013729332
33I97566797I75224442I58856967I51433662I49509966I51591402I58492403
26I69970907I82876369I93281174I99570633A002808777A005449967A010174887
19A017264521A020489797A012097108I96190235I82835070I77270889I79586928
12I85898840I90810179I91307903I88084508I84717057I86096814I94802365
5A008950248A024075876A035536107A040607155A042634181
##END=


$$ === CHEMSPECTRA PEAK TABLE EDIT ===
##TITLE=X8617
##JCAMP-DX=5.00
##DATA TYPE=INFRAREDPEAKTABLE
##DATA CLASS=PEAKTABLE
##$CSTHRESHOLD=0.93
##MAXX=3997.453
##MAXY=0.7810299343628466
##MINX=373.96442
##MINY=0.43580722489934137
##$CSSOLVENTNAME=- - -
##$CSSOLVENTVALUE=0
##$CSSOLVENTX=0
##NPOINTS=38
##PEAKTABLE= (XY..XY)
392.3793345973713, 0.71085786353913
413.62731297891924, 0.6906648232718124
454.70673784991186, 0.6811117473594714
497.2026946130077, 0.6564325642779734
518.4506729945265, 0.6158583717511823
559.5300978655482, 0.6674680662980484
570.8623530023738, 0.6791834786930008
634.6062881469898, 0.6115171273685263
678.5187768021888, 0.5085672103838299
706.8494146442531, 0.5414618216819759
721.014733565285, 0.48464229374797974
733.7635205942138, 0.5404314362300703
762.0941584362781, 0.5374721252777928
776.2594773573101, 0.4688817825004099
794.6743919546516, 0.5751557903820815
808.839710875684, 0.5766159255984431
847.0860719624702, 0.6410319165406164
871.167114128225, 0.5945501882726055
927.8283898123532, 0.6052873691367294
940.5771768412819, 0.6266058641074288
971.7408784675526, 0.515367981312339
1021.3194946911649, 0.5669368466856489
1096.3956849726346, 0.47487291363046896
1107.7279401094602, 0.5209175309390265
1145.9743011962469, 0.6029698212756895
1174.3049390383107, 0.567090566912917
1264.962980132916, 0.43580722489934137
1307.4589368960346, 0.7231427967522432
1364.1202125801406, 0.6405442911989718
1400.950041774824, 0.6396981436557679
1444.862530430023, 0.6274331765929985
1473.1931682720874, 0.6438728526398653
1555.352018014073, 0.639003331952757
1579.4330601798279, 0.5973886214200773
1604.9306342376854, 0.5805007773460543
1709.7539942533226, 0.4674816693915171
2850.0621673964033, 0.6458247855115576
2919.4722301094607, 0.6335703685250963
##END=


$$ === CHEMSPECTRA PEAK TABLE AUTO ===
##TITLE=X8617
##JCAMP-DX=5.00
##DATA TYPE=INFRAREDPEAKTABLE
##DATA CLASS=PEAKTABLE
##$CSTHRESHOLD=0.93
##MAXX=3997.453
##MAXY=0.7810299343628466
##MINX=373.96442
##MINY=0.43580722489934137
##NPOINTS=205
##PEAKTABLE= (XY..XY)
3990.370340539484, 0.6713742567824619
3970.5388940500393, 0.6719793622864387
3956.373575129007, 0.6724405244230246
3947.8743837763877, 0.6719630316353634
3939.3751924237686, 0.6714242649006493
3929.459469179046, 0.670818085767837
3922.3768097185302, 0.673065657905564
3915.2941502580143, 0.6715402560939936
3896.8792356606723, 0.6693929984228736
3889.7965762001563, 0.672790045890701
3879.880852955434, 0.6719593357626578
3867.132065926505, 0.6725486474299771
3861.465938358092, 0.6709155990524347
3850.1336832212664, 0.6691422413519882
3831.718768623925, 0.6711800056118697
3818.969981594996, 0.6712941470503841
3813.3038540265834, 0.6702909427382667
3804.8046626739642, 0.6748833609867422
3799.138535105551, 0.6717321825235569
3792.055875645035, 0.6720540478652463
3777.890556724003, 0.6729716019094861
3766.5583015871775, 0.6744893741188506
3756.642578342455, 0.675229366247243
3748.1433869898356, 0.6744480677769231
3742.477259421423, 0.6721575213901412
3731.1450042845972, 0.6722946120087111
3724.0623448240813, 0.6730055761520488
3707.063962118843, 0.6731509517519446
3698.564770766224, 0.6751703573951725
3685.8159837372946, 0.6717479181689496
3673.067196708366, 0.6755188059614041
3667.401069139953, 0.6740583135961549
3654.6522821110243, 0.6779646233726611
3646.153090758405, 0.6711511565649543
3626.32164426896, 0.6758925255391567
3616.4059210242376, 0.6755953980315247
3605.073665887412, 0.6739622907353268
3593.7414107505865, 0.676879222444232
3583.825687505864, 0.6734107684753685
3563.994241016419, 0.673750217035108
3549.828922095387, 0.6749966695627792
3541.329730742768, 0.6739802318296554
3531.414007498045, 0.6753105474259838
3518.6652204691163, 0.6745524352651235
3505.9164334401876, 0.6744059278451273
3500.250305871775, 0.6737728672575406
3486.084986950743, 0.6747217725730823
3479.002327490227, 0.6746365980187945
3470.5031361376073, 0.6742531015811647
3459.1708810007817, 0.675503726422522
3453.504753432369, 0.6755480121572073
3445.00556207975, 0.6748906327126698
3435.0898388350274, 0.6748438432988165
3426.590647482408, 0.6757090048377937
3418.0914561297886, 0.6750606850457948
3408.1757328850663, 0.674096639090543
3399.676541532447, 0.6734954665886758
3388.3442863956216, 0.6752476048444129
3378.428563150899, 0.6751387668122942
3365.6797761219705, 0.6749376010646623
3360.0136485535572, 0.6757327272342802
3345.8483296325253, 0.6759540991712233
3337.349138279906, 0.6749536334855055
3324.6003512509774, 0.6717534601595311
3306.1854366536354, 0.6627032113293727
3272.1886712431588, 0.6721340375778403
3252.357224753714, 0.6745378328946128
3243.8580334010944, 0.6741970139305873
3225.443118803753, 0.675522680772249
3211.277799882721, 0.6768205714684401
3199.945544745895, 0.6768376185994632
3185.780225824863, 0.6779873921597956
3175.8645025801407, 0.6780646992550825
3163.115715551212, 0.6791737629339516
3153.1999923064895, 0.6791862798750101
3130.535482032838, 0.6729081821595438
3113.5370993275997, 0.664234275878399
3092.2891209460513, 0.6718620610622457
3061.125419319781, 0.6678327873240906
3039.877440938233, 0.6680467085969667
3034.2113133698203, 0.6682571725813229
3012.963334988272, 0.670860702868004
2991.715356606724, 0.66590088170357
2974.7169739014853, 0.6591526225724165
2954.8855274120406, 0.6543309642006062
2919.4722301094607, 0.6335703677977056
2871.310145777951, 0.6556359476845857
2865.6440182095384, 0.6552419615440848
2850.0621673964033, 0.6458247855115576
2800.483551172791, 0.6684263302237516
2782.0686365754495, 0.6701130811374055
2772.1529133307267, 0.6715832899890948
2756.5710625175916, 0.6730108213671797
2749.4884030570756, 0.6733561705211699
2719.7412333229086, 0.6734233436076918
2709.825510078186, 0.6720720486056213
2699.909786833464, 0.6728838043839376
2687.1609998045346, 0.6748205973433106
2681.494872236122, 0.6745395611751773
2660.2468938545735, 0.6765638541572576
2641.831979257232, 0.6782771897502353
2626.250128444097, 0.6795720414076223
2617.7509370914777, 0.6785137008721068
2609.2517457388585, 0.6783822729909929
2579.504576004691, 0.6813996981046445
2558.2565976231426, 0.6845799045528844
2546.924342486317, 0.6852359725117915
2537.0086192415947, 0.6840403631469577
2529.9259597810787, 0.6841178491803838
2521.4267684284596, 0.6844757749214788
2511.511045183737, 0.6860205471503197
2481.76387544957, 0.6889474346572414
2469.015088420641, 0.6895108177517475
2460.515897068022, 0.6896139930464102
2450.600173823299, 0.6901322553615813
2442.10098247068, 0.6889286592456537
2423.6860678733383, 0.6899487332054366
2405.2711532759968, 0.6894496034507411
2395.3554300312744, 0.6905421568130049
2382.6066430023457, 0.6907139374266945
2374.1074516497265, 0.691206271896443
2362.7751965129005, 0.6912641482010222
2351.442941376075, 0.690165693517117
2341.527218131352, 0.6936269950521458
2327.36189921032, 0.6915338588942438
2316.0296440734946, 0.6945293488106291
2308.9469846129787, 0.6934039544806846
2296.19819758405, 0.6954106642447148
2289.115538123534, 0.6961737212083015
2273.533687310399, 0.6978703093552698
2265.0344959577797, 0.6978034919628541
2257.9518364972632, 0.6992669055295962
2245.2030494683345, 0.6989248943720332
2231.037730547302, 0.7027987196023556
2214.0393478420638, 0.7055798721783215
2209.789752165754, 0.7057393147890919
2197.0409651368254, 0.707184429385227
2188.5417737842063, 0.7082064105637137
2181.4591143236903, 0.7104197095012552
2168.7103272947616, 0.7114621354532387
2141.7962213448004, 0.7059654547727944
2136.1300937763876, 0.7067089631083624
2126.2143705316653, 0.7068502260406184
2112.049051610633, 0.7074602792568849
2104.966392150117, 0.7081319039230455
2092.217605121188, 0.7107090306507143
2079.4688180922594, 0.7080773059688469
2062.470435387021, 0.7130349820577823
2038.3893932212663, 0.7210905501413347
2029.8902018686472, 0.7220644304203377
2021.391010516028, 0.7188802313239417
2010.0587553792022, 0.722468728780352
1995.8934364581703, 0.7212946960091152
1988.8107769976543, 0.7231913159014427
1964.7297348318998, 0.7247143340533289
1953.397479695074, 0.7230837879001728
1947.7313521266615, 0.7242907831133556
1933.566033205629, 0.7197077227476507
1709.7539942533226, 0.4674816693915171
1604.9306342376854, 0.5805007773460543
1579.4330601798279, 0.5973886214200773
1565.267741258796, 0.6566042255995701
1555.352018014073, 0.639003331952757
1484.525423408913, 0.6635168743263927
1473.1931682720874, 0.6438728526398653
1444.862530430023, 0.6274331765929985
1400.950041774824, 0.6396981436557679
1364.1202125801406, 0.6405442911989718
1352.787957443315, 0.6873605792330881
1306.0424050039092, 0.7177675910644599
1264.962980132916, 0.43580722489934137
1218.2174276935102, 0.5980120855407077
1202.635576880375, 0.6378177954958602
1174.3049390383107, 0.567090566912917
1162.9726839014852, 0.6272883370801297
1145.9743011962469, 0.6029698212756895
1107.7279401094602, 0.5209175309390265
1096.3956849726346, 0.47487291363046896
1021.3194946911649, 0.5669368466856489
971.7408784675526, 0.515367981312339
940.5771768412819, 0.6266058641074288
927.8283898123532, 0.6052873691367294
871.167114128225, 0.5945501882726055
847.0860719624702, 0.6410319165406164
808.839710875684, 0.5766159255984431
794.6743919546516, 0.5751557903820815
776.2594773573101, 0.4688817825004099
762.0941584362781, 0.537472124550402
733.7635205942138, 0.5404314347752887
721.014733565285, 0.48464229374797974
706.8494146442531, 0.5414618216819759
678.5187768021888, 0.5085672089290483
634.6062881469898, 0.6115171259137447
594.9433951680999, 0.6900852870095887
569.4458211102419, 0.6785336684772322
559.5300978655196, 0.6674680662980484
542.5317151602812, 0.7152392817162224
518.4506729945265, 0.6158583717511823
498.61922650508177, 0.6564010929871879
464.62246109460466, 0.710180039321096
453.2902059577791, 0.678171868652683
432.0422275762312, 0.7238200259645949
413.6273129788897, 0.6906648232718124
392.3793345973413, 0.71085786353913
383.88014324472215, 0.7162741377120462
##END=

##END=

