##TITLE=2-COOH-8-NO2-qu
##JCAMP-DX=5.0
##DATA TYPE=LINK
##BLOCKS=1


$$ === CHEMSPECTRA SPECTRUM ORIG ===
##TITLE=2-COOH-8-NO2-qu
##JCAMP-DX=5.00
##DATA TYPE=INFRARED SPECTRUM
##DATA CLASS=XYDATA
##$CSCATEGORY=SPECTRUM
##ORIGIN=
##OWNER=
##XUNITS=1/CM
##YUNITS=TRANSMITTANCE
##XFACTOR=0.12501352010900002
##YFACTOR=0.0040300136182977965
##FIRSTX=4000.433
##LASTX=249.7859
##MAXX=4000.433
##MAXY=128.96043578552948
##MINX=249.7859
##MINY=36.673123926509945
##NPOINTS=3890
##XYDATA= (X++(Y..Y))
3890B4746B4775B4842B4824B4807B4808B4836B4854B4833B4799B4783B4791B4839B4898
3876B4856B4766B4728B4754B4773B4780B4786B4774B4774B4782B4791B4785B4799
3863B4785B4762B4774B4820B4840B4835B4816B4773B4764B4783B4777B4726B4713
3850B4744B4749B4750B4767B4765B4774B4798B4797B4806B4846B4889B4821B4788
3837B4844B4884B4889B4822B4751B4760B4727B4751B4789B4779B4815B4813B4758
3824B4766B4785B4800B4814B4827B4884B4813B4747B4769B4779B4740B4710B4759
3811B4803B4805B4817B4818B4829B4859B4809B4780B4863B4880B4859B4818B4785
3798B4805B4832B4803B4777B4765B4753B4744B4778B4820B4789B4791B4921B4849
3785B4876B4856B4793B4812B4840B4832B4810B4738B4736B4788B4805B4847B4830
3772B4777B4864B4849B4806B4863B4775B4659B4777B4796B4759B4774B4737B4693
3759B4748B4772B4748B4697B4681B4842B4824B4770B4709B4722B4853B4780B4716
3746B4827B4795B4752B4743B4706B4731B4734B4736B5036B4981B4871B4875B4815
3733B4789B4790B4760B4739B4766B4776B4801B4664B4575B4705B4774B4767B4899
3720B4756B4653B4808B4828B4768B4830B4863B4783B4735B4698B4743B4768B4758
3707B4808B4788B4719B4730B4799B4805B4785B4755B4822B4948B4839B4724B4693
3694B4731B4752B4729B4642B4595B4753B4824B4819B4797B4758B4781B4916B4873
3681B4735B4638B4664B4764B4763B4766B4808B4811B4837B4858B4857B4818B4758
3668B4729B4710B4727B4816B4843B4808B4696B4637B4693B4714B4785B4798B4757
3655B4774B4818B4818B4742B4737B4816B4811B4755B4708B4792B4795B4774B4793
3642B4771B4679B4723B4754B4712B4717B4759B4725B4719B4769B4879B4795B4762
3629B4812B4768B4774B4723B4701B4971B4844B4756B4751B4736B4704B4767B4839
3616B4820B4778B4875B4827B4765B4824B4840B4843B4832B4806B4805B4796B4788
3603B4746B4727B4792B4787B4740B4785B4834B4824B4783B4756B4736B4710B4769
3590B4795B4730B4769B4790B4783B4812B4835B4877B4843B4788B4869B4871B4850
3577B4844B4820B4789B4773B4787B4822B4781B4732B4791B4778B4730B4810B4768
3564B4734B4728B4746B4795B4818B4799B4774B4781B4802B4790B4781B4817B4849
3551B4810B4777B4750B4820B4840B4849B4848B4817B4788B4767B4760B4769B4781
3538B4791B4800B4811B4793B4737B4776B4819B4791B4805B4776B4762B4797B4847
3525B4813B4737B4802B4826B4826B4802B4809B4815B4825B4827B4803B4775B4790
3512B4832B4771B4771B4802B4839B4873B4849B4945B5023B4899B4852B4873B4817
3499B4843B4850B4805B4821B4872B4825B4851B4865B4763B4773B4778B4813B4839
3486B4767B4794B4902B4810B4809B4863B4856B4850B4794B4786B4775B4798B4778
3473B4778B4814B4845B4841B4809B4826B4857B4866B4895B4825B4800B4820B4935
3460B5017B4917B4848B4794B4779B4797B4878B4929B4888B4875B4823B4753B4766
3447B4819B4862B4855B4880B4861B4756B4763B4799B4819B4773B4792B4814B4797
3434B4849B4878B4799B4750B4765B4786B4808B4823B4829B4824B4823B4807B4814
3421B4843B4868B4872B4838B4834B4837B4839B4786B4795B4832B4840B4801B4817
3408B4860B4844B4832B4858B4843B4773B4705B4726B4763B4822B4843B4837B4819
3395B4818B4848B4847B4855B4869B4902B4916B4876B4800B4783B4857B4881B4863
3382B4834B4797B4796B4829B4812B4817B4836B4798B4798B4812B4807B4799B4815
3369B4866B4855B4856B4820B4799B4835B4847B4858B4875B4860B4836B4820B4812
3356B4831B4836B4841B4874B4894B4847B4848B4855B4850B4852B4829B4807B4778
3343B4784B4836B4812B4763B4785B4839B4864B4889B4904B4852B4832B4835B4818
3330B4846B4863B4865B4835B4821B4818B4833B4830B4842B4874B4862B4831B4810
3317B4825B4833B4808B4807B4857B4836B4786B4799B4813B4830B4843B4813B4798
3304B4819B4827B4820B4822B4762B4756B4821B4859B4823B4793B4806B4837B4836
3291B4823B4852B4837B4791B4799B4832B4826B4820B4810B4808B4812B4814B4797
3278B4779B4770B4783B4830B4841B4793B4808B4828B4838B4835B4862B4867B4870
3265B4884B4910B4907B4882B4828B4787B4809B4839B4830B4831B4803B4804B4825
3252B4819B4814B4806B4794B4799B4822B4823B4834B4812B4808B4825B4846B4838
3239B4855B4871B4826B4807B4876B4892B4858B4884B4869B4810B4805B4876B4908
3226B4890B4830B4790B4814B4853B4842B4796B4769B4787B4824B4863B4853B4812
3213B4792B4810B4813B4814B4853B4867B4847B4841B4847B4842B4837B4837B4852
3200B4859B4841B4822B4791B4789B4822B4821B4811B4806B4810B4807B4777B4746
3187B4751B4745B4747B4767B4796B4813B4825B4797B4810B4807B4803B4796B4756
3174B4786B4817B4855B4841B4833B4859B4821B4798B4795B4762B4761B4765B4734
3161B4712B4752B4806B4779B4691B4683B4738B4758B4778B4796B4788B4793B4812
3148B4816B4840B4855B4863B4879B4888B4903B4881B4848B4847B4850B4818B4853
3135B4900B4853B4830B4812B4803B4780B4773B4791B4801B4814B4818B4815B4823
3122B4828B4813B4796B4783B4802B4812B4818B4855B4867B4874B4879B4886B4860
3109B4825B4818B4840B4859B4847B4831B4805B4808B4811B4769B4802B4838B4830
3096B4842B4808B4798B4793B4802B4809B4816B4850B4867B4872B4870B4844B4842
3083B4896B4913B4891B4844B4783B4768B4774B4754B4698B4696B4700B4674B4647
3070B4611B4576B4533B4447B4360B4299B4245B4191B4164B4101B4053B3996B3957
3057B3969B3944B3845B3762B3672B3542B3373B3185B2973B2747B2494B2247B2006
3044B1806B1686B1561B1468B1419B1406B1418B1445B1515B1614B1722B1845B1949
3031B2048B2221B2408B2597B2809B2964B3102B3283B3443B3575B3687B3791B3865
3018B3953B4044B4117B4201B4248B4314B4361B4356B4348B4374B4454B4497B4493
3005B4489B4509B4527B4550B4560B4541B4524B4538B4567B4563B4554B4575B4564
2992B4534B4499B4518B4544B4537B4481B4432B4387B4351B4312B4281B4263B4218
2979B4181B4169B4199B4189B4144B4144B4141B4131B4121B4107B4079B4029B4000
2966B3974B3904B3850B3816B3778B3703B3652B3646B3593B3546B3531B3515B3520
2953B3525B3569B3623B3669B3653B3617B3656B3684B3662B3664B3680B3644B3613
2940B3605B3570B3534B3502B3445B3384B3330B3301B3288B3258B3213B3251B3306
2927B3305B3305B3345B3393B3448B3553B3638B3735B3824B3917B3973B4030B4117
2914B4177B4195B4210B4244B4270B4250B4218B4182B4206B4243B4240B4216B4231
2901B4252B4283B4301B4280B4296B4324B4340B4353B4382B4404B4432B4462B4472
2888B4491B4502B4494B4523B4553B4545B4502B4486B4501B4497B4522B4546B4498
2875B4465B4455B4424B4434B4458B4420B4413B4420B4428B4426B4460B4488B4496
2862B4486B4513B4554B4555B4552B4599B4627B4633B4667B4677B4676B4683B4688
2849B4695B4695B4705B4689B4694B4723B4776B4765B4700B4661B4695B4711B4703
2836B4727B4734B4710B4707B4712B4716B4751B4764B4754B4764B4746B4713B4718
2823B4737B4753B4768B4780B4788B4778B4774B4782B4796B4807B4809B4790B4773
2810B4772B4781B4755B4728B4745B4805B4801B4778B4787B4817B4814B4806B4795
2797B4772B4778B4809B4831B4804B4787B4801B4811B4808B4795B4792B4824B4854
2784B4832B4791B4812B4790B4775B4775B4750B4752B4778B4785B4743B4717B4739
2771B4741B4729B4744B4757B4764B4753B4740B4759B4789B4771B4755B4764B4773
2758B4794B4767B4730B4725B4744B4787B4785B4751B4755B4744B4723B4739B4744
2745B4726B4723B4723B4695B4683B4691B4717B4736B4739B4730B4740B4761B4766
2732B4792B4801B4805B4813B4808B4803B4830B4841B4832B4809B4788B4757B4764
2719B4773B4761B4730B4717B4711B4720B4700B4703B4739B4733B4689B4681B4694
2706B4709B4727B4722B4732B4750B4777B4793B4803B4796B4777B4799B4829B4837
2693B4835B4811B4821B4824B4828B4808B4808B4797B4786B4757B4728B4740B4760
2680B4761B4756B4765B4770B4743B4746B4773B4772B4756B4769B4792B4797B4787
2667B4786B4791B4785B4767B4759B4767B4778B4773B4779B4772B4731B4709B4708
2654B4695B4712B4716B4667B4649B4665B4667B4651B4645B4639B4646B4640B4627
2641B4625B4614B4625B4642B4631B4615B4622B4637B4648B4641B4622B4589B4570
2628B4576B4571B4569B4563B4530B4489B4486B4491B4494B4501B4477B4450B4455
2615B4447B4436B4446B4444B4438B4460B4484B4476B4454B4439B4416B4418B4453
2602B4472B4457B4464B4470B4473B4469B4474B4486B4473B4469B4487B4499B4505
2589B4499B4492B4483B4481B4503B4522B4551B4544B4550B4593B4617B4604B4622
2576B4651B4661B4655B4667B4697B4716B4714B4711B4733B4748B4758B4767B4776
2563B4789B4805B4816B4818B4824B4815B4812B4780B4758B4756B4757B4761B4774
2550B4782B4776B4785B4798B4791B4780B4801B4801B4783B4778B4795B4792B4783
2537B4800B4788B4768B4761B4747B4735B4712B4676B4662B4665B4652B4639B4617
2524B4632B4639B4597B4573B4572B4551B4545B4552B4557B4539B4526B4527B4530
2511B4532B4496B4481B4512B4520B4479B4421B4428B4451B4441B4407B4403B4423
2498B4411B4381B4369B4351B4299B4288B4291B4273B4260B4245B4255B4273B4286
2485B4263B4237B4243B4273B4269B4233B4214B4209B4201B4188B4182B4191B4213
2472B4252B4257B4239B4179B4152B4150B4162B4161B4135B4110B4107B4134B4128
2459B4097B4085B4098B4096B4115B4136B4128B4120B4116B4120B4167B4183B4146
2446B4110B4121B4143B4151B4152B4166B4183B4202B4181B4134B4137B4144B4169
2433B4173B4169B4155B4138B4143B4154B4150B4208B4275B4265B4212B4212B4250
2420B4302B4314B4267B4202B4213B4228B4271B4327B4304B4271B4291B4315B4273
2407B4252B4276B4285B4297B4281B4298B4275B4214B4199B4185B4180B4183B4210
2394B4186B4176B4209B4214B4230B4246B4192B4157B4142B4111B4095B4072B4064
2381B4067B4094B4113B4098B4083B4053B4046B4049B4034B4038B4063B4066B4038
2368B4028B4040B3992B3998B4012B3966B3966B3964B3966B4010B4017B4030B4064
2355B4051B4005B3994B4004B4041B4065B4040B3991B4007B4034B3999B4003B4036
2342B4006B4006B4046B4035B4007B4034B4061B4040B4015B3989B3983B4006B4023
2329B4023B4007B4011B4023B4026B4021B3992B4016B4059B4067B4064B4089B4086
2316B4041B4046B4045B4050B4073B4067B4038B4074B4115B4116B4094B4089B4073
2303B4067B4074B4090B4099B4052B4045B4078B4098B4082B4106B4126B4132B4135
2290B4089B4078B4112B4117B4184B4236B4201B4163B4137B4118B4112B4117B4153
2277B4127B4104B4099B4090B4063B4085B4136B4120B4105B4093B4095B4069B4067
2264B4134B4209B4248B4231B4221B4200B4202B4202B4211B4237B4286B4304B4280
2251B4286B4296B4246B4235B4221B4225B4233B4220B4217B4237B4218B4202B4249
2238B4247B4210B4248B4265B4207B4188B4217B4256B4269B4270B4302B4298B4271
2225B4262B4289B4300B4299B4313B4298B4289B4297B4282B4267B4268B4275B4305
2212B4308B4287B4274B4278B4304B4325B4283B4263B4244B4277B4352B4412B4320
2199B4194B4200B4247B4303B4392B4437B4408B4333B4227B4276B4357B4355B4328
2186B4315B4390B4341B4307B4355B4375B4371B4358B4384B4369B4286B4251B4360
2173B4455B4455B4441B4448B4381B4346B4337B4330B4318B4390B4429B4429B4471
2160B4486B4467B4482B4436B4403B4474B4450B4398B4403B4409B4456B4440B4480
2147B4449B4525B4500B4483B4404B4432B4431B4407B4396B4496B4519B4502B4484
2134B4505B4536B4518B4490B4469B4520B4527B4537B4547B4564B4588B4529B4594
2121B4619B4606B4604B4545B4481B4438B4446B4462B4504B4486B4493B4539B4488
2108B4423B4452B4510B4533B4528B4539B4592B4618B4633B4629B4577B4533B4554
2095B4580B4588B4596B4616B4658B4655B4648B4616B4616B4680B4682B4613B4489
2082B4444B4524B4591B4584B4563B4569B4608B4638B4625B4617B4656B4647B4598
2069B4523B4496B4581B4564B4508B4524B4580B4718B4812B4914B4847B4708B4823
2056B4751B4708B4780B4792B4705B4682B4638B4648B4747B4608B4485B4544B4590
2043B4600B4584B4623B4709B4725B4626B4633B4893B4886B4786B4757B4807B4739
2030B4808B4871B4746B4697B4772B4815B4879B4978B4919B4793B4701B4730B4708
2017B4760B4773B4690B4800B4834B4692B4653B4724B4749B4722B4776B4734B4797
2004B4907B5074B5177B5045B4801B4705B4821B4847B4867B4633B4508B4726B5126
1991B5342B5218B4888B4704B4752B4582B4661B4848B4842B4747B4877B5134B5313
1978B5266B4999B4940B5143B5173B5137B5081B5067B4911B4940B5080B5188B5062
1965B5120B5185B5066B5034B5125B5107B4898B4819B4988B5096B5116B5064B5045
1952B4942B4869B4874B4983B4955B4849B4828B4827B4860B4946B4917B4863B4872
1939B4884B4875B4899B4853B4824B4923B4959B4940B5003B5020B4914B4814B4874
1926B4924B4885B4854B4864B4925B4853B4767B4841B4896B4984B4950B4864B4930
1913B5039B5098B5028B4878B4912B4961B4940B4958B4956B4953B4950B4900B4885
1900B4921B4936B4900B4936B4957B4857B4853B4876B4815B4860B4843B4795B4923
1887B4955B4924B5048B4992B4833B4858B4889B4873B4920B4871B4804B4873B4971
1874B4864B4812B4978B4988B4798B4689B4789B5034B5102B4945B4963B5024B4955
1861B4857B4892B4812B4731B4723B4817B5010B5052B5005B4813B4713B4706B4866
1848B4991B5151B5255B4967B4829B4895B4930B5042B5115B4981B4818B4763B4666
1835B4562B4796B4959B4822B4748B4812B4779B4532B4405B4387B4340B4334B4497
1822B4453B4561B4682B4780B4593B4575B4641B4628B4671B4629B4769B4753B4522
1809B4436B4396B4330B4202B4254B4380B4354B4278B4271B4317B4314B4317B4375
1796B4399B4339B4325B4328B4320B4442B4506B4540B4563B4696B4686B4451B4322
1783B4232B4263B4234B4145B4226B4215B4161B4121B4144B4155B4090B4042B4036
1770B3983B3947B3920B3905B3911B3915B3870B3854B3889B3768B3730B3634B3620
1757B3611B3646B3723B3744B3719B3669B3655B3645B3670B3659B3690B3723B3732
1744B3717B3617B3570B3583B3577B3563B3552B3582B3657B3635B3588B3613B3611
1731B3582B3594B3545B3527B3552B3501B3495B3553B3569B3593B3581B3570B3571
1718B3626B3665B3684B3714B3739B3750B3699B3652B3641B3609B3651B3685B3711
1705B3752B3776B3731B3743B3804B3776B3761B3759B3744B3710B3696B3661B3655
1692B3698B3754B3784B3751B3697B3703B3695B3702B3784B3796B3777B3789B3825
1679B3846B3834B3830B3825B3838B3896B3931B3936B3943B3946B3949B3957B3961
1666B4002B4015B3998B4038B4064B4072B4150B4165B4162B4190B4207B4262B4320
1653B4331B4339B4363B4381B4369B4361B4406B4465B4472B4466B4501B4524B4544
1640B4581B4592B4572B4582B4593B4624B4657B4648B4663B4704B4730B4731B4748
1627B4785B4804B4798B4793B4789B4805B4810B4810B4831B4845B4850B4848B4847
1614B4846B4830B4812B4826B4832B4806B4811B4812B4776B4780B4784B4775B4765
1601B4806B4815B4796B4792B4790B4801B4795B4774B4750B4719B4691B4698B4702
1588B4713B4690B4681B4695B4688B4697B4691B4696B4715B4660B4634B4597B4619
1575B4652B4578B4513B4481B4470B4436B4396B4362B4331B4298B4262B4235B4202
1562B4159B4134B4096B4067B4070B3992B3875B3817B3768B3699B3629B3539B3446
1549B3378B3288B3226B3171B3077B3008B2978B2933B2961B2973B2860B2750B2688
1536B2592B2498B2361B2261B2154B2014B1849B1686B1530B1380B1254B1172B1111
1523B1108B1045B1033B1120B1240B1420B1588B1778B2018B2280B2505B2803B3140
1510B3364B3617B3810B3968B4204B4573B4621B4509B4564B4740B4894B4699B4626
1497B4695B4626B4571B4533B4441B4316B4158B4111B4089B3871B3647B3419B3228
1484B3074B2921B2763B2627B2533B2410B2240B2093B1986B1885B1785B1695B1601
1471B1492B1412B1375B1362B1349B1370B1388B1405B1431B1476B1538B1611B1692
1458B1810B1948B2157B2285B2266B2359B2506B2704B2939B3319B3691B3834B3897
1445B4020B4014B3808B3402B2872B2336B1766B1161B0512B0179A9971A9860A9823
1432A9832A9875A9948B0044B0140B0225B0305B0370B0330B0284B0295B0380B0511
1419B0733B0995B1036B1139B1317B1480B1658B1849B2036B2246B2452B2669B2838
1406B2797B2702B2397B1994B1720B1612B1609B1668B1719B1710B1641B1590B1567
1393B1527B1401B1095B0531A9714A8787A7931A7336A7148A7379A7927A8638A9350
1380B0007B0575B1028B1510B2142B2346B2549B2786B3002B3172B3371B3561B3622
1367B3681B3765B3794B3834B3774B3670B3570B3517B3167B2786B2443B2245B2277
1354B2591B2999B3245B3565B3898B4286B4521B4636B4784B4835B4963B4910B4863
1341B4834B4679B4323B3505B2480B1448B0531A9562A8905A8002A7327A6797A6336
1328A6030A5675A5364A5111A4852A4503A4292A4094A4033A4114A4384A4700A5107
1315A5667A6122A6501A6883A7222A7577A7844A8051A8303A8531A8827A9099A9306
1302A9394A9531A9706A9867B0030B0203B0406B0541B0654B0583B0251A9888A9679
1289A9754B0017B0361B0656B0865B1095B1286B1446B1613B1769B1929B2100B2257
1276B2373B2493B2518B2643B2713B2751B2814B2848B2815B2723B2590B2420B2218
1263B1890B1563B1156B0717B0426B0160A9965A9813A9771A9834B0034B0228B0350
1250B0567B0810B1026B1170B1207B1115B0934B0717B0584B0616B0733B0889B1009
1237B1118B1329B1467B1606B1756B1939B2019B1943B1936B1880B1717B1443B1142
1224B0951B1047B1356B1736B2088B2415B2725B2952B3144B3338B3606B3781B3807
1211B3905B4002B4072B4117B4148B4181B4202B4217B4268B4364B4451B4505B4599
1198B4686B4724B4760B4789B4920B4937B4862B4749B4630B4528B4363B4111B3891
1185B3713B3560B3433B3356B3349B3344B3414B3597B3845B4055B4220B4314B4386
1172B4368B4293B4147B4034B3824B3623B3476B3380B3324B3306B3301B3316B3322
1159B3328B3352B3406B3451B3470B3461B3421B3303B2989B2572B1960B1177B0287
1146A9410A8675A8036A7587A7463A7648A8040A8463A8681A8788A8645A8247A7670
1133A6746A5622A4570A3834A3516A3659A4155A4773A5339A5775A6055A6173A6168
1120A6157A6278A6569A6999A7499A8008A8480A8902A9120A9281A9376A9325A9226
1107A8940A8630A8388A8317A8456A8768A9130A9410A9426A9346A9070A8677A8245
1094A7797A7402A7116A6922A6824A6730A6676A6693A6773A6910A7086A7286A7504
1081A7728A7917A8069A8197A8310A8402A8503A8585A8659A8767A8902A9029A9145
1068A9289A9430A9558A9689A9818A9950B0053B0155B0287B0431B0537B0606B0646
1055B0665B0665B0672B0691B0716B0716B0623B0389B0008A9466A8878A8290A7765
1042A7390A7297A7529A7954A8470A9012A9536B0010B0399B0743B1053B1343B1629
1029B1918B2195B2448B2663B2834B2904B2834B2545B1961B1110B0236A9615A9353
1016A9347A9414A9441A9436A9358A9196A8949A8620A8291A8079A8012A8062A8175
1003A8323A8478A8566A8577A8574A8607A8756A9019A9316A9615A9850B0059B0304
990B0550B0772B0996B1249B1473B1672B1862B2053B2223B2363B2497B2658B2805
977B2943B3076B3196B3286B3404B3521B3630B3755B3865B4011B4168B4282B4370
964B4422B4379B4174B3761B3043B2049B1094B0606B0565B0731B1012B1381B1800
951B2211B2556B2838B3044B3211B3321B3316B3281B3324B3420B3605B3835B3991
938B4079B4186B4302B4408B4486B4547B4611B4683B4736B4795B4864B4902B4929
925B4950B4947B4913B4824B4658B4408B4074B3533B2768B1897B1148B0878B1210
912B1825B2373B2740B2975B3176B3459B3792B4031B4131B4088B3894B3563B3077
899B2399B1523B0538A9538A8646A7996A7680A7705A7977A8365A8838A9327A9762
886B0138B0470B0754B1001B1224B1428B1621B1822B1997B2180B2348B2471B2609
873B2763B2868B2994B3121B3233B3320B3399B3440B3464B3434B3387B3358B3348
860B3357B3390B3479B3571B3603B3650B3680B3687B3690B3644B3620B3660B3694
847B3724B3768B3819B3848B3858B3870B3880B3878B3844B3833B3828B3809B3819
834B3794B3774B3751B3708B3633B3573B3548B3510B3432B3399B3378B3340B3292
821B3266B3236B3180B3136B3098B3002B2767B2371B1822B1212B0761B0545B0528
808B0668B0909B1161B1372B1557B1747B1911B2077B2194B2282B2353B2434B2464
795B2464B2537B2728B2892B2948B2915B2878B2831B2879B3031B3237B3422B3477
782B3392B3206B2959B2878B3036B3202B3175B3017B2959B3167B3476B3687B3807
769B3870B3863B3865B3955B4068B4114B4116B4164B4248B4309B4358B4409B4453
756B4507B4524B4542B4579B4605B4653B4680B4716B4713B4709B4705B4727B4713
743B4666B4678B4712B4729B4786B4843B4847B4830B4837B4848B4839B4819B4837
730B4827B4788B4717B4664B4689B4719B4718B4769B4793B4735B4656B4564B4490
717B4441B4349B4257B4232B4190B4099B3969B3755B3500B3201B2900B2604B2292
704B1977B1738B1537B1340B1086B0845B0685B0669B0828B1129B1507B1942B2392
691B2785B3123B3421B3648B3827B3891B3854B3699B3432B2974B2343B1723B1402
678B1523B1952B2411B2812B2996B2756B2104B1286B0748B0754B1156B1739B2339
665B2851B3207B3491B3706B3853B3968B4061B4092B4137B4107B4035B3905B3626
652B3185B2641B1990B1364B0783B0284B0001A9669A9039A8399A8233A8620A9308
639A9781A9601A8578A6762A4876A3853A4139A5304A6770A8193A9392B0340B1108
626B1737B2243B2617B2957B3251B3426B3545B3735B3913B4046B4142B4189B4276
613B4400B4454B4492B4504B4495B4429B4311B4084B3688B3219B2793B2141B1314
600B0519A9672A9505B0525B1848B2907B3635B4076B4330B4489B4602B4699B4744
587B4767B4785B4863B4901B4843B4833B4746B4489B4051B3243B1979B0684B0183
574B0635B1480B2200B2567B2375B1545B0513B0223B0902B1851B2556B2946B3105
561B3173B3174B3033B2747B2434B2178B1686B0507A8643A7081A7016A8235A9586
548B0379B0626B0757B0962B0668A9023A6149A3904A4336A6595A8167A8209A7682
535A7926A9133B0522B1568B2357B2904B3213B3203B2794B1832A9836A7228A5760
522A6264A7023A6261A4132A1872A0263I306I100I733A0897A2253A3579A4751A5811
508A6801A7646A8305A8835A9228A9372A9399A9602A9960B0321B0503B0569B0562
495B0537B0699B1105B1526B1853B2056B2256B2456B2640B2816B2864B2952B3104
482B3168B3243B3332B3361B3383B3444B3486B3543B3582B3627B3676B3716B3741
469B3776B3823B3860B3883B3925B3968B4035B4089B4118B4168B4224B4290B4330
456B4378B4442B4477B4512B4547B4597B4616B4630B4666B4699B4709B4767B4858
443B4894B4902B4908B4905B4902B4727B4571B4287B3891B3613B3572B3159B1950
430B0087A8302A7595A7965A8267A7869A6706A5917A6404A7900A9340B0389B1138
417B1784B2215B2553B2832B2975B3070B3073B2900B2741B2597B2446B2525B2753
404B2940B3168B3417B3546B3680B3790B3844B3956B4093B4199B4207B4236B4309
391B4260B4235B4200B4143B3986B3678B3440B3109B2630B1835B0989B0053A9264
378A8822A8746A8751A8644A8257A7754A7343A7325A7817A8782A9898B0879B1511
365B1530B0934B0349B0609B1312B1858B2193B2375B2367B2175B2135B2038B1946
352B2044B2235B2526B2993B3365B3723B4057B4180B4263B4509B4616B4644B4664
339B4686B4745B4878B4722B4661B4772B4829B4825B4817B4738B4839B4865B4794
326B4735B4739B4652B4551B4459B4366B4345B4411B4248B4044B4054B3873B3652
313B3527B3273B2898B2544B2149B1587B0965B0324A9841A9268A8788A8349A7991
300A7755A7651A7573A7502A7464A7618A7728A7908A8446A9048A9463A9843B0240
287B0808B1300B1581B1840B2023B1818B1321B0755B0332A9996A9573A8993A8321
274A7473A6530A5930A6041A6586A7626A8766A9856B0657B1276B1793B2321B2605
261B2763B3080B3339B3378B3527B3627B3491B3209B3215B2874B2623B2605B2674
248B2836B2741B2459B2350B2064B1655B1409B1675B2090B2210B2025B1458B0846
235B0245A9445A9065A8843A8877A9176A9905B0530B0938B1611B2319B2628B2834
222B3080B3396B3667B3827B3825B3979B4050B4217B4436B4701B4606B4544B4619
209B4838B4884B4786B4687B4569B4709B4760B4714B4895B5016B5041B4956B4676
196B4503B4587B4531B4657B4867B4922B4918B4913B4922B4915B4887B4918B4735
183B4546B4385B4234B4325B4086B3590B3297B3308B3429B3197B2845B2316B1982
170B1760B1196B0570A9919A8808A8048A7430A7036A7318A7590A7369A7058A6791
157A6680A7187A8304A9668B0744B0773B0822B0819B0675B0779B1352B1884B2418
144B2858B3212B3354B3301B3176B2897B2309B1870B1372B0539A9473A8646A7835
131A7609A7528A7611A8007A8328A8645A9374A9545A9710B0533B1706B2039B2009
118B2235B2143B2031B1868B1356B0101A9308A9188A8446A8673A9988B0339A9863
105A8929A8121A7916A7415A6925A6280A6280A6909A8051A8429A8835A9316A9645
92B0639B1304B1338B1271B1542B2342B2905B3252B3647B4300B4958B3728B3306
79B4095B4697B4047B3460B2837B2402B2368B1321B0064A9308A9344B0657B1481
66B2224B2643B3567B4101B3819B3789B3949B3656B3440B2784B3618B6065B4950
53B5735B6577B6421B5975B5317B5068B6048B5942B5308B5847B7708B6810B5636
40B5439B4691B4203B4924B5779B7889B2400B2109B3818B1305B1009B2869B3384
27B3101B4157B5787B5072B4341B4600B4899B4407B4137B2642B4642B5867B4340
14B2859B3587B3018B2617B6462B7661B3910B4142C2000B9662B7814B4747B2967
1B2490
$$ === CHEMSPECTRA INTEGRALS AND MULTIPLETS ===
##$OBSERVEDINTEGRALS= (X Y Z)

##$OBSERVEDMULTIPLETS=
##$OBSERVEDMULTIPLETSPEAKS=
$$ === CHEMSPECTRA SIMULATION ===
##$CSSIMULATIONPEAKS=
##END=


$$ === CHEMSPECTRA PEAK TABLE EDIT ===
##TITLE=2-COOH-8-NO2-qu
##JCAMP-DX=5.00
##DATA TYPE=INFRAREDPEAKTABLE
##DATA CLASS=PEAKTABLE
##$CSCATEGORY=EDIT_PEAK
##$CSTHRESHOLD=0.93
##MAXX=4000.433
##MAXY=128.96043578552948
##MINX=249.7859
##MINY=36.673123926509945
##$CSSOLVENTNAME=- - -
##$CSSOLVENTVALUE=0
##$CSSOLVENTX=0
##NPOINTS=52
##PEAKTABLE= (XY..XY)
400.2361308048339, 67.22062715320725
406.02267814348124, 68.65531200132126
472.5679725379273, 75.93754660958538
482.21221810233965, 86.27856155413753
511.1449547955772, 64.1981169394839
534.2911441501669, 70.38015782995272
589.2633438673179, 88.44267886716344
598.9075894317302, 82.00674711874186
606.6229858832603, 69.81998593700932
641.3422699151452, 90.45768567631234
656.7730628182048, 64.14572676244603
661.5951856004112, 70.90808961394973
745.5001220107997, 36.673123926509945
753.2155184623293, 63.51301462437327
765.7530376960658, 71.25870079874164
770.5751604782718, 56.033309348812566
780.2194060426841, 68.57471172895531
795.6501989457443, 81.49896540283633
803.3655953972743, 81.33776485810442
825.5473601954227, 78.60541562489853
860.2666442273076, 55.82777865427938
867.9820406788376, 73.47923830242372
894.9859282591924, 83.61472255244269
903.6657492671638, 86.25035145880943
921.0253912831058, 83.29635147659715
1000.1082049112879, 92.19865155941699
1029.0409416045254, 82.72811955641717
1110.0526043455898, 71.25064077150505
1130.3055200308563, 84.1386243228214
1170.8113514013885, 82.87723006029418
1219.0325792234507, 72.58860529277992
1252.7874386988942, 69.70714555569698
1298.1153928516328, 67.20450709873406
1313.5461857546925, 73.81775944636074
1337.6567996657236, 54.46966406491302
1350.19431889946, 70.37612781633442
1369.4828100282848, 93.90334731995695
1386.8424520442272, 94.07663790554376
1429.2771325276422, 84.43281531695713
1446.6367745435841, 82.95380031904185
1459.1742937773206, 79.67739924736573
1492.929153252764, 79.30663799448233
1521.8618899460016, 56.553181105572975
1556.581173977886, 89.64765293903449
1584.5494861146822, 69.10667352657062
1630.8418648238621, 79.88695995551721
1663.6322997428642, 86.03676073703966
1715.7112257906915, 84.76327643365755
1912.4538353047055, 94.68516996190672
3074.5854258164054, 93.54870612154674
3098.696039727436, 94.76577023427268
3179.707702468501, 86.26647151328262
##END=


$$ === CHEMSPECTRA PEAK TABLE AUTO ===
##TITLE=2-COOH-8-NO2-qu
##JCAMP-DX=5.00
##DATA TYPE=INFRAREDPEAKTABLE
##DATA CLASS=PEAKTABLE
##$CSCATEGORY=AUTO_PEAK
##$CSTHRESHOLD=0.93
##MAXX=4000.433
##MAXY=128.96043578552948
##MINX=249.7859
##MINY=36.673123926509945
##NPOINTS=100
##PEAKTABLE= (XY..XY)
1876.7701267163793, 95.49923271280288
1874.841277603497, 95.49117268556628
3089.0517941630237, 95.35818223616246
1934.635600102854, 95.34609219530756
1881.5922494985857, 95.32997214083437
1936.5644492157367, 95.2896720046514
1068.5823484186167, 95.18892166419396
3091.9450678323474, 95.17683162333905
1943.3154211108254, 95.15265154162927
1897.0230424016454, 95.14459151439267
1921.1336563126765, 95.05996122840843
1918.2403826433529, 95.03578114669864
1928.8490527642066, 94.98742098327907
1907.6317125224991, 94.98742098327907
1924.9913545384416, 94.9148807381497
1915.3471089740292, 94.81413039769225
3098.696039727436, 94.76577023427268
1912.4538353047055, 94.68516996190672
1079.19101853947, 94.09275796001695
1386.8424520442272, 94.07663790554376
325.97543995885826, 93.92349738804845
3071.6921521470813, 93.91946737443014
1369.4828100282848, 93.90334731995695
419.52462193365864, 93.88722726548376
1159.2382567240934, 93.822747047591
3074.5854258164054, 93.54870612154674
493.78531277963475, 93.53258606707355
274.86093846747235, 93.09734459629739
995.2860821290819, 92.5250826624991
1735.9641414759576, 92.42030230842337
1000.1082049112879, 92.19865155941699
262.3234192337359, 92.12208130066934
1008.7880259192593, 92.009240919357
303.7936751607094, 91.819830279297
266.1811174595009, 91.2475683454987
259.4301455644122, 91.14681800504127
489.9276145538697, 91.0984578416217
641.3422699151452, 90.45768567631234
1651.0947805091282, 89.73228322501873
1556.581173977886, 89.64765293903449
280.6474858061197, 89.09957108694599
363.5879976600668, 88.6965697251162
589.2633438673179, 88.44267886716344
1599.015854461301, 87.08456427779709
482.21221810233965, 86.27856155413753
3179.707702468501, 86.26647151328262
903.6657492671638, 86.25035145880943
1663.6322997428642, 86.03676073703966
334.65526096682925, 85.72241967481243
1715.7112257906915, 84.76327643365755
277.754212136796, 84.6665561068184
1429.2771325276422, 84.43281531695713
1130.3055200308563, 84.1386243228214
894.9859282591924, 83.61472255244269
392.52073435330385, 83.32053155830694
921.0253912831058, 83.29635147659715
1446.6367745435841, 82.95380031904185
1170.8113514013885, 82.87723006029418
726.2116308819745, 82.76438967898184
1029.0409416045254, 82.72811955641717
598.9075894317302, 82.00674711874186
1621.1976192594498, 81.7447962335525
795.6501989457443, 81.49896540283633
803.3655953972743, 81.33776485810442
1630.8418648238621, 79.88695995551721
1459.1742937773206, 79.67739924736573
1492.929153252764, 79.30663799448233
825.5473601954227, 78.60541562489853
1228.676824787863, 77.96867347320747
316.3311943944459, 77.81150294209385
472.5679725379273, 75.93754660958538
612.4095332219076, 75.54663528861049
1212.281607328362, 74.85347294626327
354.90817665209534, 74.33763120312115
1313.5461857546925, 73.81775944636074
867.9820406788376, 73.47923830242372
1219.0325792234507, 72.58860529277992
765.7530376960658, 71.25870079874164
1110.0526043455898, 71.25064077150505
661.5951856004112, 70.90808961394973
374.1966677809205, 70.63807870152378
534.2911441501669, 70.38015782995272
1350.19431889946, 70.37612781633442
606.6229858832603, 69.81998593700932
1252.7874386988942, 69.70714555569698
1584.5494861146822, 69.10667352657062
406.02267814348124, 68.65531200132126
780.2194060426841, 68.57471172895531
400.2361308048339, 67.22062715320725
1298.1153928516328, 67.20450709873406
345.263931087683, 65.60862170588813
1328.9769786577526, 65.1129300308375
511.1449547955772, 64.1981169394839
656.7730628182048, 64.14572676244603
753.2155184623293, 63.51301462437327
1521.8618899460016, 56.553181105572975
770.5751604782718, 56.033309348812566
860.2666442273076, 55.82777865427938
1337.6567996657236, 54.46966406491302
745.5001220107997, 36.673123926509945
##END=

##END=

