##TITLE=X7377
##JCAMP-DX=4.24
##DATA TYPE=INFRARED SPECTRUM
##DATE=26/10/2018
##SAMPLING PROCEDURE=Diamant-ATR
##ORIGIN=ComPlat
##XUNITS=1/CM
##YUNITS=TRANSMITTANCE
##RESOLUTION=4
##FIRSTX=3997.453
##LASTX=373.96442
##DELTAX=-1.4165319
##MAXY=0.98839396
##MINY=0.77772784
##XFACTOR=1
##YFACTOR=9.2051361e-010
##NPOINTS=2559
##FIRSTY=0.96001184
##XYDATA=(X++(Y..Y))
3997+1042908903+1042259963+1041423050+1041015439+1040875252+1040869748
3989+1041465592+1042727987+1043700166+1043492314+1042324197+1041184247
3980+1040853690+1041176671+1041155303+1040114616+1038603122+1037558033
3972+1037089167+1036856903+1037010623+1037882243+1038994610+1039116666
3963+1037730790+1036095102+1035893530+1037080231+1038414954+1039394321
3955+1040013539+1039416336+1036434853+1031460513+1027089980+1025938374
3946+1027242276+1027648008+1026132694+1025805245+1029339318+1034991412
3938+1039210750+1039855092+1036139198+1028595841+1020576950+1017296379
3929+1020213435+1024878910+1026400700+1024651697+1023376028+1024269728
3921+1024704729+1022351335+1019118616+1019526486+1025196193+1032900651
3912+1038612640+1040798781+1039542148+1034240554+1023778523+1009421948
3904+996509267+990409287+991323837+997178215+1006930699+1017799693+1024763199
3894+1024295111+1017901417+1012865498+1014254547+1017518736+1016189128
3886+1010614606+1006318085+1004706938+1004016428+1006939764+1015266614
3877+1022756485+1022888967+1016125607+1007423328+1000026116+996267679+998541623
3867+1003276642+1004121713+1001296670+1001877879+1009009287+1017329920
3859+1021019138+1017751064+1006070475+986300091+971689820+978874906+998624569
3849+1016187898+1026091253+1027728300+1022571490+1013206933+1002120827
3840+991341384+984364474+985492381+993630609+1002721851+1009367622+1014181378
3830+1017989350+1019878346+1019354182+1017878430+1015774006+1009950644
3822+999452741+992168520+994363661+1000441561+1006060697+1013953388+1024593874
3812+1032951675+1034759602+1029226521+1019678976+1012487544+1009261364
3803+1004658439+996729293+992484637+996526491+1004417304+1013203372+1023339508
3793+1033266691+1039876007+1042297390+1041760535+1039108831+1034802597
3785+1031045261+1030246292+1030995402+1029959249+1027756662+1028747360
3776+1033716585+1038505541+1039211203+1034736680+1027240333+1021455563
3768+1020035627+1021007223+1022433570+1023952964+1023555001+1018635764
3759+1010991460+1006719673+1007579185+1008134559+1002231941+987654498+970878807
3750+964916164+970039369+975741904+977827615+981044664+989278855+997680816
3740+1000160346+993532317+978825436+965357187+966033970+981270323+999576028
3730+1011817042+1015261110+1011369674+1004903199+1001503227+1003116770
3721+1008101017+1014559462+1020896433+1024841160+1023700692+1015576644
3713+1001979604+991688776+994749710+1008270666+1022203572+1030698323+1032229242
3703+1028354059+1024350473+1025270527+1030110767+1034566319+1035732429
3694+1032275993+1023440326+1009971365+997111586+994236748+1003702059+1017470561
3684+1028482073+1033816496+1032514473+1025248965+1013378460+997743755+983380899
3674+980784104+987972752+992561821+992226020+996666549+1010183426+1025075172
3665+1035049106+1039540400+1040490823+1039157848+1035035702+1028058080
3656+1021388480+1017641116+1012645278+999372967+976983256+959620333+964965829
3646+986431796+1007645685+1021699482+1028970299+1032380243+1034105935
3638+1034314630+1032558439+1029200037+1024628905+1017300264+1004887465
3629+991679193+990833603+1003633099+1017379326+1024090302+1022043118+1012931221
3619+1002817230+998828925+1000077010+1000975891+1000694999+1002076990
3611+1005030825+1007177272+1009650586+1015468185+1022909040+1027035394
3602+1025832570+1021974999+1019296294+1018318158+1017399205+1016954944
3594+1019059109+1022500264+1022048492+1014107562+1002847080+999498326
3585+1007887273+1019645952+1027642634+1031100753+1032255532+1033141980
3577+1034449118+1035825153+1036490798+1035221992+1029789535+1017676600
3568+1000216420+987471640+989982186+1003626429+1017392147+1026320538+1031438950
3558+1034699124+1035940864+1034039241+1029656406+1025925554+1025236533
3550+1025520339+1022682151+1016701896+1012982569+1016138363+1024444428
3541+1032696878+1037125428+1037165703+1035265764+1034707671+1036277507
3533+1037700097+1036434141+1032105761+1026618524+1022310671+1020182937
3524+1020409955+1023401605+1028802010+1034572341+1038635821+1040668436
3516+1041477700+1041290698+1039421711+1035724788+1032061342+1031147763
3507+1032916903+1033878140+1031601023+1028290020+1028062289+1031391682
3499+1035210855+1037389031+1038448236+1039548429+1040460066+1040153856
3490+1038622159+1037194259+1036941145+1037252082+1036554708+1034477739
3482+1032838943+1033912976+1037647649+1041554042+1043369804+1042988353
3473+1041884599+1041301382+1041340298+1041455167+1041343276+1041155950
3465+1040973416+1040599476+1040103997+1040012050+1040663515+1041805991
3456+1042917450+1043594816+1043663970+1042978899+1041158346+1038098578
3448+1035051243+1034149125+1035974016+1038799837+1040859129+1041891139
3439+1042281785+1042116992+1041549898+1041079155+1040977301+1041037520
3431+1041105444+1041339780+1041766363+1041985870+1041499522+1040178461
3422+1038508196+1037485640+1037960204+1039830875+1042068687+1043568786
3414+1043892932+1043327262+1042429418+1041660753+1041409711+1041930961
3405+1043043975+1044202832+1044914192+1044790193+1043584261+1041714950
3397+1040207211+1039607871+1039597640+1039893490+1040581669+1041432957
3388+1041852353+1041703165+1041609599+1042293375+1043737528+1045094072
3380+1045535742+1045122692+1044651431+1044739558+1045269290+1045641093
3371+1045361949+1044384914+1043048961+1041855202+1041244206+1041361795
3363+1041999015+1042770141+1043252539+1043103870+1042372113+1041621514
3354+1041494212+1042191910+1043398101+1044513186+1045060078+1045103396
3346+1045106440+1045202142+1044931740+1043924984+1042518128+1041425187
3337+1041015051+1041122668+1041403625+1041660494+1041830726+1041804048
3329+1041432115+1040861719+1040700877+1041512342+1043123360+1044685879
3320+1045462508+1045409801+1044971627+1044459378+1043814712+1042933185
3312+1041957833+1041273539+1041442411+1042824402+1044846333+1046164738
3303+1046029408+1045005427+1044123577+1043917149+1044307406+1044785661
3295+1044808712+1044401425+1044083236+1044088546+1044120727+1043843721
3286+1043186687+1042326916+1041711648+1041856950+1042814042+1043938970
3278+1044351696+1043646293+1042272849+1041314850+1041659458+1043159880
3269+1044796280+1045761725+1046050387+1045922632+1045430456+1044726284
3261+1044239935+1044227438+1044456723+1044478674+1044109137+1043625832
3252+1043457996+1043654452+1043849095+1043709102+1043207213+1042618881
3244+1042426116+1042887082+1043607507+1043943308+1043814323+1043679899
3235+1043752809+1043733319+1043380941+1042957337+1042939725+1043482537
3227+1044297758+1044932258+1045051466+1044642366+1044106871+1043928415
3218+1044086150+1044116260+1043892414+1043882507+1044400130+1045103267
3210+1045541376+1045720284+1045825440+1045804526+1045519166+1045010413
3201+1044438981+1043924725+1043551691+1043449902+1043718232+1044153427
3193+1044304687+1044137628+1044302096+1045213862+1046229490+1046388002
3184+1045668483+1044879032+1044587780+1044745580+1045110195+1045469501
3176+1045514115+1045011320+1044266936+1043987534+1044418973+1044995326
3167+1045132146+1044970203+1044977066+1045163680+1045105080+1044583960
3159+1043921811+1043654905+1043974454+1044504121+1044624688+1044046976
3150+1043103870+1042481932+1042635522+1043469651+1044511503+1045227331
3142+1045270520+1044752119+1044254634+1044238640+1044491365+1044518885
3133+1044349430+1044460867+1044963080+1045377295+1045235489+1044508913
3125+1043504682+1042661617+1042321477+1042432008+1042646595+1042880866
3116+1043416749+1044293161+1045045055+1045259966+1044992801+1044547440
3108+1044257742+1044409843+1044917365+1045143283+1044502956+1043184874
3099+1041946242+1041329678+1041350852+1041769082+1042413036+1043227804
3091+1044022370+1044344444+1043946287+1043265749+1042952934+1043005188
3082+1042947106+1042722224+1042798178+1043463176+1044470321+1045292665
3074+1045524087+1045228626+1044848793+1044537533+1043942337+1042996900
3065+1042392445+1042747931+1043709491+1044287786+1043869038+1042749161
3057+1041831049+1041753801+1042269093+1042594664+1042264496+1041436907
3048+1040624664+1040329915+1040648687+1041043736+1040833293+1040003179
3040+1039185432+1038807283+1038678687+1038390219+1037737524+1036878854
3031+1036381757+1036834046+1038113342+1039391277+1040052908+1040239263
3023+1040398552+1040722633+1041095148+1041217723+1040747562+1039547782
3014+1037879200+1036326653+1035501978+1035644237+1036394837+1037134428
3006+1037585163+1037896618+1038197065+1038341850+1038156337+1037719458
2997+1037328424+1037263089+1037632108+1038410745+1039493844+1040610483
2989+1041339780+1041455750+1041188391+1040918960+1040732540+1040485513
2980+1040171533+1039981552+1040037821+1040169396+1039971904+1039150725
2972+1037782461+1036078655+1033993915+1031359953+1028288401+1025164529
2963+1022428843+1020561280+1019949702+1020580187+1022128719+1024343351
2955+1027016487+1029712610+1031930479+1033525891+1034764976+1035973434
2946+1037183121+1038121565+1038568609+1038670982+1038800744+1039161280
2938+1039632865+1039998452+1040240105+1040544048+1041057463+1041766557
2929+1042582426+1043357178+1043861851+1043942790+1043668050+1043205918
2921+1042680460+1042187830+1041789673+1041492399+1041341722+1041444483
2912+1041808581+1042277123+1042642904+1042727728+1042448973+1041991309
2904+1041786047+1042091998+1042698525+1043236481+1043627904+1043983649
2895+1044244079+1044243820+1044022823+1043807589+1043748989+1043827144
2887+1043959755+1044109396+1044291218+1044492013+1044641718+1044704851
2878+1044694750+1044543102+1044138793+1043621882+1043414418+1043733643
2870+1044227308+1044379539+1044154787+1043899601+1043762911+1043660927
2861+1043651279+1043842361+1044034349+1043883089+1043337428+1042676834
2853+1042223897+1042115891+1042223573+1042322578+1042367127+1042435181
2844+1042462377+1042332032+1042182974+1042332291+1042907284+1043720239
2836+1044434319+1044763969+1044652208+1044343667+1044186191+1044297046
2827+1044508654+1044662762+1044796215+1044966317+1045065840+1044938798
2819+1044592895+1044183666+1043843915+1043601679+1043448931+1043400043
2810+1043460910+1043609903+1043872859+1044336480+1044993837+1045612019
2802+1045873357+1045681433+1045250836+1044877414+1044703685+1044735608
2793+1044935301+1045186278+1045300629+1045208553+1045086949+1045199811
2785+1045612278+1046125887+1046508310+1046695895+1046701787+1046493547
2776+1046166616+1046025328+1046229749+1046579925+1046861529+1047090426
2768+1047213907+1046991421+1046416816+1045876206+1045700535+1045882033
2759+1046276564+1046741869+1047067763+1047095865+1046927252+1046798202
2751+1046809210+1046925504+1047123255+1047378894+1047605136+1047691514
2742+1047559680+1047200827+1046729307+1046350834+1046198280+1046196985
2734+1046118635+1045796043+1045316105+1044940935+1044812856+1044849506
2725+1044941518+1045070826+1045237173+1045453119+1045770207+1046148939
2717+1046410147+1046474963+1046534016+1046799497+1047157444+1047219217
2708+1046764337+1046023192+1045432075+1045208877+1045296485+1045548757
2700+1045779143+1045770920+1045455127+1045038321+1044841347+1045042465
2691+1045565528+1046158652+1046544312+1046508245+1046013026+1045359230
2683+1045044861+1045225971+1045515086+1045496373+1045189969+1044862521
2674+1044672799+1044639258+1044744673+1044980757+1045346797+1045780309
2666+1046115398+1046207021+1046052718+1045788597+1045656245+1045860924
2657+1046257463+1046357245+1045897833+1045204279+1044748105+1044616077
2649+1044645020+1044788251+1045040393+1045216906+1045141146+1044945338
2640+1044925977+1045186667+1045665763+1046374986+1047314596+1048227268
2632+1048731294+1048687716+1048284897+1047830082+1047542650+1047430501
2623+1047348007+1047287659+1047499137+1048096535+1048697170+1048783484
2615+1048353339+1047891855+1047741826+1047796023+1047803729+1047686334
2606+1047488324+1047284292+1047233009+1047504900+1048024596+1048450661
2598+1048492944+1048146847+1047620611+1047163789+1046941821+1046991874
2589+1047322107+1047954276+1048726567+1049247169+1049276631+1048966989
2581+1048569545+1048212699+1048037935+1048159279+1048421393+1048543644
2572+1048474684+1048345245+1048243197+1048255629+1048477597+1048807571
2564+1049021186+1049100572+1049185202+1049196922+1048903403+1048389794
2555+1048046935+1047991961+1047955247+1047876703+1048064483+1048529463
2547+1048778886+1048605741+1048488476+1048817219+1049240824+1049149200
2538+1048411810+1047362771+1046417075+1045945295+1046179048+1046958398
2530+1047745970+1048059691+1047831766+1047364195+1047042575+1047008450
2521+1047055460+1046980866+1046974844+1047334086+1047830536+1047757172
2513+1046718169+1045157399+1043982613+1043694533+1043976396+1044198170
2504+1044231841+1044586679+1045729025+1047393592+1048732395+1049238363
2496+1049296898+1049503844+1049753137+1049548393+1048912404+1048282825
2487+1047731336+1047023861+1046347143+1046263873+1046845018+1047404017
2479+1047400715+1047269723+1047908820+1049408271+1050699027+1050611354
2470+1049102644+1047290702+1046395448+1046795483+1047976356+1049100895
2462+1049526313+1049000531+1047726286+1046385865+1045849010+1046495813
2453+1047883243+1049292819+1050377407+1050978171+1050805867+1049893065
2445+1048918490+1048408249+1047989565+1047085699+1046037048+1045793388
2436+1046585040+1047545629+1047779770+1047331172+1046884646+1046867357
2428+1047142875+1047452905+1047811758+1048267414+1048544680+1048375549
2419+1047973442+1047650785+1047255089+1046583681+1045979225+1045903013
2411+1046302659+1046866127+1047491626+1048159862+1048691342+1048878863
2402+1048659614+1048058137+1047152393+1046192711+1045604508+1045679944
2394+1046297155+1047044517+1047573602+1047779447+1047721170+1047406543
2385+1046688967+1045507511+1044213711+1043475284+1043834850+1045404361
2377+1047880848+1050871266+1054239381+1057900949+1061360428+1064119490
2368+1066497295+1069147962+1071847841+1073595485+1073741823+1072455793
2360+1070424927+1068492030+1067283184+1066660598+1065397620+1062254128
2351+1057998400+1055133664+1055455026+1058885496+1063894349+1068461726
2343+1071231666+1071862151+1070740332+1068928455+1067471352+1066441932
2334+1065292010+1063855498+1062428375+1061172390+1059887849+1058266083
2326+1056177653+1053754327+1051338449+1049377449+1048192108+1047660174
2317+1047276910+1046613531+1045533023+1044062710+1042479147+1041356809
2309+1041083752+1041530279+1042401834+1043490372+1044523806+1045358841
2300+1046293788+1047593998+1048796110+1049079139+1048329705+1047368922
2292+1046996989+1047093469+1046931331+1046309587+1045931698+1046500216
2283+1047850609+1049231305+1050126818+1050602224+1051038584+1051755837
2275+1052826244+1054016182+1054799158+1054621609+1053442937+1051894211
2266+1050585648+1049502420+1048562422+1048344792+1049385932+1051004201
2258+1051802199+1051338513+1050462037+1049917347+1049409825+1048335792
2249+1046952829+1046252218+1046630366+1047353706+1047727775+1048022977
2241+1048664341+1049397004+1049859395+1050262861+1051120236+1052627781
2232+1054014499+1053563181+1050511766+1046814455+1045296162+1046350899
2224+1048051921+1048880352+1048672953+1047740013+1046852205+1047283385
2215+1049299359+1051402423+1052146677+1051737771+1051082745+1050476930
2207+1050120732+1050620808+1051950998+1052973359+1052943444+1052715195
2198+1053548029+1055218229+1056140679+1055242641+1052999454+1050533846
2190+1048526161+1047365555+1047525168+1049000725+1050695790+1051080673
2181+1049785254+1048383060+1049080564+1052320599+1056116851+1058103298
2173+1057484921+1054806928+1051489838+1049802284+1050989308+1052842367
2164+1051546171+1046665073+1041774392+1039907671+1041055715+1044086215
2156+1048123730+1051597325+1052670387+1051051146+1048039165+1045222928
2147+1044018809+1045212826+1047658685+1048751173+1047594516+1046317617
2139+1047213583+1050015122+1052669286+1053555799+1052476780+1050388026
2130+1048547594+1047582861+1047378376+1047695399+1048337151+1048856264
2122+1048815665+1048297329+1047618798+1046786806+1045749163+1044898911
2113+1044802431+1045558017+1046736429+1047772065+1048234650+1048033402
2105+1047595099+1047573472+1048124507+1048743338+1049024748+1049138063
2096+1049135732+1048383578+1046483640+1044388151+1043711174+1045005427
2088+1047316862+1049406717+1050767405+1051418740+1051503371+1051251811
2079+1050770189+1049931528+1048985055+1048860408+1050080197+1051754736
2071+1052384509+1051303548+1048951579+1046320725+1044575218+1044521410
2062+1045908970+1047664966+1049011150+1049996992+1050924104+1051860346
2054+1052874095+1054132865+1055466940+1056390167+1056875544+1057340072
2045+1057413435+1056166515+1054105734+1052970187+1052959762+1052641055
2037+1051927428+1051822725+1051180779+1048057036+1044268167+1043719009
2028+1046841586+1050756786+1053685302+1055914826+1057538147+1057735056
2020+1055722968+1051700215+1047348655+1044779315+1044535526+1045569413
2011+1046895653+1048071152+1048652103+1048614158+1048746705+1049169662
2003+1048499678+1045912855+1043084703+1042583073+1044530475+1046040804
1994+1044433542+1040476383+1037778641+1038625655+1041600599+1044085244
1986+1045100224+1045048228+1044509884+1044004628+1043661380+1042745211
1977+1040808170+1039418926+1041024764+1045715104+1050229255+1050914456
1969+1047826651+1045155521+1046433198+1050147086+1052237329+1051506155
1960+1050144366+1049813162+1049330440+1046706773+1042252905+1038778081
1952+1038653887+1041187225+1043383143+1042890643+1039601266+1035172328
1943+1032239473+1033005613+1036999421+1041681344+1045340063+1047488842
1935+1047800685+1046453077+1044634660+1043627062+1043873441+1044704592
1926+1044321328+1041278266+1036861824+1034148671+1033796358+1033923207
1918+1034353480+1037071425+1041828006+1045314875+1045166918+1042456290
1909+1040383918+1040884965+1043026556+1044812792+1045431428+1045326660
1901+1044950389+1044121440+1042562741+1040813285+1040077255+1040364169
1892+1039677544+1036851011+1034184868+1034803957+1038082002+1041151806
1884+1042858721+1043613788+1043720045+1043523330+1043658661+1044194415
1875+1044470450+1043509214+1039828350+1032180226+1022470348+1017175294
1867+1020920586+1030080205+1038190849+1042190809+1042636105+1041806638
1858+1041758657+1042993209+1044555728+1045478178+1045533994+1044323141
1850+1040896167+1034928733+1027298868+1019984667+1016791058+1020716554
1841+1028766656+1035410225+1038470576+1039360715+1040090917+1040173087
1833+1037071684+1029912952+1022354637+1019420747+1020696805+1022862160
1824+1025930539+1031349787+1037472496+1041169548+1041692546+1040903419
1816+1040264192+1038858437+1035284478+1030542984+1027815067+1028851156
1807+1031996461+1034156442+1032914054+1027782368+1021264999+1017508958
1799+1017916116+1019751951+1019599202+1015695916+1009351952+1006808254
1790+1013207127+1023888147+1031098552+1032367875+1030087522+1027049122
1782+1024058185+1022029132+1022260035+1023459169+1022050759+1015655446
1773+1005759214+998628454+999564761+1006373512+1014505265+1021094703+1023497631
1764+1020088464+1013151376+1007646203+1004478106+1000881224+996432860+991581159
1754+983370862+968321122+949146064+935788087+933711830+937607216+940839546
1744+941130345+938281991+931702785+921915529+910796854+897217038+877879259
1734+857039245+846922210+847372622+850135504+852272109+854142327+857089427
1724+863378353+873008262+881756838+885395096+885272457+891013843+909399581
1714+933419995+954284290+968357966+974906286+974558376+969865252+965681721
1704+964569809+962906796+956042100+946418666+942830526+948752958+962726916
1694+979535760+991265107+994686124+992184320+987678392+981200975+969896138
1684+958871805+961795530+976400039+991233638+1001255941+1005070906+1003529496
1674+1000132632+996600891+991420381+987161739+991508184+1003349228+1012563044
1664+1014073502+1011297476+1011637810+1016283536+1019287747+1015677980
1656+1003151930+982137735+966104937+970482787+979052390+978742554+974465652
1646+979729108+995490402+1009473361+1015758401+1014241144+1005465243+991153281
1636+979880044+983598270+996619474+1005045523+1004067970+995591544+984591817
1626+974298593+964230187+955455386+951303325+949821422+944557707+933035306
1616+922175701+919604095+920716008+918259400+910725821+900966927+892311852
1606+885304768+878350715+870630328+863181314+857302266+852891522+849094170
1596+845995487+844884675+846716818+850991843+856681428+863283621+870454333
1587+877586064+884215712+890232940+895252671+897951903+896579559+891177470
1577+887150898+891928523+901469528+906160710+903621480+899720914+901749579
1567+908230751+913780474+915862688+912379834+899280863+877462712+869427827
1557+886065598+906232196+920625161+929188419+933899350+937880532+941284778
1547+939627787+929387659+912689281+895252801+884651943+893220122+917391601
1537+936655887+943647107+943294729+945378303+952614479+957425580+954626373
1527+946643094+938847337+931897428+924235382+919739944+921969273+926943355
1517+932933128+942721614+954151744+959888534+954946763+938993740+916977061
1507+907486757+929958897+962273591+981903464+988204368+985350769+978573488
1497+975740091+981819287+990641809+992192090+982651797+968126997+963121253
1487+973480199+989294719+1000823595+1005629711+1005968685+1004619588+1001423130
1477+994106792+981943156+968286092+961732009+970101012+987380146+1000763117
1468+1004536058+1000764995+996605747+996272536+994784093+985133398+965451659
1458+945981334+946591747+963875996+980118912+988957363+990261394+985785252
1448+979218931+973471652+967557249+959737857+951471809+945423953+942126159
1438+942253525+949499737+963690742+977355641+985744394+990300115+994717399
1428+999295589+1000689042+997492713+991993691+985398038+975346143+962997771
1418+958511722+967229801+981374832+993090452+1000482873+1005217438+1008554731
1408+1009437812+1007151437+1004433751+1004508927+1005394275+1002429951
1400+994837836+986656937+982109503+982968885+988990710+996292026+998779326
1390+992846728+979963444+966302429+956415845+948075398+937260083+923453119
1380+908806392+894744372+880927436+867775563+858474138+855485727+856428962
1370+857875575+859622830+862232899+864134262+864812145+868457785+879702079
1360+896660693+913947338+928841869+941689280+953470688+964087151+972790854
1350+979513874+984928589+989525817+993056781+994270354+991338147+984217035
1340+977211440+976572925+983350984+992482500+999228053+1002379250+1002925753
1330+1002270792+1001363493+1000532214+999716409+998512355+996035351+991519904
1320+985465833+979489786+974359913+968960026+962143764+954637251+947983192
1310+942355120+936757028+930787846+924926410+919548862+914737436+910761953
1300+907990588+906503311+906094016+906353087+906615719+906135522+904527807
1290+902166255+900226105+900022915+901967468+905368670+909375817+913702124
1281+918374399+923283276+928160553+932703973+936694219+940272971+944098619
1271+948879158+954656676+960785342+966515073+971185082+974062962+974758005
1261+973927891+972982584+972992296+974313680+976987141+980791292+985040739
1251+988879467+991754175+993348487+993227402+990822531+985660929+977492850
1241+966533657+953962799+941872009+931955963+923996190+916036546+906378146
1231+895387613+885372109+878923960+877477800+881051565+888694639+898956199
1221+910318534+921668308+932513603+942759688+952340839+961101977+968912757
1211+975720213+981506407+986343539+990485046+994236295+997680557+1000615678
1201+1002821309+1004345689+1005446335+1006208655+1006361727+1005567226
1193+1003759882+1001085904+997753014+994200034+991327269+990279136+991770363
1183+995519022+1000398761+1005229677+1009388925+1012750888+1015395858
1174+1017482216+1019115249+1020208449+1020569503+1020068974+1018702005
1166+1016667059+1014345977+1011839251+1008310618+1001905852+990612153+973606594
1156+952144059+929126387+907432560+888427021+872172385+858894958+849597289
1146+845080872+845042280+848405797+853953382+860496652+867158934+873757307
1136+880498457+887340814+894046416+900613902+907191684+913720514+920039937
1126+926199878+932325694+938281214+943806137+948917103+953836663+958593827
1116+963020823+967029913+970613650+973737780+976465049+979020791+981601333
1106+984237108+986845687+989320749+991596764+993639934+995358374+996597653
1096+997222958+997069756+995918863+993814374+991460268+990078924+990626010
1086+993067919+996544557+1000226392+1003756774+1006904410+1009325404+1010903139
1077+1011952826+1012874887+1013819676+1014777740+1015761509+1016757064
1068+1017644807+1018334475+1018907979+1019528234+1020309655+1021313045
1060+1022439915+1023350127+1023788624+1023925703+1024096777+1024390749
1051+1024725384+1025087540+1025507842+1025940382+1026230922+1026232087
1043+1026044437+1025920179+1025758365+1025067337+1023581031+1021333053
1034+1017805132+1011385667+999990308+982406324+959622793+935457725+915731113
1024+905788713+907595928+918680026+934056373+949405394+962668963+973536079
1014+982439477+990004849+996690636+1002592218+1007584300+1011575842+1014609774
1004+1016831140+1018440733+1019675673+1020760002+1021815516+1022827906
996+1023687482+1024268627+1024583902+1024857218+1025330358+1026060820
987+1026960347+1027836889+1028423084+1028630483+1028680601+1028785822
979+1028933002+1029090284+1029284927+1029435021+1029345210+1028766720
970+1027266881+1024139124+1018669564+1010971322+1003040817+998437438+999684293
960+1005826297+1013302182+1019185375+1022987778+1025626466+1027712048
952+1029220693+1030139388+1030723835+1031195808+1031607757+1031994324
943+1032421749+1032928753+1033537223+1034205264+1034699059+1034703980
935+1034211416+1033680648+1033599838+1033893939+1034019168+1033677345
926+1033077228+1032366062+1031253178+1029425567+1026930173+1023811352
918+1019528946+1012817064+1001937516+985299356+962698814+936690723+912572146
908+896070159+890141187+893650978+903020780+914936159+927589510+940175455
898+952089732+962696612+971502105+978450266+983992153+988665917+992651048
888+995875803+998309812+999855042+1000069564+998190281+993581916+986579818
878+979074988+973817878+972766378+976095966+982516531+990093105+997027991
868+1002456628+1006723818+1010578669+1014115397+1016791447+1018339332
860+1019153452+1019701509+1020037051+1020101026+1020131006+1020485132
851+1021222781+1022077307+1022807768+1023429318+1024019204+1024469033
843+1024645934+1024683037+1024863888+1025321681+1026045603+1026990781
834+1028001552+1028808744+1029239601+1029338670+1029274696+1029185015
826+1029090672+1028987199+1029027021+1029423042+1030065441+1030436014
817+1030108954+1029277092+1028589690+1028427487+1028528305+1028454165
809+1028162653+1027889402+1027744942+1027629490+1027260341+1026174394
800+1023924279+1020087817+1013706167+1002991605+986496029+965482028+945375713
790+933756962+935305494+948183403+965744336+981683503+993392971+1001495328
781+1007547522+1012309347+1015620416+1017480209+1018663478+1019943550
772+1021240199+1022075364+1022523704+1023159045+1024231589+1025418290
764+1026378102+1027093606+1027603265+1027815650+1027718847+1027554119
755+1027702594+1028342404+1029065937+1029076103+1028160646+1027168588
747+1027002436+1027449804+1027591092+1027183287+1027020048+1027819276
738+1029230665+1030230817+1030234831+1029503916+1028680730+1028269299
730+1028335281+1028444905+1028143940+1027559882+1027203748+1027328848
721+1027894906+1028863394+1029991689+1030639722+1030364917+1029563941
713+1029117414+1029441172+1030085709+1030163475+1029138329+1027442228
704+1026219914+1026081346+1026350842+1026035243+1025058207+1023611788
696+1020252609+1011356335+993241971+965768942+934617639+909550258+898870079
686+904453666+921531553+942416375+960834100+974562456+984808022+993288462
676+1000295288+1005173213+1007878272+1009656802+1012158865+1015645475
667+1017841846+1017603690+1016734919+1016570385+1017187402+1018281444
659+1019768397+1021489363+1022764191+1022933127+1022256086+1021787673
650+1022307693+1023584787+1024699549+1025005370+1024638488+1024056696
642+1023448485+1022809905+1022117388+1021256452+1020509996+1021029174
633+1023621047+1027131032+1029225614+1028673349+1026151795+1023174133
625+1020620916+1017966751+1013850045+1007152408+996838270+981430260+960641529
615+937845372+919348262+910661329+913317824+924438766+939077140+953246000
605+965177502+974674411+982217120+988635937+994633286+999866762+1002788674
595+1002220285+999390062+997641642+999145819+1002588916+1005277398+1006154976
585+1005473984+1003241481+999589237+995285399+990362342+983369373+972857095
575+958591237+941403143+923460112+908908182+902732960+907597352+921580376
565+939365608+955754409+968446352+978010279+985684304+991709432+995700327
555+998042712+1000205413+1003193436+1006160933+1007487497+1007202072+1007361102
545+1009695394+1013600234+1016924576+1018428559+1018768699+1018995782
537+1019087341+1018606950+1017933145+1017822550+1017959694+1016799217
528+1013530755+1010155648+1010209068+1014156902+1018183799+1018561365
520+1015029623+1010553805+1008712077+1010393868+1013327565+1015007349
511+1014845535+1013675216+1012611154+1012341853+1012228861+1010909031
503+1009138078+1010182649+1015426226+1022100747+1026750164+1028207721
494+1027356109+1025988363+1025641942+1026288874+1026489086+1025178321
486+1022847396+1021289799+1021884541+1023630307+1024022766+1021957775
477+1018267457+1013542864+1007845702+1003271915+1003351818+1007950923
469+1013138426+1016315005+1017814132+1018833321+1019562034+1018399356
460+1012778537+1002862426+994406850+993102237+997436703+1003501783+1009961199
450+1015161263+1015871393+1011392531+1004980707+1000157626+998848221+1002300059
441+1008569041+1011342348+1006582854+998671514+996002263+1000634262+1007338245
431+1010823106+1008860358+1000882584+987904115+973191925+959291719+944097389
421+925284809+912357365+922560778+949721770+973450413+986588818+992796286
411+996886574+999376529+997981393+990731879+975696708+951564662+920467232
401+888684926+866622598+866750223+889439669+918589503+942572102+959946939
391+972734650+982155800+986023149+981892715+975882933+980882138+997964039
381+1014995305+1023581290+1020510709+1001584037+970809588+950623693
##END=
