##TITLE=DMK c 16
##JCAMP-DX=4.24
##DATA TYPE=INFRARED SPECTRUM
##DATE=11/1/2018
##SAMPLING PROCEDURE=Diamant-ATR
##ORIGIN=Rieke
##XUNITS=1/CM
##YUNITS=TRANSMITTANCE
##RESOLUTION=4
##FIRSTX=3997.453
##LASTX=373.96442
##DELTAX=-1.4165319
##MAXY=0.94579583
##MINY=0.63750702
##XFACTOR=1
##YFACTOR=8.8084101e-010
##NPOINTS=2559
##FIRSTY=0.90886229
##XYDATA=(X++(Y..Y))
3997+1031811962+1031670265+1031737257+1031726024+1031549681+1031474502
3989+1031645567+1031812503+1031653078+1031149764+1030596511+1030368403
3980+1030582301+1030894182+1030838965+1030456710+1030303577+1030714457
3972+1031377263+1031798428+1031882607+1031863931+1031895599+1031915967
3963+1031817443+1031572553+1031209041+1030763245+1030316569+1030022214
3955+1030015041+1030290991+1030694359+1030987902+1030967399+1030673653
3946+1030436342+1030477281+1030599895+1030499949+1030264127+1030252691
3938+1030651661+1031372391+1032115858+1032428146+1032025454+1031187793
3929+1030507122+1030295931+1030614579+1031443240+1032453047+1033009345
3921+1032794838+1032185624+1031833074+1031870292+1031781714+1031244973
3912+1030520453+1029969839+1029741392+1029896217+1030436071+1031095833
3904+1031361767+1031020992+1030543730+1030554287+1031142118+1031918809
3895+1032584932+1033088584+1033315678+1033076675+1032595421+1032388357
3887+1032522204+1032560978+1032281103+1032059491+1032131287+1032082566
3878+1031528163+1030814605+1030488852+1030716487+1031351347+1032217969
3870+1032974564+1033110509+1032702674+1032321704+1032143128+1031869006
3861+1031479036+1031362782+1031681160+1032270615+1032998789+1033763301
3853+1034101505+1033698948+1033016856+1032373064+1031821232+1031509013
3844+1031588658+1031882336+1031971590+1031713437+1031382068+1031250454
3836+1031241251+1031133659+1030907445+1030741727+1030793290+1031028842
3827+1031224131+1031121479+1030775087+1030672164+1031228800+1032013680
3819+1032215804+1032001838+1031996831+1032276434+1032496829+1032507385
3810+1032312975+1031903720+1031373339+1030979782+1030909002+1031153892
3802+1031574515+1031880983+1031951155+1032030529+1032305870+1032596165
3793+1032557053+1032092784+1031480931+1031209379+1031562944+1032270344
3785+1032696652+1032531339+1032093866+1031773527+1031584259+1031412045
3776+1031297077+1031313588+1031562876+1032237661+1033252746+1033908381
3768+1033617950+1032658487+1031618905+1030871920+1030662285+1031111735
3759+1032041559+1033013811+1033760391+1034355192+1034958789+1035545064
3751+1035591416+1034488497+1032716952+1031279348+1030863732+1031628582
3742+1032672088+1032957105+1032276096+1030941279+1029759663+1029720618
3734+1030732795+1031712625+1032254239+1032597451+1032874618+1033155981
3725+1033494794+1033685144+1033555899+1033475035+1033844367+1034338545
3717+1034361958+1033949117+1033684738+1033935718+1034304644+1034122752
3708+1033528290+1033150636+1033329414+1033926177+1034278997+1033619574
3700+1032127971+1030883829+1030588933+1031144148+1032105640+1033182845
3691+1034323117+1035305113+1035485380+1034753079+1033959673+1033718301
3683+1033998379+1034587292+1035331233+1035980100+1036113474+1035437269
3674+1034400055+1033882193+1034084655+1034639261+1035041682+1035148800
3666+1035210514+1035371563+1035560492+1035596965+1035379751+1035058058
3657+1034871903+1034784950+1034544662+1034164300+1033878133+1033765804
3649+1033722768+1033758293+1033896336+1033929493+1033738737+1033583372
3640+1033856141+1034506294+1035012923+1035046013+1034769860+1034547368
3632+1034675667+1035274121+1035999453+1036144804+1035697993+1035239137
3623+1035062118+1035247190+1035783796+1036286230+1036130255+1035289347
3615+1034279674+1033498922+1033112809+1033161530+1033640010+1034450333
3606+1035278723+1035773646+1035854103+1035692715+1035483892+1035231626
3598+1034814386+1034267426+1033822510+1033624040+1033614025+1033766413
3589+1034160105+1034737244+1035148597+1035112598+1034760590+1034420423
3581+1034319869+1034437002+1034596225+1034749763+1035009946+1035423600
3572+1035894974+1036277636+1036433001+1036256659+1035773578+1035180469
3564+1034676343+1034348898+1034209706+1034220194+1034313102+1034406213
3555+1034399717+1034222495+1033918463+1033647047+1033511644+1033406217
3547+1033153816+1032844303+1032870897+1033464885+1034446272+1035442750
3538+1036056227+1035927455+1034978548+1033633243+1032598330+1032401078
3530+1033067066+1034047709+1034619570+1034583029+1034374680+1034442754
3521+1034765191+1034980849+1034774394+1034140414+1033408992+1032975985
3513+1033004067+1033439374+1034090881+1034577345+1034560361+1034204427
3504+1034112467+1034682704+1035601634+1036120782+1035819457+1034968939
3496+1034218841+1033951688+1034034716+1034213969+1034384695+1034385574
3488+1033947290+1033098667+1032342681+1032207278+1032729132+1033456494
3479+1033972665+1034330696+1034854716+1035566650+1035971101+1035574499
3471+1034501016+1033402631+1032862303+1033012864+1033553259+1033972597
3462+1033950132+1033707407+1033775751+1034321696+1034947962+1035218160
3454+1035107861+1034826431+1034464204+1034057656+1033859457+1034186766
3445+1034909797+1035431855+1035333195+1034841994+1034558940+1034806672
3437+1035367977+1035810795+1035894771+1035644874+1035221002+1034830288
3428+1034604615+1034450739+1034180067+1033832998+1033660648+1033768376
3420+1034013063+1034277441+1034591285+1034944173+1035185747+1035165785
3411+1034897482+1034593924+1034516241+1034701177+1034875964+1034744891
3403+1034302681+1033794360+1033496418+1033604146+1034096497+1034609758
3394+1034677832+1034223036+1033683994+1033591424+1034081137+1034811002
3386+1035290226+1035298279+1034957571+1034447626+1033863449+1033374075
3377+1033228860+1033512659+1034105700+1034879482+1035671196+1036150962
3369+1036106842+1035840231+1035868178+1036235276+1036514744+1036463926
3360+1036238592+1036008792+1035799562+1035670317+1035654618+1035581537
3352+1035304504+1035067328+1035318782+1036104339+1036863843+1037008855
3343+1036558931+1035955334+1035391051+1034726147+1033966507+1033300520
3335+1032681359+1031932478+1031204440+1030834838+1030891408+1031270957
3326+1031997169+1033046495+1034161864+1035111448+1035876839+1036442610
3318+1036626193+1036275065+1035575108+1035006089+1034829679+1034737650
3309+1034327177+1033792195+1033706460+1034254502+1035100553+1035831975
3301+1036196164+1036126534+1035833599+1035655565+1035636415+1035503380
3292+1035180604+1035000134+1035227972+1035698264+1036105692+1036363101
3284+1036541405+1036765860+1037215987+1037882312+1038359844+1038213817
3275+1037469876+1036521240+1035762007+1035458516+1035677760+1036199615
3267+1036664899+1036834137+1036616720+1036038768+1035348285+1034973811
3258+1035187506+1035866283+1036643990+1037196025+1037357412+1037171326
3250+1036906880+1036848956+1036986728+1037080448+1037025434+1036935097
3241+1036905391+1036956413+1037141417+1037505334+1037972716+1038360453
3233+1038459452+1038155961+1037584303+1037089854+1036924406+1037014878
3224+1037082072+1036946330+1036701778+1036608735+1036835828+1037316203
3216+1037831223+1038175855+1038273636+1038185667+1038021437+1037856260
3207+1037754488+1037819043+1038114819+1038528405+1038771468+1038634779
3199+1038259358+1038057572+1038265245+1038683635+1038974404+1039051342
3190+1039034425+1038994569+1038947134+1038950923+1039034764+1039126048
3182+1039161235+1039194189+1039344547+1039640797+1039906461+1039888123
3173+1039558378+1039177949+1038999035+1039045252+1039194122+1039301781
3165+1039261113+1039104665+1039023328+1039153386+1039393133+1039547483
3156+1039593024+1039656970+1039767742+1039831621+1039864778+1039991317
3148+1040152637+1040082601+1039666917+1039105883+1038659004+1038443888
3139+1038523804+1038957419+1039608114+1040062707+1039973385+1039453966
3131+1038964728+1038810783+1038905315+1038975284+1038840557+1038493962
3122+1038037204+1037604400+1037305714+1037166657+1037161852+1037334744
3114+1037723496+1038095060+1038053038+1037564273+1037074628+1036967848
3105+1037189190+1037478606+1037702722+1037887252+1038067519+1038212667
3097+1038329935+1038544307+1038869451+1038979547+1038492406+1037428464
3088+1036184863+1035178371+1034636419+1034528760+1034568751+1034448303
3080+1034126948+1033788608+1033563883+1033399315+1033115110+1032560436
3071+1031822992+1031236920+1031076344+1031366640+1032058747+1033111321
3063+1034272434+1035091621+1035319797+1035055622+1034459468+1033607191
3054+1032681088+1032005763+1031744768+1031683190+1031365083+1030420710
3046+1028796072+1026745059+1024607769+1022555943+1020565154+1018623086
3037+1016876984+1015541694+1014755866+1014562539+1014930585+1015746592
3029+1016850187+1018121193+1019509603+1020918516+1022018322+1022310512
3020+1021567045+1020136749+1018624372+1017380771+1016464683+1015895935
3012+1015668436+1015675338+1015877935+1016417790+1017335840+1018312693
3003+1018944238+1019215180+1019492889+1020091817+1020955665+1021728094
2995+1022128147+1022310715+1022704880+1023430686+1024150334+1024586183
2986+1024840343+1025102759+1025425670+1025800212+1026047606+1025705883
2978+1024443403+1022435900+1019976240+1016969148+1013197272+1008841829
2969+1004435229+1000552987+997767439+996617491+997301681+999406220+1002077612
2959+1004577264+1006678352+1008449220+1009753654+1010237750+1009746752
2951+1008413965+1006368297+1003726814+1000863177+998295654+996166755+993990150
2941+990986441+986609344+980804658+973947059+966621267+959374713+952558595
2931+946367999+941039560+936973329+934629720+934280621+935830486+938899631
2921+943098693+948175747+953866683+959723947+965251195+970225596+974766179
2911+979051856+983028359+986444166+989168002+991425808+993568985+995548068
2901+996784225+996687392+995160669+992541855+989301646+985964130+983153545
2891+981529381+981562808+983272911+986194201+989698518+993311035+996726030
2881+999747942+1002299428+1004324795+1005718212+1006526234+1007064870
2873+1007624755+1008190864+1008548759+1008482986+1007823563+1006467092
2864+1004390094+1001579915+998029449+993828153+989188573+984427596+979979718
2854+976315773+973781611+972608182+973011821+975073865+978510446+982748417
2844+987230738+991535159+995296817+998321098+1000841591+1003358633+1006039093
2834+1008504369+1010382559+1011785856+1013026546+1014142457+1014979373
2826+1015549069+1016065308+1016701724+1017449386+1018195087+1018875013
2817+1019524760+1020168079+1020707324+1021022724+1021170714+1021370808
2809+1021751913+1022222273+1022630242+1022924936+1023085512+1023076038
2800+1023004040+1023148511+1023661569+1024336623+1024806306+1024924928
2792+1024868087+1024890620+1025075895+1025320176+1025485015+1025540638
2783+1025598359+1025802039+1026122040+1026300007+1026108439+1025616764
2775+1025107564+1024809419+1024802990+1025045783+1025386558+1025686192
2766+1025964780+1026294864+1026596325+1026720766+1026687812+1026661015
2758+1026754194+1026998610+1027393182+1027854812+1028179888+1028192610
2749+1027950562+1027731927+1027779227+1028110461+1028617970+1029194907
2741+1029665469+1029803647+1029622094+1029450218+1029519780+1029660597
2732+1029599967+1029372129+1029230500+1029313934+1029565185+1029864683
2724+1030133460+1030376388+1030635962+1030864612+1030940603+1030889107
2715+1030918475+1031138463+1031413804+1031559493+1031536215+1031441074
2707+1031420368+1031543523+1031705114+1031763579+1031763309+1031857029
2698+1032060032+1032262089+1032378883+1032341328+1032098265+1031782662
2690+1031667694+1031820014+1031995274+1031976260+1031812774+1031661063
2681+1031570252+1031475179+1031319475+1031194628+1031309866+1031700919
2673+1032076002+1032151046+1032018890+1031967801+1032066325+1032126482
2664+1031990537+1031697671+1031396413+1031200177+1031146313+1031229341
2656+1031394992+1031543591+1031634198+1031730828+1031856758+1031910960
2647+1031836661+1031739219+1031737595+1031801879+1031795180+1031601379
2639+1031232995+1030898581+1030909543+1031385316+1032065649+1032521392
2630+1032584391+1032472942+1032417792+1032325899+1032027958+1031707280
2622+1031736377+1032149422+1032607195+1032850393+1032916505+1032982955
2614+1033214514+1033668227+1034203142+1034575789+1034659900+1034496211
2605+1034220938+1034028762+1034065235+1034268780+1034448438+1034527203
2597+1034572135+1034621262+1034641765+1034637434+1034685884+1034827175
2588+1034979089+1035038772+1035034171+1035042900+1035030449+1034990864
2580+1035105493+1035422246+1035585123+1035319053+1034938827+1034899174
2571+1035144605+1035351736+1035481997+1035681144+1035896531+1035931312
2563+1035759368+1035616521+1035768503+1036199074+1036587284+1036676132
2554+1036606299+1036785213+1037404848+1038164893+1038626456+1038804490
2546+1039122191+1039727480+1040225989+1040195403+1039685391+1039135048
2537+1038983878+1039375201+1040106488+1040788242+1041037462+1040669891
2529+1039862139+1039043561+1038548705+1038443414+1038573404+1038659816
2520+1038565690+1038492676+1038642087+1038869993+1039032869+1039351382
2512+1040030835+1040845895+1041388862+1041486100+1041242496+1040829993
2503+1040321604+1039819711+1039680857+1040232282+1041209542+1041900769
2495+1041910378+1041443267+1040898134+1040508232+1040330942+1040361257
2486+1040564261+1040774099+1040677402+1040128074+1039459109+1039241489
2478+1039708127+1040564126+1041360644+1041909092+1042264484+1042448947
2469+1042386219+1042077450+1041644511+1041208121+1040851037+1040645598
2461+1040577456+1040480826+1040205486+1039856184+1039729578+1039933596
2452+1040194591+1040171178+1039891304+1039742232+1040028873+1040606215
2444+1041003696+1040959712+1040725581+1040714484+1040969456+1041182272
2435+1041138355+1040911668+1040688838+1040589027+1040643365+1040782287
2427+1040832699+1040678755+1040476022+1040530698+1040909367+1041312668
2418+1041394208+1041075289+1040550592+1040138359+1040125232+1040587945
2410+1041294194+1041841695+1041996046+1041926483+1042026023+1042441368
2401+1042889871+1043040567+1042937035+1042833165+1042713258+1042306235
2393+1041581512+1040888458+1040513172+1040404294+1040418098+1040541322
2384+1040755220+1040931021+1040990027+1041025621+1041159062+1041342036
2376+1041372148+1041152363+1040949088+1041259548+1042239244+1043364832
2367+1043962001+1043973098+1043843243+1043785184+1043606406+1043176986
2359+1042679018+1042346633+1042204260+1042152900+1042149855+1042156622
2350+1042083202+1041923235+1041835808+1042014857+1042450909+1042836887
2342+1042813474+1042320716+1041702638+1041346975+1041244391+1041164678
2333+1041046327+1040910044+1040686604+1040332228+1039794065+1038936984
2325+1037883395+1037192235+1037314579+1038039031+1038750491+1039006343
2316+1038778573+1038411001+1038302259+1038496601+1038680658+1038579900
2308+1038208810+1037788592+1037535379+1037510342+1037600069+1037605009
2299+1037416554+1037223227+1037423389+1038137894+1038939149+1039317210
2291+1039291902+1039315247+1039670639+1040206636+1040612170+1040759821
2282+1040753393+1040759347+1040798324+1040667048+1040222876+1039779990
2274+1039908086+1040683153+1041510055+1041851236+1041768614+1041640451
2265+1041720502+1042087194+1042696611+1043342839+1043745193+1043816244
2257+1043744448+1043768267+1044000301+1044434390+1044891216+1045061604
2248+1044900554+1044810623+1045111475+1045539136+1045593338+1045165880
2240+1044572230+1044186996+1044285656+1045034537+1046290249+1047415363
2231+1047705320+1047118572+1046290046+1045836198+1045964023+1046498057
2223+1046845870+1046337211+1045008281+1043595782+1042568313+1041873905
2214+1041687412+1042448135+1043863544+1044784030+1044707904+1044679483
2206+1045705937+1046817788+1046202349+1044148155+1043126235+1044626702
2197+1047348575+1049048528+1049071196+1048388630+1047922669+1047672637
2189+1047234216+1046564034+1046182657+1046807909+1048579860+1050414742
2180+1050588919+1048423953+1045218728+1043275104+1043797026+1045661953
2172+1046894794+1047427340+1049114774+1052527198+1055339001+1055189726
2163+1052799494+1050818584+1050744961+1051941938+1052844154+1052644263
2155+1051871835+1051364325+1051114022+1050751119+1050667685+1051529638
2146+1052910604+1053599666+1053123420+1052079507+1051278996+1051230140
2138+1052015899+1053097909+1053603320+1053167404+1052180874+1051097240
2129+1049986607+1048980860+1048611461+1049164037+1049982344+1050049809
2121+1049154969+1047967330+1047164586+1046988920+1047404063+1048128109
2112+1048582025+1048268317+1047348710+1046568838+1046392360+1046491900
2104+1046432961+1046482832+1047142526+1048225957+1049092376+1049542638
2095+1049812701+1049858783+1049438565+1048832532+1048675069+1048968341
2087+1049034588+1048591431+1048112884+1048012803+1048138801+1048099486
2078+1047632509+1046795931+1045983443+1045540828+1045549421+1046130689
2070+1047363800+1048727579+1049349311+1048920703+1047966180+1047351146
2061+1047637314+1048557191+1049242734+1049173442+1048364879+1046757090
2053+1044514103+1042762723+1042730107+1044093209+1045331057+1045799590
2044+1046217912+1047337477+1049210660+1051305454+1052738795+1053040730
2036+1052974280+1053628154+1054504656+1053830752+1050938559+1047127639
2027+1044397037+1044261160+1047033175+1051284545+1054788185+1056666578
2019+1057652228+1057977981+1056704336+1053873044+1051489105+1051351604
2010+1053148863+1055334062+1056780395+1057080028+1056426424+1055662589
2002+1055453834+1055394760+1054702585+1053423188+1052170385+1051208554
1993+1050571596+1050604415+1051601569+1053106909+1054038492+1053435572
1985+1051221208+1048443103+1046685565+1047093941+1049519902+1052353021
1976+1053882586+1053992614+1053596689+1053176877+1052944100+1053239199
1968+1053758077+1053611170+1052754968+1051897616+1051222088+1050711398
1959+1050911763+1052001351+1053186824+1053952284+1054631195+1055239191
1951+1055071578+1053935908+1052696435+1052134927+1052031395+1051751792
1942+1051228381+1050928950+1051105090+1051518676+1051698131+1051332522
1934+1050691842+1050488162+1051027678+1051772769+1052062252+1051968261
1925+1052091823+1052683511+1053266064+1053255034+1052679112+1052035523
1917+1051605697+1051162066+1050421577+1049424761+1048423479+1047662825
1908+1047285238+1047268998+1047436949+1047617623+1047710192+1047586563
1900+1047161812+1046598544+1046189966+1046013352+1045897302+1045680426
1891+1045321448+1044965177+1045026552+1045794514+1046912456+1047652810
1883+1047738410+1047565248+1047546910+1047737530+1048110854+1048585476
1874+1048802961+1048495681+1047972744+1047834160+1048273866+1048938364
1866+1049516722+1049999735+1050430915+1050790434+1051085263+1051379483
1857+1051621734+1051604817+1051284883+1050957709+1050927665+1051179795
1849+1051479767+1051630869+1051666869+1051908105+1052599197+1053492751
1840+1054206715+1054596617+1054660293+1054434350+1054059537+1053828384
1832+1053988080+1054375952+1054470755+1054115701+1053611982+1053103593
1823+1052551829+1052161385+1052290496+1052981858+1053794482+1054184520
1815+1054063259+1053825271+1053842323+1054053447+1054134378+1053966155
1806+1053731686+1053676740+1053877646+1054164761+1054284804+1054165573
1798+1053951945+1053838737+1053901127+1054002425+1053938073+1053767956
1789+1053726205+1053906878+1054232496+1054440913+1054284668+1053943216
1781+1053882856+1054264909+1054821545+1055272755+1055556689+1055773565
1772+1056005733+1056098370+1055874322+1055448420+1055099119+1055087751
1764+1055547215+1056242232+1056606353+1056487122+1056304419+1056359704
1755+1056595662+1056859363+1057052623+1057161365+1057305904+1057538208
1747+1057670431+1057507080+1057103915+1056812605+1056968782+1057437788
1738+1057811992+1058051604+1058407334+1058942790+1059423705+1059718128
1730+1059898666+1060080152+1060350620+1060746274+1061299662+1061962875
1721+1062584404+1063168717+1063906973+1064700785+1065195573+1065470575
1713+1065706871+1065912988+1066172494+1066618831+1067303562+1068176072
1704+1069034236+1069805379+1070855044+1072327767+1073447603+1073741823
1696+1073231946+1071643916+1068784271+1064308447+1057772609+1049861422
1687+1041497807+1031030872+1015450477+995887355+973864301+946085147+908644035
1677+858394950+798086830+746226031+723748114+732965630+765082430+806048092
1667+840862202+866588244+888340694+909302308+927883435+941723750+951472932
1657+958737079+964667966+971070904+979462262+986475564+989940769+992208387
1647+995064310+998474704+1001406821+1003610222+1005275799+1006330471+1006736140
1638+1007083817+1008718470+1012001784+1015282187+1017805387+1020071382
1629+1022449975+1024850020+1027054842+1028996707+1030617624+1031786654
1621+1032566459+1033256468+1034008529+1034412506+1033768105+1031719189
1612+1027690920+1020289949+1007454231+987149401+958401446+922504921+884524563
1602+853427992+837654000+838893134+851692649+868471780+883792126+895717102
1592+905126997+913946152+923451053+933686429+943982639+953683439+962467541
1582+970241701+976895010+982476799+987580987+992843247+997559699+1000628843
1572+1002476176+1003818369+1004452349+1003620508+1001050685+997070866+992575553
1562+988751370+986431783+986384010+988558720+990515743+991335133+991764892
1553+992485352+994029871+996540620+999527684+1002442275+1005249477+1008071430
1543+1010836543+1013627978+1016432744+1018516171+1019710644+1020503306
1534+1021235472+1022003029+1022760909+1023520143+1024361999+1025260087
1526+1026063034+1026750675+1027477496+1028229760+1028643210+1028387426
1517+1027497390+1026350352+1025351845+1024581987+1023970269+1023443543
1509+1022054592+1016054210+1002885973+988729581+979146456+975993539+980112889
1499+990026842+1001316890+1009711970+1014471052+1017160986+1019118144
1490+1020895103+1022408901+1023344342+1023589773+1023165563+1022062441
1482+1020309775+1018205710+1016344235+1015298157+1015388290+1016662477
1473+1018803218+1021000868+1022560139+1023531308+1024274166+1025056677
1465+1025892173+1026455237+1026473372+1025953074+1024868290+1023058377
1456+1020777767+1018518945+1016029850+1012898654+1009402051+1006796094
1448+1006624420+1009065945+1012454076+1014666207+1014222847+1010929451
1439+1006015206+1001449790+998988032+998605979+998815682+998786585+998385111
1429+997541428+996264129+994670415+992826466+990721115+988014806+983323594
1419+974386224+961426403+949165389+941683690+940119209+944086171+951938284
1409+961312721+970359646+978065394+983547237+985892132+984975706+981454811
1400+976228143+970472719+965251195+961136379+958850761+959199453+962313394
1390+967932941+975605937+984021386+991378914+996978296+1001169645+1004273909
1380+1006358079+1007502411+1007766519+1007018180+1005127810+1002374471
1371+999317845+996377473+993865235+992044157+990808745+989369314+986226885
1361+979846751+969688449+956275795+941094100+926893318+916934163+913204309
1351+915763982+923536653+934899376+947922195+960808934+972320323+982020785
1341+990174020+997194901+1003221944+1008266584+1012445211+1015883687+1018673701
1332+1020921290+1022626318+1023547075+1023398950+1022346443+1021252863
1323+1021242171+1022894959+1025891293+1029326927+1032309388+1034339560
1315+1035171875+1034245637+1030180151+1021263216+1007608041+993356170+985303218
1305+987528544+997774544+1009938319+1019221676+1024275993+1025767393+1024566221
1295+1021320057+1016837737+1012386476+1009359421+1008392311+1008794258
1286+1008985420+1007453419+1003228372+995700930+984415077+969180940+950199558
1276+927828150+902147377+873021091+841191067+809755141+784117405+769516030
1266+768048314+777706009+793877076+811829974+828347771+841990090+852649608
1256+860983246+867879077+874039696+879792481+885164431+890138020+894862727
1247+899600561+904463378+909311985+913970174+918411285+922682211+926768471
1237+930596985+934159089+937639925+941343591+945373214+949500954+953444842
1227+957072923+960261704+962862248+964904803+966565102+967894100+968821488
1217+969397206+969798409+970119967+970336572+970490990+970783315+971428325
1207+972513515+974031035+975960449+978262511+980831386+983484509+985982942
1197+988050805+989375810+989710766+989122123+988043970+986870609+985562251
1187+983795510+981292678+977689499+972177003+963854327+953132690+942894675
1177+937403223+939188437+946993453+956951053+965363591+970181139+970889351
1167+968355730+964853782+963184347+964958735+969670787+975536307+981043999
1157+985642843+989397666+992461194+994862321+996617017+997963067+999324680
1147+1000938491+1002643248+1004138438+1005301107+1006193714+1006940903
1139+1007698851+1008608645+1009670084+1010724282+1011615806+1012335116
1130+1012956375+1013484658+1013823538+1013892018+1013725555+1013401223
1122+1012856700+1011782878+1009571762+1005333385+998437892+989717059+982024033
1112+978712299+981043999+987298203+994464773+1000450132+1004738516+1007653784
1102+1009484606+1010125556+1008988465+1004962700+997063422+986170044+976079342
1092+971510136+974319639+982155579+990938261+997983773+1002810252+1006030702
1082+1008098430+1008814627+1007623063+1004309502+999574645+995075002+992721445
1072+993473438+996687866+1000800043+1004620774+1007871945+1010694170+1013044884
1062+1014704845+1015674864+1016304920+1016968403+1017754027+1018572403
1054+1019404650+1020297934+1021233916+1022131056+1022885689+1023383048
1045+1023595998+1023659674+1023656629+1023347319+1022304895+1020448968
1037+1018425360+1017315607+1017810868+1019679314+1022046336+1024043080
1028+1025180780+1025335604+1024468846+1022315722+1018218297+1010978713
1020+999231704+983418938+967925497+959435885+961563905+971829528+984546285
1010+995508076+1003471232+1008898196+1012709996+1015736509+1018408240
1001+1020711181+1022445780+1023542744+1024173002+1024552755+1024649858
993+1024132131+1022619145+1020106975+1017311953+1015464485+1015467394
984+1017217083+1019791101+1022202514+1023999908+1025345078+1026591453
976+1027787956+1028624263+1028788155+1028213249+1026980881+1025051738
967+1022093365+1017553121+1010842159+1001331506+988316672+971540925+952315329
958+934210788+922090861+919465144+925996042+937548438+949131149+958184368
948+965294029+972188100+979471803+986115504+990385482+990988606+988127270
938+984219991+982960827+986552367+993888039+1001979900+1008741207+1013812170
928+1017449251+1019750636+1020751444+1020340497+1017859860+1012014708
919+1001177900+984135812+961610054+937637625+918563199+909379923+910731183
909+919576390+932124181+945553143+957859765+967692788+974781607+979903254
899+984076941+987886237+991492461+994951034+998260061+1001130939+1002986324
890+1003403294+1002494108+1000819260+999121338+998164379+998505222+1000244151
880+1003092495+1006676389+1010685305+1014839572+1018876570+1022575905
871+1025794596+1028519378+1030855003+1032886866+1034498850+1035279535
863+1034611382+1031826984+1026070545+1015953047+999801468+976728141+947407513
853+913818598+879015992+847856557+826984737+821819445+832366025+852641014
843+874725375+893042190+905016834+908796491+901486871+881071945+851415278
833+824097281+811874026+818998912+839090656+862074052+881368736+895132789
823+903962298+909146875+912097330+914127096+916317032+919331162+923281139
813+927881337+932632367+936753679+939278300+939567513+937693315+934211464
803+929611334+923904631+916628372+907502410+897545555+889540986+886786227
793+890785196+900141634+911854064+923385077+933410547+941457341+947684478
783+952744750+957176184+960991773+964113833+966797203+969304569+971608593
773+973701763+975784513+977914968+979795120+981108554+981942290+982705313
764+983535463+983815066+982334696+977963283+970521102+961619663+954479822
754+951983757+954524550+959937981+965216346+968139125+968147042+966213432
744+963309533+958927293+951909051+942689303+933921508+928813395+929120404
734+934392950+942641258+951629245+959750135+966082630+970029427+971054934
724+968271145+959513297+941578399+914114780+884279741+864435323+862863872
714+877445826+898849989+918872712+934613073+946439524+955222477+961777397
704+966981327+971462024+975401716+978689292+981150373+982739079+983508057
694+983246115+981455623+978332141+975638892+975655470+978979519+984000882
684+988445444+990555329+988895232+982026266+969223638+952319457+936831091
674+929436616+932455821+942566824+956053168+971217946+984388010+991790606
664+994690513+995039138+992994350+988050128+979378219+964804993+941456664
654+909219280+873758807+845069114+831835780+836498571+854694261+878840055
645+902666458+923368431+940878104+955426157+965219188+966487690+956934542
635+940137547+925386896+921101557+928557813+942593417+957170364+969240352
625+978516536+985590468+990876548+994704926+997573638+999955412+1002006832
615+1003464533+1003623011+1001428407+995469776+983699219+964217230+938161306
605+911805952+893322606+885219445+880597120+869634043+850950535+834274666
595+830684952+841920798+858967352+869190548+865497844+851009271+836455128
585+832428889+842082998+860762581+881670062+900532280+916279544+929320836
575+939894416+947881933+953529697+957701016+961415509+965265947+969151436
565+972507560+974828907+976089018+976736465+977275033+977952456+978764742
555+979278950+978491499+975804610+972467704+971060483+972941582+976843718
545+980421996+982604420+983991138+985570642+987665978+989773426+990907472
535+990191884+987427990+983214446+978524318+973901519+968467788+959528725
526+944024999+921633968+896333827+874994896+864658627+868682294+883775142
516+902336306+918329474+929976064+938303206+944973161+951028692+956465536
506+960389258+961506658+958229637+948364472+929766564+902647578+872182551
496+848441207+840908757+851364730+872739322+895069114+912369423+923644989
486+929482089+929773602+924108244+913748156+903030037+897840181+901542900
476+912474646+926178407+938747581+947938571+953634718+957180515+959306775
466+959349473+956276133+950025516+942420932+937015892+937245828+943580015
456+952480168+960218667+965645699+968425157+968369940+966590478+964997238
446+964434511+963801005+961110124+955751437+949677094+945729350+945632991
436+949739890+956757929+963531890+966913051+966601372+965530054+966723242
426+970341511+973992735+975181457+973590923+970741429+968000203+965707209
416+963753976+961597739+957954703+952050139+945355891+940960050+941209406
407+946656535+955990034+965988572+972991656+975445632+974773013+974650128
397+978014440+982916098+984856813+981851074+975905232+970822427+968603800
387+968302881+967846664+966174388+963762569+962006588+962801888+967825417
377+977297093+988803881+998690700
##END=
