##TITLE=X7998
##JCAMP-DX=5.0
##DATA TYPE=LINK
##BLOCKS=1


$$ === CHEMSPECTRA SPECTRUM ORIG ===
##TITLE=X7998
##JCAMP-DX=5.00
##DATA TYPE=INFRARED SPECTRUM
##DATA CLASS=XYDATA
##ORIGIN=ComPlat
##OWNER=
##XUNITS=1/CM
##YUNITS=TRANSMITTANCE
##XFACTOR=1
##YFACTOR=8.3495805e-010
##FIRSTX=3997.453
##LASTX=373.96442
##MAXX=3997.453
##MAXY=0.8965293779005671
##MINX=373.96442
##MINY=0.2870902124805984
##NPOINTS=2559
##XYDATA= (X++(Y..Y))
2559I58522183I59108694I59876669I60119739I59684995I59024244I58657532I58732844
2551I59059152I59347481I59424222I59362044I59314572I59238474I59059294I58985338
2543I59234262I59628601I59932279I60286855I60805191I61085954I60636862I59563425
2535I58519684I58109427I58437590I59154381I59771231I59832623I59083851I57838587
2527I56970528I57230232I58553236I60000167I60538849I60122666I59822415I60565404
2519I61787968I62224067I61579163I60324261I58754403I57219738I56637367I57543404
2511I58938937I59422151I58840424I58117708I57997565I58218291I58136125I57737432
2503I57668330I58471499I59896085I61206740I62012264I62381546I62255120I61210238
2495I59150598I56959963I55888025I56082125I56853241I58230784I60222036I61667468
2487I61490572I60036431I58895962I59363472I60441478I60313411I59158379I58425954
2479I58262551I57627569I57064330I57968225I59450635I59646376I58653034I57399561
2471I55985182I54736206I55145107I57195610I58486847I58076803I57454314I57928391
2463I58803446I58768538I57421334I55105345I52810129I52563704I55902160I59915788
2455I61566741I61496212I60738873I59629243I58242348I56541710I54495348I52740313
2447I52823193I55491617I58982840I61219732I62031396I62194942I62110420I61790895
2439I61354581I60687118I59186505I56973812I55806502I56920772I58417173I59041305
2431I60312554I62668805I64066265I63375387I61218303I58837354I57908260I58993976
2423I59872885I58812083I57303260I57564749I59070287I60627082I62419237I64134938
2415I64788552I64440900I63890369I63403869I62821429I62298952I62087148I61851002
2407I61049119I59905509I59411943I60155861I61521339I62521178I62704354I62381974
2399I62329220I62708067I62745474I62397679I62582356I63257029I63384382I62849341
2391I62623903I62925653I62639179I60994151I58294461I55853688I55794866I57994209
2383I59050942I57837159I56666565I57707807I59139390I58178957I54881406I50642910
2375I47334650I46932602I49719670I53607872I56412287I57242225I56418925I55150460
2367I54612921I54910174I55595626I56707041I58295817I59874741I60725738I60239526
2359I58410749I56562198I56877154I59577702I62318440I63410081I62579572I60446546
2351I58534462I58268547I59232264I60051422I60437266I60782633I61073604I61035484
2343I60959956I61821591I63750880I65061534I64769064I63597899I62478060I61748491
2335I61024633I59616679I57878206I58067595I60995864I63136884I62726342I62059022
2327I63621670I66328571I67824758I67604389I66341420I64850658I63474685I62265686
2319I61848075I62887747I64155141I63587405I61023562I58305811I57693530I59099770
2311I60747011I62106208I63268093I64195688I64904270I65405473I65416324I64569325
2303I62845843I60370163I57062546I53401637I51683723I53817820I57112873I58586288
2295I58268761I57434826I57595231I59677286I62446007I63568702I62690934I61209096
2287I60341394I60369592I61466300I63768298I66055946I66532878I65157049I63433995
2279I62498191I62055310I61315247I60274719I59560998I59536726I59695419I59213275
2271I58173389I57967511I59734538I62318940I63931844I64188621I63645799I63149378
2263I63215267I63546358I63664145I63686489I63690986I63037301I61359221I59803283
2255I60165926I62055738I63395375I63726465I63948477I64562472I65224866I65340726
2247I64617153I63326773I62291171I62071514I62160533I61775118I61059184I60809903
2239I61310107I62225352I63341550I64468241I65127067I65013705I64451537I63913284
2231I63449915I62957991I62504188I62099140I61669110I61511630I62175168I63614603
2223I64989362I65527116I65196454I64567253I64273856I64423268I64495297I64090464
2215I63598113I63664502I64190191I64518783I64428908I64317045I64412346I64337890
2207I63800850I63220050I63235042I63804276I64280067I64350026I64383576I64831670
2199I65633624I66258469I66191651I65388127I64363018I63761516I63746239I64026787
2191I64419342I64976941I65593577I65947011I65943370I65778324I65490709I64895061
2183I64003873I63128676I62529387I62264615I62363913I62907092I63868381I64951170
2175I65683095I65805237I65538538I65346222I65402689I65387627I64923401I64183909
2167I63824978I64231667I64957310I65160690I64577177I63751950I63312853I63362252
2159I63668428I64082327I64545910I64901842I64907054I64431834I63653152I63028663
2151I62957420I63483109I64361305I65208875I65607640I65369709I64685328I63860743
2143I63136528I62844915I63324489I64458818I65567306I65945083I65427889I64401138
2135I63385167I62701642I62481201I62730696I63249033I63694699I63876591I63814628
2127I63556209I63158515I62855694I63015314I63753164I64643781I65055537I64879570
2119I64673049I64947601I65504200I65666034I65135918I64415701I64145075I64240447
2111I64221029I64212107I64786625I65837147I66504967I66359123I65881835I65611923
2103I65519335I65428888I65451018I65715148I66076434I66314222I66377899I66367833
2095I66386465I66309368I65735136I64533774I63374316I63205630I64222315I65711079
2087I66834272I67312347I67407219I67440128I67439414I67220901I66661446I65915529
2079I65479144I65867486I67039936I68316396I68973508I68773912I68007508I67250455
2071I67000531I67361889I68047841I68587736I68596087I68072755I67413787I66965623
2063I66749394I66706919I66897520I67320698I67791635I68114230I68279133I68400918
2055I68495290I68483726I68433256I68501430I68593019I68470020I68244153I68290340
2047I68678397I69145335I69532963I69811370I69854559I69656034I69608205I70087136
2039I70836692I71190056I70909936I70443782I70280450I70332062I70096987I69343718
2031I68509996I68327247I69061528I70228838I71106105I71459111I71629225I71893355
2023I71970523I71422633I70435002I69764612I69874547I70456418I70821631I70545437
2015I69806516I69256340I69376484I69858700I69901103I69242635I68501644I68248936
2007I68265712I68115872I67935550I68066830I68307687I68184403I67748089I67496595
1999I67609528I67747947I67636941I67529005I67937263I69027761I70410017I71507226
1991I72002504I71933331I71491092I70815777I70051586I69564016I69784458I70643664
1983I71488380I71808976I71771925I71833747I72109798I72390061I72545683I72635488
1975I72736713I72888481I73116418I73381190I73626759I73914660I74310284I74680279
1967I74829263I74678495I74165227I73377692I72830943I73005340I73647175I74150949
1959I74351331I74356042I74110902I73637538I73129766I72630134I72229299I72364790
1951I73153967I73794731I73420095I72257211I71316338I71174065I71551341I71923480
1943I72163623I72465517I72828159I72964579I72719295I72248145I71784348I71425560
1935I71013303I69966993I67395084I62567864I55188795I45305849I33498539I21452228
1927I11894589I07207215I07788800I12014447I17793104I23829109I29485696I34199267
1919I37641662I40191228I42629716I45353107I48159520I50645408I52501169I53644279
1911I54350362I55008830I55578137I55641385I55079503I54194954I53084467I51473205
1903I49329900I47113494I45242886I43654610I41884299I39363931I35852862I31798401
1895I28001715I24797965I21878976I18844840I15462124I11476122I06817945I02229799
1887H99297174H99426240I02703020I07855261I13298117I18053022I21859416I24992993
1879I28085023I31645134I35578953I39286048I42182908I44097777I45317699I46245651
1871I46988497I47473782I47797305I48037021I47992761I47643539I47523110I48155379
1863I49435480I50892834I52238182I53489085I54816373I56305921I57787046I59024601
1855I60033861I60996578I61993347I63007747I63991023I64802473I65260274I65289970
1847I64900486I64046277I62482201I59632598I54761120I47421527I37582483I25373625
1839I11212849H96246834H82113113H69951513H59702068H50276209H40295534H28941028
1831H16577333H04835699G95985999G91840520G92877264G98179489H06070755H14819372
1823H23077635H30021176H35172561H38140379H38729531H37335926H34965683H32624995
1815H30687496H28916543H26981685H24700819H21833799H18047179H13239948H07760685
1807H02436830G98535564G97302221G99130141H03286043H08539582H13956667H19215417
1799H24491086H30053871H35819250H41349911H46372872H51147622H56137746H61349095
1791H66203299H70157177H73222723H75747517H77965992H79982515H81897669H83712668
1783H85304656H86670421H88074020H89816348H91901972H94001232H95716933H96790727
1775H97081912H96470059H94749076H91504850H86184136H78454061H68548770H57397644
1767H46599738H38132241H33626332H33539669H36851640H41573922H45724469H48106633
1759H48577070H48001624H47925526H49760513H53904065H59665875H66053387H72470739
1751H78681355H84415895H89326637H93332984H96757389H99986910I03100356I05877001
1743I08100902I09876067I11617467I13598796I15616747I17345226I18867255I20522563
1735I22352980I24042339I25359419I26410584I27419988I28431604I29314226I29972265
1727I30433707I30793994I31182051I31714379I32417249I33278455I34352749I35669756
1719I37073498I38298275I39179897I39674176I39716794I39266845I38573826I38209470
1711I38603951I39616996I40699427I41388735I41610603I41689343I42083538I42936320
1703I43909888I44587131I44932783I45232963I45673346I46133574I46410839I46510851
1695I46590233I46738217I47000776I47489844I48302864I49424058I50737854I51992398
1687I52839041I53105455I52952188I52671069I52469973I52433566I52504167I52536648
1679I52479253I52401228I52316635I52159157I51977050I51938073I52034873I51998395
1671I51701641I51467922I51674229I52179645I52471330I52303572I51875681I51445935
1663I51121270I51026540I51336928I52022737I52788285I53375367I53767635I54044971
1655I54244782I54401760I54552172I54695587I54876052I55215494I55742540I56295784
1647I56703115I56971742I57213885I57441821I57518133I57328745I56972170I56707755
1639I56688195I56821045I56952039I57069256I57156419I56976382I56309275I55353127
1631I54549744I54017202I53503148I52900362I52473543I52520229I53051200I53857154
1623I54702297I55409522I55911654I56290072I56685982I57139214I57566248I57864001
1615I57980432I57942026I57861002I57875494I58079873I58513902I59092489I59545222
1607I59656298I59593764I59744675I60230174I60817113I61255711I61493285I61591798
1599I61586016I61435319I61141992I60949392I61242647I62092931I63083274I63807061
1591I64322114I64778487I64884139I64324541I63549927I63406297I63982172I64534702
1583I64591811I64428979I64409847I64524351I64677261I64938464I65383915I65935803
1575I66409166I66643885I66585919I66261039I65789745I65485855I65658752I66176375
1567I66561933I66623753I66594699I66644813I66676651I66604622I66526668I66609976
1559I66865682I67058854I67013952I66941637I67106611I67381949I67637869
1552I68149566I68982646I69562446I69614558I69856772I70934635I72285337
1545I72823519I72276057I71209402I70229195I69698223I69793381I70371611
1538I71046926I71552270I71752438I71433341I70574634I69738556I69680519
1531I70543509I71705251I72400127I72395344I72077888I71912058I71938969
1524I71997293I72195319I72731145I73417954I73875826I74031306I73969271
1517I73569364I72815524I72199745I72280554I72972788I73645391I73851269
1510I73764105I73907379I74503812I75158140I75302055I74846110I74103405
1503I73192016I71970595I70605187I69752119I69928515I70906295I71902920
1496I72264992I71897995I71231103I70911649I71385298I72605791I74108617
1489I75308979I75808113I75671908I75430122I75586173I76180393I76946940
1482I77679079I78295643I78779857I79113660I79187259I78946330I78685270
1475I78817407I79282560I79565607I79319895I78636228I77786587I77053877
1468I76720360I76891259I77333712I77686717I77815498I77818068I77769526
1461I77673083I77588276I77553582I77430726I77121623I76911246I77266394
1454I78251955I79366225I80011273I79988072I79562109I79151281I78922916
1447I78674848I78219545I77777164I77675938I77791298I77713130I77393748
1440I77172236I77257828I77589703I78106112I78810839I79620789I80316021
1433I80627266I80391477I79736292I79067616I78744664I78764295I78875301
1426I78987235I79269425I79724513I79803610I78631802I75699035I71290068
1419I66116625I60542204I54411540I47692366I40869042I34463612I28499707
1412I22574279I16168564I09006295I01354530H93717971H86430847H80223801
1405H76471875H75718748H76806534H78653229H81780881H87086675H94496083
1398I03241915I11850900I18048095I19893077I16986224I11050516I05467458
1391I02776119I02791681I04039516I05563544I07201290I09034993I10776107
1384I11990675I12894641I14131196I15688561I16955670I17817589I18862187
1377I20705883I23691405I27951888I33120620I38112884I41801419I43949008
1370I45280792I46772982I49005591I51996182I55396673I58794023I61870133
1363I64416986I66410308I68087460I69766754I71559909I73302451I74678709
1356I75451895I75760855I76114147I76904608I78102686I79506713I80943293
1349I82076053I82506513I82312913I82131734I82498946I83340591I84150541
1342I84482916I84258049I83731860I83268848I83205457I83812527I85109332
1335I86632789I87622633I87610497I86768423I85583052I84340786I83235011
1328I82774640I83321460I84258192I84620621I84529460I84786237I85195710
1321I84837921I83992849I84078298I85404015I86500295I86224530I85412867
1314I85667645I87248711I88983686I89834397I89858098I89878514I90637851
1307I92111195I93604027I94534406I94696668I93931691I92487972I91547385
1300I92330921I94829232I97992363A000762798A002539605A003165093A002869410
1293A002070168A001092603I99952776I98513841I97063912I96189643I95588855
1286I93970168I90919970I87965430I87030268I88405956I90703098I92515456
1279I93837675I95630616I98111007A000345687A001583813A001948383A001674473
1272A000627592I98861778I97040640I95918517I95624404I95718707I95872687
1265I96325705I97880571A001173341A005196820A007287086A006277468A004127667
1258A002919951A003004545A004044502A005696883A007416795A008533278A008433623
1251A006717137A003712341A000371743I97286280I94679249I93520434I95187092
1244I99412453A003873032A006536101A007334843A007161731A006439301A005135000
1237A003395528A001802898A001166702A001794760A002856918A003132612A002507624
1230A001864718A001592950A001268355A000707973A000389304A000844749A002081519
1223A003378608A003806143A003348127A002939869A003014396A002999691A002632408
1216A002510551A002931160A003435576A003758456A004133521A004576116A004777426
1209A004673487A004366669A003730616A002896609A002737417A003897089A005722368
1202A007124753A007996810A008732732A009102442A008750007A008172634A008294348
1195A009418041A010850195A011285367A009803455A006854056A004169999A003559788
1188A005534407A008565045A009886978A007999808A004502517A002845496A004967956
1181A009588655A014006116A016832375A018316926A018613037A017270473A014839053
1174A013300105A013760119A015014378A015564910A015520079A015329120A014724763
1167A014330353A016074751A020199885A023694606A023544980A020172972A016469732
1160A015026084A016787616A020414616A022820694A022474327A021530813A022218550
1153A022838612A020638555A016748639A014990463A017200657A021481200A024275049
1146A023683970A020974999A018906721A018903366A020222443A021381045A021288956
1139A019501441A016649911A014261394A013676382A015602459A020394770A027349661
1132A033624454A035834148A033238967A028032044A022776078A018742104A016335740
1125A015375950A014633960A012777628A010197366A008763928A009540969A011517301
1118A012678829A011762370A009340944A007545933A008189767A010838702A013054179
1111A012876212A010766387A008675766A007619033A006916805A005776693A004319839
1104A002965211A001866430A001050199A000711899A001286560A003070149A005489362
1097A007136461A007124825A006113137A005434037A005450029A005697525A006139407
1090A006945573A007324349A006095219A003357979A000671280I99415522I99507468
1083A000268304A001699816A004056566A006900100A009377779A011129030A012404491
1076A013556739A014695352A015599175A015928480A015570049A014635530A013322163
1069A012040064A011250601A010823354A010080507A009009211A008717312A010015403
1062A012279922A014266819A015443695A016117654A016665474A017014624A016973078
1055A017022905A017989763A019936183A022063427A023406063A023597806A023133581
1048A022899148A023417342A024463366A025368903A025653163A025293518A024509910
1041A023567539A022829332A022722324A023230595A023738366A023793762A023384361
1034A022560277A021146112A018935704A016080962A013201806A011280798A011055645
1027A012359303A014698993A017702718A020675961A022738743A023554475A023544052
1020A023416913A023409275A023275140A023038780A023131296A023770347A024735420
1013A025759529A026579259A026793490A026164861A024901036A023411773A021868828
1006A020141920A018077425A015821829A014187723A014453352A016746212A019605665
999A021888102A023338817A024079450A024419535A024760262A025383751A026317485
992A027389852A028425811A029376249A030307699A031272272A032241985A033287937
985A034432905A035258560A035253848A034527206A033752949A033358611A033110686
978A032821999A032592207A032267613A031421113A029765519A027474159A025468701
971A024591576A024493206A024456299A024453087A024880763A025837055A026965103
964A027805535A028174245A028251557A028376554A028495484A028244275A027563535
957A026419425A024541106A021600701A017454936A012219814A005952803I98412186
950I90124155I84270042I83949232I87706869I93084192I99003908A004665064
943A009414401A013525614A017755687A021877251A025192007A027940883A030675839
936A033056361A035140130A037868445A040983677A043359131A044933701A046330661
929A047673510A048527078A048912778A049922039A052305203A054917873A056837096
922A058008833A058604124A058951776A059349326A059658715A059785426A060485370
915A062581274A065187449A067028432A068229009A069687861A071698387A073357907
908A073741822A072643757A070071706A065508259A058723982A052377874A047551011
901A042492571A036542587A031042551A026973241A023227953A019055847A014615685
894A009608643A001943172I87729855I65781180I39595436I09278849H71617528
887H26565075G81898751G48933727G32935750G30398321G30712278G23600052
880G03866568F68239617F22130717E83922434E61865144E50814138E46595095
873E47803417E53172173E62030047E75566264E95622842F22123506F52197453
866F82211862G09790782G33486996G51806530G63623834G69495150G72000028
859G74904597G81894182G94913276H12672783H30332706H41040237H39918471
852H27388660H07775962G87876005G76379511G76103032G84688459H03027624
845H31370379H61016292H83037781H97499308I06672674I11388245I13421330
838I18179304I30390447I42258935I48896013I52567773I54593718I55771665
831I57087674I58725063I60205403I61246144I61484860I60227603I57281987
824I53880069I51018045I46719728I37186860I17906251H87589163H51105576
817H10734499G63166675G08546517F56049962F14147076E82276335E58762585
810E45630950E43526336E51009522E65090560E80935556E95109788F06208124
803F13927706F21472820F37913106F65417213F91236030G12106771G31971749
796G53144025G76266578H00924510H23939198H41240690H52689783H60925274
789H67540580H69592154H61142075H40783603H14026126G91620864G85190806
782G97995740H21592870H45100195H62037546H67361686H53144942H15039598
775G63157752G10145430F59754630F12451364E73066526E49873658E44494050
768E52094274E69518551E96634102F27549943F52774682F73007586F91918984
761G10387787G28191553G44729068G57670494G64147881G63205938G56034246
754G45785373G37085799G35530503G45485907G63805583G83630941H03643689
747H25227865H47084095H65900049H80961507H94162208I06428533I16907413
740I25721919I34913346I45226538I54417464I60998077I65266770I67691052
733I68287628I66330854I60391793I48618606I29648742I04506454H74926716
726H39133148G94339971G43596095F95123020F56541886F34858625F33499000
719F48305538F72079563F97296378G14857788G18169046G07644051F86332642
712F55662191F17071063E74973971E35921151E05508334D87091965D80984431
705D84541507D95218342E11618938E31538348E52625746E74677218E97941936
698F20023890F37969573F51658342F62849588F73546125F85129067F97589420
691G09824548G20466189G27812563G29636057G24277366G12448141F97653452
684F84897918F79285306F83918068F97292309G14614075G31759160G46759512
677G59205587G69541195G78574286G86889516G94388800H00414525H04230771
670H05575191H05307492H05466612H07915522H12889512H19399522H26470845
663H33479490H39862219H45040088H48679581H51000424H52775732H54946378
656H58164476H62530968H67634453H72778985H77129129H79842669H80359506
649H78565209H74684859H69363789H63999386H60568842H60664999H64518723
642H70746970H76892198H80228726H78298581H69823446H56619532H44427877
635H39898126H45372178H57042854H68775779H77051247H82145094H85953487
628H89329992H90492234H85602266H72651061H55915876H45023169H47614710
621H62871910H83093462I00738823I12688190I19063353I20368511I15995023
614I04117327H82574697H50518780H10004716G66635626G28708534G04518254
607F98630447G09702191G31890011G58568535G85128057H09344464H30352694
600H47690022H60958112H70020258H75376807H78182293H79703607H80741423
593H81635324H82603752H83541483H83170060H78582984H65883202H41517955
586H04018753G56079005G05492393F62641996F35030952F23111352F21226394
579F22775835F24855535F28692054F36651423F49465923F65968031F84502080
572G03964296G23680076G42827263G60069291G73336666G80008939G78387182
565G69862505G59064956G51183755G49476406G55110863G67583851G83995726
558G98647284H04651379G97044515G76314550G50530355G32572108G32154498
551G49359333G76124876H03199951H25090660H40294749H49818979H56159875
544H61819603H67140101H69404122H63837197H44899885H08154238G54754431
537F95682760F48582945F27078436F32527146F55819812F85393125G13095473
530G35354250G52229351G66064106G79633089G94298996H09522858H23891155
523H35998787H43683032H42446049H26069511G91433403G44510198G00334012
516F74095657F71059094F85396266G07509202G30724700G52222213G70997263
509G86684851G99563314H10417401H19906366H28108449H34679994H39242942
502H41580346H41622464H39039705H32515988H20038003H01219621G79675136
495G61963529G53074780G53069712G58419837G65679548G72990942G79043223
488G82371400G82061940G78325790G72085620G64596687G57823546G54573681
481G57252526G66144202G79177144G93378896H06398276H17089673H25477860
474H32406838H38830614H45170440H51320734H57053633H62133774H66219503
467H69045191H70590564H70680511H68586819H63678647H56733464H50320681
460H47513198H49902287H56443137H63857328H68328186H67307432H59852979
453H45781079H26307941H06549329G95191825G98546201H14722429H35144149
446H51417534H59580283H59170454H51626982H40830074H32915038H32914466
439H41252039H54246791H67621818H78777868H86434631H89631314H87891342
432H82423287H76630210H74373757H77179885H83356593H89596976H93097480
425H92885534H89955979H86017592H82255101H79752365H80173830H84622772
418H92217929I00826343I08824260I15426217I19793422I20833379I18317508
411I13999131I10928374I11093348I13918750I17162976I18444219I15650941
404I07542303H95701799H85347988H82309069H88446514I00561642I13759844
397I25121631I34202837I41461263I47236994I51663521I54669816I56117033
390I56126026I54925451I52379812I48301222I43389481I39166833I36511972
383I34695760I32319307I28939019I25513043I23690620I24979287I30166508
376I39158695I51366268I65984988I81730328I96667931A008505081A014546012
369A010035748I85116399I26059863H27994159G10905838F15404904E73720711
362E86123062F28701906F78098649G23434721G61961601G93504536H19130824
355H40364422H58226797H72995714H83805542H87921610H81248624H61303551
348H31114815G99800460G78027324G71993746G80284419G95316395H09360026
341H21082957H35269861H55488558H79293707I01439338I19222259I33328283
334I45246241I55500611I64048846I71249235I77835130I84295313I90748072
327I97116381A003151529A008695611A014109341A020033127A026495380A032492623
320A036799221A039205728A040573205A041668558A042360935A041717315A038494005
313A031734213A020355294A001673617I72950087I37595476I07841127H96258613
306I03648675I18117198I26403303I22844691I07098494H79099965H40092226
299G93485976G39399646F73044493E95133917E20950353D72392543D60653264
292D79208194E11866756E43880484E65231227E67996450E47587437E10077206
285D74508649D61175812D75245570E04297549E33109420E58135634E85602870
278F18869144F51463457F70287977F63133491F27475844E75686907E27352678
271D92308062D63609732D29379027C89115245C55896478C43837888C55748066
264C82529100D11658997D34959873D50797944D62026346D72055063D81636902
257D88939088D92360781D92863484D93698633D98070764E07102535E20007054
250E35551084E52681142E70356056E87709839F04274838F19748838F33834587
243F46508241F58145795F69181489F79759311F89765257F99005369G07327666
236G14848580G21967945G28806904G34866966G39666774G43478022G47147996
229G51407623G56376830G61488381G66032268G70016413G74231423G79196847
222G84405627G88992274G92634836G95035132G94352892G86253892G65557191
215G31396446F91943969F61451628F48910395F51881710F65577190F91628870
208G27043232G56666944G74639611G85679588G94426563H03032836H11963559
201H20754008H28675614H35392574H40885400H44936292H46159498H39510569
194H15793296G69859792G12582204F69028365F58483524F78612846G12116051
187G44233290G70093083G90109971H05114677H15714057H22418596H24639356
180H19721261H03605854G73692385G32424980F88631926F54358461F38379545
173F41602569F58203618F80577685G03215881G23310152G39879576G52948783
166G62398058G66745918G63555945G52068304G35842462G22236857G17578537
159G21181267G25142284G22271266G14347162G11033477G19824069G38840761
152G60601905G79253813G92330230G98429769G96295816G87536277G78446790
145G75722186G80536484G88840935G96721207H03324877H08972540H13308764
138H16201627H18761614H22173812H26282598H30171230H33509329H36509128
131H39046772H40922378H42830822H45889515H49882584H52621252H51192096
124H43864782H31744443H19176797H11018689H08251609H07865623H07679447
117H09248234H15305513H26075864H39055053H51330729H61334889H69117505
110H75865090H82816483H89867889H95745701H99724351I01537422I00161163
103H93829548H78797286H48215498G99461017G43912979G00992908F79194930
96F71045317F69538850F78143623G00414750G30251408G56816284G75099839
89G87793411G98391863H07422742H14397905H19916717H25001427H30184508
82H35753289H41394528H45803994H48226920H50127796H53761864H59409027
75H64928836H67854038H68010802H67486540H67441710H65957587H60844322
68H53777711H49580620H51893111H59364910H66202014H66266119H56026597
61H34020384H01124392G63833424G32035425G13587967G12507035G26146119
54G46490171G66985133G84711730G98360025H06825380H07972132G98384582
47G75258531G39391508F99119658F69116671F59148346F67275116F85972069
40G09220690G33711506G56978760G75892228G87592387G91756497G89610337
33G81673170G69869072G58637137G50992297G49157166G55063534G67069155
26G79744452G88630916G93789440G98772567H06321821H14893684H19212633
19H14184747H02523422G97659367H06281630H20432841H31625585H37881675
12H39684395H36783538H32118794H34592546H49626236H68949533H81175596
5H83488800H78154880H68964667H63159169H66205583
##END=


$$ === CHEMSPECTRA PEAK TABLE EDIT ===
##TITLE=X7998
##JCAMP-DX=5.00
##DATA TYPE=INFRAREDPEAKTABLE
##DATA CLASS=PEAKTABLE
##$CSTHRESHOLD=0.93
##MAXX=3997.453
##MAXY=0.8965293779005671
##MINX=373.96442
##MINY=0.2870902124805984
##$CSSOLVENTNAME=- - -
##$CSSOLVENTVALUE=0
##$CSSOLVENTX=0
##NPOINTS=59
##PEAKTABLE= (XY..XY)
375.380951892103, 0.7207016965878604
386.71320702892854, 0.6947842856065917
396.6289302736509, 0.6660121096345544
413.6273129788897, 0.6255148064668863
433.4587594683344, 0.5503612176368853
451.8736740656759, 0.5949134845548817
467.4555248788115, 0.709364177792991
507.11841785770093, 0.5590368525952425
539.6986513760748, 0.6743784560921984
577.9450124628615, 0.6476954837642973
592.1103313838935, 0.5936831254406398
599.1929908444095, 0.5991479768103308
619.0244373338542, 0.5330201400530873
641.6889476075057, 0.5498061191561682
672.852649233776, 0.5418129580339297
749.3453714073494, 0.2870902124805984
774.8429454652069, 0.3850624566946866
787.5917324941356, 0.3846261510355752
807.4231789835808, 0.7483383438061846
861.2513908835026, 0.6445823927723553
886.7489649413601, 0.47903272610117353
909.4134752150117, 0.771242918878491
940.5771768412819, 0.7366910597495554
953.3259638702107, 0.7605869788447107
968.9078146833463, 0.7345563191632882
981.656601712275, 0.7300654071158938
995.821920633307, 0.6954486383481513
1009.9872395543389, 0.6639518155779413
1024.1525584753713, 0.7076379671513439
1055.3162601016415, 0.630037369269082
1070.8981109147771, 0.6287816182455815
1102.0618125410474, 0.5603061925610067
1130.3924503831117, 0.5235841881196098
1154.473492548866, 0.6113182919488089
1168.638811469898, 0.6257813584747682
1194.136385527756, 0.5186979785427717
1232.3827466145422, 0.5833271156977483
1255.0472568881937, 0.7055588982280184
1272.045639593432, 0.7012797014836143
1286.210958514464, 0.7185388822070781
1340.0391704143858, 0.5671747344914133
1372.6194039327597, 0.40160182258811955
1392.4508504222044, 0.52894508971695
1437.779870969507, 0.6141371145003991
1461.8609131352619, 0.4546296902246025
1481.6923596247066, 0.6556013842556883
1518.52218881939, 0.4538216896302048
1573.766932611415, 0.6480134741978076
1610.5967618060981, 0.45638397466076475
1623.3455488350273, 0.609851957825434
1715.4201218217545, 0.8215563320497176
2342.943750023456, 0.7537801879068079
2361.3586646207973, 0.7311884181785214
2861.394422533229, 0.7079822437341843
2871.310145777951, 0.6959706566258854
2929.387953354183, 0.665713907706829
2961.9681868725565, 0.661153616490186
3045.543568506646, 0.7508754156085087
3100.7883122986705, 0.7574799671823307
##END=


$$ === CHEMSPECTRA PEAK TABLE AUTO ===
##TITLE=X7998
##JCAMP-DX=5.00
##DATA TYPE=INFRAREDPEAKTABLE
##DATA CLASS=PEAKTABLE
##$CSTHRESHOLD=0.93
##MAXX=3997.453
##MAXY=0.8965293779005671
##MINX=373.96442
##MINY=0.2870902124805984
##NPOINTS=182
##PEAKTABLE= (XY..XY)
3988.953808647381, 0.8004388235365326
3976.205021618452, 0.8007125277950708
3962.0397026974197, 0.7999811788545373
3952.1239794526973, 0.7990302459663504
3943.624788100078, 0.8014114519746908
3932.2925329632526, 0.7987520705074543
3923.7933416106334, 0.7998877787771482
3918.1272140422207, 0.7996128813635565
3903.9618951211883, 0.7981264013723512
3892.6296399843627, 0.800637902584394
3881.297384847537, 0.7991085667013564
3871.381661602815, 0.7971646808261583
3864.299002142299, 0.7994341869815277
3854.383278897576, 0.7953507327926171
3840.217959976544, 0.7954981938988697
3821.8030453792026, 0.7980583330872411
3807.6377264581706, 0.7998132128484929
3801.9715988897574, 0.799308063228243
3779.3070886161063, 0.8010687250739912
3770.807897263487, 0.803504528989221
3766.5583015871775, 0.8035616893823659
3759.4756421266616, 0.8037505769322691
3750.976450774042, 0.7980486175153713
3745.310323205629, 0.7987764496125982
3735.394599960907, 0.7906489988473461
3725.4788767161845, 0.7970617430229641
3712.7300896872557, 0.7986893075457939
3701.39783455043, 0.8001140373794533
3691.4821113057073, 0.8023612509898458
3677.3167923846754, 0.7997881190192583
3670.2341329241594, 0.8032789249940271
3657.4853458952307, 0.8031027930982537
3648.9861545426115, 0.7996339223064165
3629.1547080531664, 0.7946159855728201
3622.0720485926504, 0.7994179153190493
3612.156325347928, 0.8018447776685217
3593.7414107505865, 0.8011729136443443
3588.0752831821737, 0.7998626849479136
3579.576091829554, 0.8041893265135929
3568.2438366927286, 0.8013954775572781
3551.2454539874902, 0.8032893552899877
3545.5793264190775, 0.8022359630295691
3525.7478799296323, 0.8028218756371215
3515.83215668491, 0.8051282184717408
3510.166029116497, 0.8045640014141596
3503.083369655981, 0.8051642794749623
3497.4172420875684, 0.8042483346689024
3479.002327490227, 0.8046876804102739
3460.587412892885, 0.8034505865244007
3449.2551577560594, 0.8060235990959871
3442.1724982955434, 0.8047534241721729
3433.6733069429242, 0.8043258212808166
3419.507988021892, 0.804029049636231
3406.759200992963, 0.8039351126808157
3394.0104139640343, 0.803631426748618
3382.678158827209, 0.8039441126936366
3374.1789674745896, 0.8054615278805944
3365.6797761219705, 0.8050206917391037
3361.430180445661, 0.8050766606471114
3350.097925308835, 0.8060926217381483
3341.5987339562157, 0.8068766014244056
3333.0995426035965, 0.8042362945738215
3317.517691790461, 0.8061345833899092
3306.1854366536354, 0.8074048777127245
3293.4366496247067, 0.8071597240097479
3280.687862595778, 0.8086011429849108
3275.021735027365, 0.8084432499127816
3263.6894798905396, 0.8095821761108002
3255.1902885379204, 0.8101434724851225
3248.107629077404, 0.8085126299169884
3233.942310156372, 0.8097127693945266
3225.443118803753, 0.809288383596537
3216.9439274511337, 0.8084472435171348
3212.694331774824, 0.8081855793536775
3205.6116723143077, 0.8078190703428397
3199.945544745895, 0.8078461313332402
3185.780225824863, 0.8095452801495288
3178.697566364347, 0.8113887915427462
3153.1999923064895, 0.8122730271469412
3139.034673385457, 0.8117706796459069
3129.118950140735, 0.8108896035229732
3100.7883122986705, 0.7574799671823307
3045.543568506646, 0.7508754147735507
3014.379866880375, 0.7911420482555355
2961.9681868725565, 0.661153616490186
2929.387953354183, 0.665713907706829
2871.310145777951, 0.6959706566258854
2861.394422533229, 0.7079822437341843
2797.6504873885847, 0.7833655495627335
2755.1545306254884, 0.7952420730219063
2743.822275488663, 0.7948283571528376
2738.15614792025, 0.7944358007906721
2726.8238927834245, 0.794067265336647
2694.2436592650506, 0.7987945097552197
2677.2452765598123, 0.7952754521398712
2657.413830070367, 0.7997737544009661
2647.4981068256448, 0.8012205379816002
2633.332787904613, 0.8023524304930055
2619.167468983581, 0.8044038431008408
2612.084809523065, 0.8052417652519184
2596.5029587099298, 0.8061401867933827
2589.420299249414, 0.8070660250173769
2583.7541716810006, 0.8070092219862773
2576.6715122204846, 0.8073557036933279
2555.4235338389362, 0.8096573373645451
2542.6747468100075, 0.809642555267228
2534.1755554573883, 0.8115057967191669
2518.593704644253, 0.8117460032956972
2511.511045183737, 0.8130521782707952
2497.3457262627053, 0.8097023382636079
2487.430003017983, 0.8106704971713244
2477.51427977326, 0.8144432325763821
2463.348960852228, 0.8171611446029234
2452.0167057154026, 0.815520527180898
2435.018323010164, 0.8156799089832303
2418.0199403049255, 0.8163183947244009
2412.3538127365127, 0.8158978246846997
2396.7719619233776, 0.8172107361013452
2361.3586646207973, 0.7311884181785214
2342.943750023456, 0.7537801879068079
2279.1998148788116, 0.8200387974637586
2267.867559741986, 0.8209353111260789
2253.7022408209536, 0.820575597003852
2248.036113252541, 0.822040798089153
2242.369985684128, 0.8215927504149845
2235.287326223612, 0.8227784058752293
2215.455879734167, 0.8279004710621992
2189.9583056763095, 0.8241288678602574
2168.7103272947616, 0.8313046108962522
2137.546625668491, 0.8295478842077937
1715.4201218217354, 0.8215563320497176
1623.3455488350273, 0.609851957825434
1610.5967618060981, 0.45638397466076475
1573.766932611415, 0.6480134741978076
1518.52218881939, 0.4538216896302048
1481.6923596247066, 0.6556013842556883
1461.8609131352619, 0.4546296902246025
1437.779870969507, 0.6141371145003991
1392.4508504222044, 0.52894508971695
1372.6194039327597, 0.40160182258811955
1340.0391704143858, 0.5671747344914133
1320.207723924941, 0.6723979731707106
1286.210958514464, 0.7185388822070781
1272.045639593432, 0.7012797014836143
1255.0472568881937, 0.7055588973930604
1232.3827466145422, 0.5833271156977483
1194.136385527756, 0.5186979785427717
1168.638811469898, 0.6257813584747682
1154.473492548866, 0.6113182919488089
1130.3924503831117, 0.5235841881196098
1102.0618125410474, 0.5603061925610067
1070.8981109147771, 0.6287816182455815
1055.3162601016415, 0.630037369269082
1024.1525584753713, 0.7076379671513439
1009.9872395543389, 0.6639518155779413
995.821920633307, 0.6954486383481513
981.656601712275, 0.7300654071158938
968.9078146833463, 0.7345563191632882
953.3259638702107, 0.7605869788447107
940.5771768412819, 0.7366910597495554
909.4134752150117, 0.771242918878491
886.7489649413601, 0.47903272610117353
861.2513908835026, 0.6445823927723553
807.4231789835808, 0.7483383438061846
787.5917324941356, 0.3846261510355752
774.8429454652069, 0.3850624566946866
749.3453714073494, 0.2870902124805984
672.852649233776, 0.5418129580339297
641.6889476075057, 0.5498061191561682
619.0244373338542, 0.5330201400530873
599.1929908444095, 0.5991479759753728
592.1103313838935, 0.5936831254406398
577.9450124628615, 0.6476954837642973
539.6986513760748, 0.6743784560921984
507.11841785770093, 0.5590368525952425
467.4555248788115, 0.709364177792991
451.8736740656759, 0.5949134845548817
433.4587594683344, 0.5503612176368853
413.6273129788897, 0.6255148064668863
396.6289302736509, 0.6660121096345544
386.71320702892854, 0.6947842856065917
375.380951892103, 0.7207016965878604
##END=

##END=

