##TITLE=X8758
##JCAMP-DX=4.24
##DATA TYPE=INFRARED SPECTRUM
##DATE=2/11/2018
##SAMPLING PROCEDURE=ATR platinum Diamond 1 Refl
##ORIGIN=ComPlat
##XUNITS=1/CM
##YUNITS=TRANSMITTANCE
##RESOLUTION=4
##FIRSTX=3997.453
##LASTX=373.96442
##DELTAX=-1.4165319
##MAXY=1.0428076
##MINY=0.49729756
##XFACTOR=1
##YFACTOR=9.7119024e-010
##NPOINTS=2559
##FIRSTY=0.9159739
##XYDATA=(X++(Y..Y))
3997+943145703+943272683+943187866+943095070+943306991+943911267+944670203
3988+945261468+945520032+945445341+945104108+944553901+943866403+943242795
3978+942966249+943069171+943196826+943009701+942589481+942211793+941949056
3968+941773469+941821647+942248862+942964285+943713278+944279688+944539663
3958+944510695+944401758+944376534+944280056+943916975+943575619+943858364
3948+944799761+945676962+946054711+946294065+946721036+946947808+946538820
3938+945732811+945097235+945012417+945540285+946332239+946715757+946406009
3928+945846842+945600860+945839907+946317325+946612835+946507090+946172608
3918+946063917+946514087+947291434+947845508+947974022+947879815+947672007
3908+947180227+946428594+945965782+946322665+947081785+947280510+946785231
3898+946209493+945824809+945481367+945329162+945908460+947213307+948192448
3888+948281438+948090078+948103089+947875089+947120695+946576932+946852619
3878+947373183+947457079+947281492+947100565+946803950+946609337+947072456
3869+947841027+947947571+947382511+946899262+947025690+947668570+948387859
3859+948697178+948344223+947659425+947606276+948779294+949858780+949769483
3849+949047371+948372025+948035702+947915657+947597807+946905092+946372009
3839+946743314+947737246+948178209+947877483+947783644+948512200+949649192
3829+950431572+950553950+950084325+949230323+948425910+948179866+948319674
3819+948041594+947526185+947756517+948752290+949393084+949166802+948529078
3809+948270207+948992381+950209771+950722479+950598875+950939432+951808102
3799+952072005+951659580+951317857+951142085+950843752+950612868+950839149
3789+951495961+952256860+952913794+953295595+953112151+952388566+951769683
3779+951924097+952668856+953231153+953225077+952708503+951945025+951425566
3769+951517502+952017138+952615216+953215626+953525190+953330638+953064710
3759+953325238+953851632+953798115+952997691+951994001+951576911+952342721
3750+953510031+953671135+953143881+953324440+954608481+955395894+954769769
3740+953510338+952507200+952291045+953011684+954191760+955074914+955390861
3730+955286834+955014032+954822181+954811809+954860171+954944190+955305369
3720+956032268+956751189+956929047+956417812+955735285+955751488+956644339
3710+957415427+957584631+957614643+957573461+957159932+956504163+956227127
3700+956536752+956931134+957055598+956986063+956729463+956021528+954910681
3690+954229566+954581538+955120453+955166851+955225155+955794878+956659866
3680+957060508+956417566+955200483+955007956+956433830+957621700+957662084
3670+957659936+958766794+960555810+961878578+962158867+961431845+960217033
3660+959079427+958301527+958104950+958419976+958426236+957515157+956177599
3650+955540058+956386819+957988280+959116434+959589312+959733170+959913974
3640+960368869+960914902+961044399+960580666+959941346+959519899+959272996
3631+959351124+960454729+962288978+963191219+962780451+961787071+960759998
3621+960029048+959972462+960627862+961435344+961994879+962333043+962515689
3611+962521519+962441857+962460883+962534653+962397055+962055516+961986348
3601+962611307+963596525+964251311+964601197+965182643+965889903+965969319
3591+965162451+963994466+963230068+963153229+963170291+962816231+962457262
3581+962639846+963316235+963935302+964254809+964626912+965380877+966286800
3571+966798465+966640983+966036522+965521973+965505034+965973492+966664734
3561+967274104+967632460+967815228+967919807+967896179+967732927+967524137
3551+967273184+966915074+966588079+966644604+967287054+968207216+968819471
3541+968884035+968712805+968831684+969409386+970001020+970077552+969767742
3531+969684520+970132235+970812000+971304148+971516927+971542213+971408911
3521+971139178+970835996+970662802+970786714+971230378+971708901+971800777
3512+971441378+971115120+971355640+972130287+972939794+973341111+973283850
3502+973167364+973396223+973834486+974066905+974084335+974223037+974487615
3492+974545429+974379968+974350754+974636813+975058689+975423673+975746678
3482+976164811+976736375+977251293+977326659+976770621+975717956+974393347
3472+972956671+971590575+970442842+969570551+969228827+969905462+971681713
3462+973883155+975742750+977091478+978127758+978866011+979072101+978581241
3452+977558402+976473148+975812899+975761837+976081098+976401219+976713545
3442+977314016+978217362+979057064+979619853+979951818+979984100+979666251
3432+979356932+979493486+980002451+980453725+980633240+980694613+980856453
3422+981096298+981208242+981154541+981138093+981236903+981267160+981099735
3412+980848904+980688844+980682768+980848168+981161782+981366890+980975271
3403+979795133+978331209+977322792+977058644+977388645+978023117+978517659
3393+978408354+977723618+977000892+976595218+976316156+975809953+974928395
3383+973696889+972213877+970649914+969144133+967651977+966003565+964049088
3373+961599332+958293548+953732753+947754430+940413509+931615967+920854986
3363+907444359+891023949+871816049+850545348+828412421+807183515+788997533
3353+775810732+768901691+768562607+773939967+783249727+794420370+805752118
3343+816114359+824680158+830814797+834367299+835697677+835118441+832510404
3333+827557682+820065355+810012616+797626423+783530875+768664915+753942260
3323+740056608+727654642+717495667+710209368+705934999+704286833+704608549
3313+706302561+709107726+713067559+718140020+723975712+730153987+736486430
3303+743007043+749742889+756542564+763161250+769501733+775656073+781687053
3293+787488560+792886051+797792314+802255035+806367564+810194464+813856823
3284+817546493+821284279+824804622+827859023+830492590+832922031+835284577
3274+837580839+839775100+841844345+843704370+845227519+846516348+847982052
3264+849892526+852009702+853897222+855377227+856565465+857697548+859020192
3254+860677135+862610255+864559761+866180800+867325464+868258146+869369546
3244+870702624+872066818+873474894+875062853+876735200+878283696+879670844
3234+880907935+881908557+882681793+883388684+884098215+884749073+885355375
3224+886031457+886878709+887969733+889269424+890540454+891581950+892520033
3214+893606147+894843545+896057867+897183383+898232121+899129207+899782704
3204+900221519+900571835+901002979+901691581+902669864+903724555+904632749
3194+905454776+906379234+907372369+908221400+908870662+909515322+910378530
3184+911497049+912702226+913741390+914417534+914715008+914863653+915176102
3174+915712868+916292043+916883308+917651696+918492564+918985265+918992016
3165+918898975+919116173+919679759+920390517+921053036+921563965+921978292
3155+922475903+923160332+923904170+924415344+924495497+924306223+924297447
3145+924672189+924949962+924327520+922518925+919975085+917219570+914310746
3135+911198225+908369799+906713839+906687387+907955165+909893808+912071621
3125+914165538+915845556+917023300+917960769+918916159+919931019+921074026
3115+922519907+924169976+925495751+925992563+925624265+924721963+923659600
3105+922791236+922508124+922975477+923758410+923988067+922942582+920287104
3095+916181449+911734991+908738036+907997635+908422273+908648432+909016545
3085+910892220+914511496+918594566+921836276+923947990+925343669+926457769
3075+927517063+928609928+929660262+930388634+930601843+930596074+931023045
3065+932182929+933608802+934541853+934720509+934542896+934554557+934911685
3055+935258626+935049038+934076095+932751547+931781796+931561959+931949037
3046+932554295+933098181+933550314+934054062+934690314+935297659+935639566
3036+935736044+935874563+936280053+936905196+937542552+937997938+938168923
3026+938136825+938186905+938529856+939013903+939326291+939396194+939345623
3016+939162180+938743249+938198382+937790744+937574650+937290249+936608152
3006+935272925+932994154+929469699+924774375+919728121+915664322+913667191
2996+913916057+915573000+917205086+917558409+916280137+914011124+911789306
2986+910411181+910189195+910883137+911727258+911883329+911109050+909929097
2976+909192194+909554539+911223449+913938704+917109037+920012277+921993697
2966+922596316+921559239+918819804+914687022+909968683+905787110+903244804
2956+903095852+905358912+909152670+913126619+916135297+917558041+917292542
2946+915757363+913886230+912860507+913554449+916041458+919564562+922980326
2936+925383377+926548601+926810724+926504842+925771314+924971750+924797512
2927+925645868+927180188+928746605+929994191+930941357+931678138+932226565
2917+932613888+932895037+933048039+932914554+932286956+931067294+929387153
2907+927581198+925996798+924831268+924098292+923614982+923095461+922481427
2897+922132952+922515673+923719806+925362694+926923711+928147975+929109748
2887+929937360+930642902+931209434+931602649+931693113+931368266+930693595
2877+929918825+929456566+929763430+930950256+932570252+934018650+935047258
2867+935746110+936195051+936357505+936256670+936076295+936022226+936129014
2857+936245254+936200514+935986752+935786063+935822212+936224694+936981912
2847+937886792+938618294+939086016+939526980+940019987+940214539+939858393
2837+939256080+938885634+938826655+938786210+938516968+938060354+937663579
2827+937552126+937766686+938146706+938453017+938592027+938706057+938954003
2817+939291431+939619039+940015507+940619538+941375282+942074380+942626060
2808+943145151+943738503+944317432+944733724+945020703+945338184+945733547
2798+946124860+946485671+946875818+947283763+947590933+947744488+947841764
2788+947978502+948128743+948225835+948292547+948455430+948834223+949364729
2778+949801949+950015097+950143673+950328343+950517310+950677739+950918320
2768+951247401+951466870+951436490+951287170+951291221+951578446+952008055
2758+952330385+952457733+952512355+952609201+952684015+952581952+952280857
2748+951958895+951818843+951918819+952218625+952679289+953215503+953684452
2738+954051830+954433937+954867290+955220429+955429035+955587377+955673422
2728+955449472+954807820+954022678+953517825+953506226+953900239+954443572
2718+954892330+955132727+955160713+954996971+954667460+954245277+953854516
2708+953608780+953504692+953376484+953044334+952532670+952077652+951869107
2698+951829399+951725924+951528304+951513820+951885923+952420726+952711387
2689+952674195+952563172+952546356+952531626+952447116+952443618+952693405
2679+953107487+953384708+953313700+952949084+952529233+952298594+952386295
2669+952753796+953220720+953593437+953810942+953922947+953947987+953869307
2659+953794310+953935406+954327578+954712447+954836174+954729876+954563004
2649+954357651+954052321+953762826+953755645+954152481+954826170+955596215
2639+956381050+957154285+957900947+958624286+959257408+959585875+959476938
2629+959213588+959314055+959894150+960508308+960775279+960825973+960924599
2619+961017579+960948228+960815049+960794244+960822598+960736308+960566489
2609+960487441+960602269+960913307+961376855+961910123+962425532+962868705
2599+963207299+963469790+963737498+963956231+963929595+963683613+963573878
2589+963838886+964298629+964653118+964854421+965088497+965513933+966073653
2580+966584029+966975955+967334863+967714393+968035065+968135962+967886298
2570+967348243+966792942+966466930+966435261+966652889+966954843+966994613
2560+966484237+965478275+964242473+962991941+961978922+961573555+961905950
2550+962565953+962999490+963119106+963234487+963551354+964043196+964629122
2540+965190867+965558183+965635513+965444766+965031113+964409407+963548777
2530+962433388+961226860+960231210+959587348+959245317+959284719+959933613
2520+961153827+962491017+963480776+964003917+964207859+964338276+964682823
2510+965339573+965996875+966301469+966399542+966663752+966982461+966843636
2500+966162459+965624527+965987240+967186219+968412754+969091782+969408466
2490+969777500+970301624+970861712+971258978+971299852+971140405+971316361
2480+972098128+973105807+973738622+973705358+973109060+972282553+971554242
2470+971087134+970956042+971245598+971910695+972605005+972848533+972481523
2461+971876633+971541845+971600149+971871110+972248307+972667483+972974531
2451+973150732+973369281+973618147+973639873+973369281+973042716+972838652
2441+972761383+972857002+973196148+973641469+973911755+973930657+973899357
2431+973960914+974002586+973894018+973698668+973495340+973216524+972858045
2421+972636612+972710382+972917577+972989199+972865656+972666378+972494043
2411+972354543+972147226+971750083+971225591+970858091+970888347+971295801
2401+971874301+972427024+972885049+973285568+973644967+973922372+974138097
2391+974407647+974811295+975332105+975900601+976387655+976616330+976520221
2381+976281726+976232566+976542990+976996842+977202440+977099702+977001015
2371+977000585+976840955+976673898+977328009+979279663+981874075+984074719
2361+985516181+986343057+986508702+985840291+984577116+983297064+982332407
2351+981598327+980958086+980493801+980431815+980886219+981579977+982012102
2342+982043832+981873093+981538918+980981347+980426721+980233151+980420706
2332+980663988+980674667+980367312+979793538+979194969+979000233+979515396
2322+980563459+981550518+981962759+981776554+981386714+981132508+980934458
2312+980522033+979972439+979729219+980052285+980699093+981204314+981328901
2302+981197931+981048979+980895056+980574997+980201912+980266660+981000127
2292+981919123+982367389+982218683+981718065+981062052+980526390+980520069
2282+981107345+981876469+982544204+983290927+984310145+985396934+986185390
2272+986613588+986921925+987190615+987190124+986898971+986794208+987252785
2262+987961150+988283050+988058365+987788815+988014667+988658468+989214935
2252+989522044+989840139+990094713+989710274+988482266+987107455+986486730
2242+986804457+987609729+988601698+989951224+991811801+993847782+995437643
2232+996210572+996213518+995690990+994990543+994632924+994975936+995622314
2223+995675340+994806670+993519683+992270194+991093924+990171122+989990441
2213+990791969+992273815+993861775+995041850+995522215+995339508+995017424
2203+995420275+996920962+998745329+999763197+999834389+999690961+999794190
2193+1000030844+1000198269+1000216558+1000188817+1000442164+1001138315
2184+1001988083+1002752297+1003618021+1004578812+1004989948+1004360202
2176+1003146249+1002177602+1001613525+1001070437+1000538335+1000548462
2167+1001564979+1003658896+1006552745+1009474519+1011071316+1010166067
2159+1007121241+1003873271+1001994098+1001519809+1001676739+1001722891
2150+1001155316+999863971+998165602+996427218+994941015+994312128+995204365
2140+997308838+999290504+1000190658+1000290573+1000372445+1000751360+1001219696
2130+1001409276+1000951926+999674636+997976390+996727270+996348906+996280905
2121+995941882+995818400+996739483+998361627+999283200+998648422+997034256
2111+995669694+995151401+995169935+995315143+995619000+996143553+996640182
2101+996947107+997268823+997904338+998974127+1000229753+1001030299+1000999797
2091+1000659608+1000800274+1001396818+1001764441+1001558596+1001041101
2082+1000617752+1000580253+1001081791+1001979982+1002778994+1003032586
2074+1002881978+1002971705+1003595682+1004135762+1003721005+1002326492
2065+1000962912+1000828260+1002255055+1004334487+1005717400+1005995235
2057+1005946014+1006301669+1006987878+1007697961+1008385950+1009190056
2048+1010543755+1012796320+1015091294+1015908289+1015317760+1015008748
2040+1015544225+1015542077+1014216978+1012735991+1012263359+1012299385
2031+1011955513+1011518171+1011788027+1012970067+1014769394+1016556692
2023+1017311884+1016551659+1015168747+1014310510+1013808296+1012801230
2014+1011463917+1010841413+1011422675+1012872852+1014608720+1015817457
2006+1015523420+1013645720+1011556406+1010830857+1011769308+1013419807
1997+1014625045+1014796766+1014028809+1012820440+1011599797+1010531542
1989+1009997353+1010768011+1013002349+1015404664+1016277998+1015394844
1980+1014076741+1013499407+1013735876+1014580243+1016213864+1018345033
1972+1019747217+1019546222+1018253649+1017044176+1016577129+1016784815
1963+1017228847+1017477038+1017618134+1018137471+1018947591+1019359648
1955+1019234939+1019136742+1019211924+1018977971+1018315881+1017768313
1946+1017639247+1017395658+1016215398+1013864145+1010793604+1007557172
1938+1004723100+1003084017+1003160794+1004640553+1006843775+1009448988
1929+1012232734+1014423313+1015145425+1014578586+1013952645+1014086069
1921+1014536116+1014642782+1014469404+1014375565+1014428223+1014551398
1912+1014732693+1014940379+1015060485+1014955353+1014679299+1014579629
1904+1014900670+1015369006+1015504885+1015255712+1015030597+1015215635
1895+1015812854+1016503236+1017042458+1017438251+1017758126+1018100217
1887+1018710324+1019684617+1020624603+1020943250+1020565071+1020091273
1878+1020162036+1020736485+1021176528+1021113253+1020928459+1021215070
1870+1022035624+1022807264+1023040358+1022971436+1023063311+1023442841
1861+1023927502+1024236882+1024182690+1023846980+1023585348+1023664703
1853+1023945607+1024071912+1023865945+1023430443+1023005069+1022809167
1844+1022871215+1022923197+1022757798+1022558643+1022616702+1022916262
1836+1023107684+1022971927+1022663406+1022438598+1022394287+1022430190
1827+1022375752+1022164630+1021860957+1021593249+1021524880+1021823397
1819+1022487144+1023188880+1023513665+1023370175+1022984018+1022554224
1810+1022057473+1021456020+1020970684+1020872303+1021153820+1021624733
1802+1022170767+1022763690+1023359496+1023891476+1024279781+1024504160
1793+1024745723+1025276107+1026058733+1026830434+1027516398+1028173700
1785+1028800132+1029330945+1029755583+1030138181+1030416446+1030332488
1776+1029744782+1028828057+1027922501+1027319575+1027024433+1026690688
1768+1025988768+1024918365+1023708401+1022585279+1021808729+1021602823
1759+1021852549+1022260310+1022585033+1022605164+1022173038+1021187084
1751+1019490127+1017106838+1014392258+1011616736+1008892091+1006370038
1742+1004151535+1002351778+1001302058+1001168634+1001794697+1003293114
1734+1005680515+1007676910+1008144202+1007201946+1005062184+1001789112
1725+997286867+991448597+984870294+978547854+972722473+967059607+961844332
1715+957814043+954765411+951859472+948139606+942748069+934534549+920897150
1706+899926071+874066711+843715785+800972590+743831524+691214676+654929064
1696+630605129+617722614+616572856+624453121+638976498+656367580+673303890
1686+693250473+722231682+752317109+772078346+784350693+793946634+802937746
1676+812663122+822808166+831544519+839499045+849559640+861544762+871337218
1666+877860347+883619323+890793678+898895192+905694007+910232524+912822394
1656+913913971+914258272+915540902+918254683+921138958+925068351+932025385
1646+941161091+948328327+952653697+955765297+958307909+960182296+961947315
1636+965161101+969952351+973984788+976468361+978235406+979848160+981012524
1626+980872655+978533309+973387079+966095624+958352405+950870388+943328962
1616+935570399+927212900+916310209+900258220+878099394+853339405+833818074
1606+826005381+830390650+842770521+857706569+871210668+882070765+891097842
1596+899312834+906981976+913911270+920125510+925999192+931869375+937741768
1587+943380638+948395346+951709231+951085193+944590111+933017108+920608022
1577+914543594+918781568+927022399+933085109+936263421+936535302+933300466
1567+927332086+920601149+915023284+911179936+907361199+900421963+892490452
1557+892355186+899943132+911061671+922188924+931218333+938106998+943270412
1547+946841940+949301270+951161049+952557648+954288238+957621394+961135353
1537+963230252+964634707+966380885+968412385+969672859+969839241+969548150
1527+969365689+969219990+968844020+968636764+969327453+970791685+972470415
1517+974434282+976625045+978181091+977991817+975141420+968906252+959032906
1507+948695275+946030837+950634287+956365952+961350342+965663437+969651563
1497+973740709+977612901+980301336+981691000+982556049+983851629+985916639
1487+987918435+989022224+989279437+989126865+988873518+988454526+987312992
1477+984236866+976742942+961005120+936902680+916126214+910718781+917638930
1468+928958219+940147827+948859693+953855805+955693675+955771557+954964627
1458+953355679+950772805+947365695+942794712+936206590+927444705+918608497
1448+914286994+917764683+927117710+937636944+945676471+949735973+949687121
1438+944941777+934879096+922528745+912871063+908849673+912096723+921507809
1428+932051898+939163898+941183370+937413547+926346439+905827370+879022318
1418+861474306+864397184+879076080+893677340+904615319+914305345+924991635
1408+935457780+943091142+946331196+945331188+941664655+937112636+933144702
1398+930988860+930933011+931843292+931694156+928897460+923472229+916866492
1388+911639741+910532146+913870457+919292374+924463276+928167124+929886543
1378+929374265+926126233+918757449+905431086+885690777+860626257+831970876
1368+804345147+785962281+783565244+799059293+828983802+863815677+894362996
1358+918452549+937611965+952876418+964578060+973198971+979542400+984454984
1349+988591633+992327578+995693691+998400721+1000102895+1000626835+999896192
1339+997731021+993779842+987922117+981072362+975337690+972728365+973451336
1329+975825051+977849678+978438304+977305915+974333079+969079016+960337323
1319+945943627+923335122+890543216+847826841+800968723+762877523+747750054
1309+761347070+796840115+839204886+874126795+893902210+896975943+885047590
1299+861345668+829907094+794845377+759359636+725122585+692807975+663328420
1289+638607587+621205274+613002679+614050251+622639249+636284443+652693253
1279+670333018+688431237+706426779+723384446+737914022+748619583+754728077
1269+756502303+755241768+752775748+750376870+747701876+743183428+736182144
1259+728825266+725230540+728712463+739699909+755789642+773373987+789514169
1249+802853297+813315638+821311222+827206200+831164683+833172555+833227975
1239+831708630+829741694+829206339+831990454+838819035+848802361+860200207
1230+871474448+881702835+890425135+897309504+901876559+903373257+900676537
1220+892647075+879757564+865849326+857055281+857683493+867064936+880637649
1210+893681452+903682576+910118555+913605388+915563548+917746885+921398933
1200+926700621+932767443+938045502+940993973+940942911+938849731+937149091
1190+938090181+941783350+945245204+941978945+924000341+889738742+851484290
1180+829029340+832020956+852157304+874232847+889945507+899667875+906591891
1170+913011300+920042963+927911997+936050150+943441520+949184478+952940185
1160+955022072+956237928+957694182+960440859+964931137+970733688+976851634
1150+982379603+986824649+989800063+990564338+987766782+979112668+960865252
1140+928445142+879926277+821352342+768054317+737262428+736886581+761336207
1130+797474710+832876432+859051738+870734783+866327727+849863803+829184368
1120+809129216+788114808+764249941+742860116+733803458+741642296+761657985
1111+785318419+806667247+823425883+835096162+840963830+838185116+822756244
1101+795911115+768861001+755891521+760639872+772375636+778037030+776000988
1091+775997858+786982603+808147620+832003649+852796563+869683958+884032792
1081+896777033+908194887+918379945+927373942+935170862+941757451+947275170
1071+952150010+956893574+961713424+966367015+970450514+973901260+977154508
1061+980715909+984720422+988949497+993081174+996874933+1000239143+1003186325
1051+1005830326+1008439774+1011255066+1014194883+1016980839+1019512835
1043+1021862737+1023884418+1024885531+1023501574+1017392344+1002654960
1034+974386903+930087294+873780223+815629392+766031593+730188171+708374076
1024+699485027+702372432+714472321+731540030+749883003+768150366+786411959
1014+804300529+820819135+835414564+848334148+859984543+870523231+880082348
1004+888886212+897016449+904369399+910929351+916893742+922502171+927832519
994+932771003+937194937+941179380+944926434+948479734+951595998+953961796
984+955582713+956843923+957945626+958319509+956686809+951276982+940190419
975+923225265+904379402+891138593+889489507+899429258+915629094+931905953
965+944527081+952202484+955001328+954448053+953635047+955485682+960575204
955+967208436+973425007+978405040+982300493+985532261+988409846+991028746
945+993331391+995321956+997158720+998948780+1000627264+1002150966+1003610043
935+1005101647+1006696234+1008443211+1010213877+1011729109+1012898199
926+1013928587+1015015928+1016095230+1016962612+1017570079+1018127037
918+1018894811+1019973192+1021274418+1022581474+1023721412+1024787396
909+1026019945+1027504921+1029178863+1030946829+1032646732+1034160922
901+1035552611+1036930430+1038362502+1039810777+1040819500+1040166003
892+1034987613+1020161668+992206244+956820479+928658842+918924935+925814766
882+940215091+956245784+972273715+986310590+995632134+998887285+995345277
873+983533779+962873001+936102501+909467144+891117849+888134641+902071847
863+926631454+951452938+969035626+978248846+982954175+988317419+996948457
853+1007425773+1016737312+1023472422+1028011124+1030844091+1031755477
844+1029807750+1023179245+1009503855+988009389+962655250+942153244+934314405
834+939566135+950914147+960070536+963119904+961459095+958815769+957283905
824+954852070+946057719+926871912+901549749+883531867+885710662+908943573
815+941850799+971105362+989737094+996835654+993001021+977380728+948331519
805+907545010+864421058+833888714+825467264+833478621+840943638+835362029
795+820055535+809346844+813901318+831798787+852075003+863769279+861566488
785+846834197+826763150+811640222+809899752+824029177+850481152+882797910
775+915056179+943794229+968001433+987953049+1004228067+1017431377+1028129819
765+1036643696+1043007194+1047387860+1050359162+1052447432+1053645797
756+1053668873+1052386305+1049721008+1045304500+1038261114+1027046650
748+1009138503+980713086+937451966+877450868+804332013+727169367+657011442
738+603283931+572268583+565785040+578413410+596986838+606455983+598874419
728+577366022+551623393+530224546+516926599+512049581+514832560+524026264
718+537857540+554693321+573586870+593908932+614752417+634981069+653676936
708+669949745+681977705+687251959+685698491+682528832+685459812+698102421
698+717409008+737493435+753892487+764286336+768343076+768404019+768738378
688+772785484+781139424+792152401+803945487+815570167+826728291+837184862
679+846653516+854943996+862128171+868498789+874270039+879643410+885307934
669+891980198+898184864+901342677+900965173+896718668+887866074+875779687
659+865089224+861098704+866000241+877431904+890704688+902239579+911125376
649+918279662+924892824+931509240+937855553+943361981+947596641+949283226
639+945454485+934095795+918436224+906423177+904345340+912207439+925807770
629+940969179+955236079+967630496+977437498+982393657+979512450+970007464
619+961803642+963526007+975724031+991138910+1003421383+1011627108+1017180546
609+1020594775+1020792334+1014346904+995319439+959618955+912374680+869835795
599+849790156+857235656+881143238+904703512+914427783+901611306+863729264
589+808061330+749992186+705672201+684799441+686887773+704227670+728518341
579+754409491+779278846+801810267+821104641+837051069+850622555+862805788
569+873653366+882834611+890606737+897668350+904297040+910044110+914316944
560+917157338+919341227+921751888+924750133+928148282+931750864+935725611
550+940125794+944309515+947613887+950552722+954421355+959701010+965589667
540+970926705+975018490+977807699+979732349+981353020+982849779+984044830
530+984999975+985988568+986396819+984252393+978064298+968989289+960166339
520+953185062+943128948+919036204+876567038+828763289+797691171+796623715
510+821106053+855795667+887126839+908645056+918713874+916633214+902324580
500+880380313+861209053+855010156+864378773+882832708+901275658+914791847
490+923323829+928981540+934164103+940706258+948959485+957606357+965227261
480+971689876+977459285+982548009+986875466+990816273+994627584+997996397
470+1000740681+1003153736+1005346217+1007140266+1008729760+1010757639
462+1013415940+1016004583+1017910882+1019514799+1021239067+1022747364
453+1024383685+1027552792+1032519936+1037326775+1040019322+1040801334
445+1041364122+1042854130+1045382689+1048876396+1052890053+1055490049
436+1053604432+1045263012+1030062816+1006223480+970558100+924404481+877863722
426+845724884+838574649+854453996+881546519+911373260+940722890+963169309
416+975075812+981382786+986637032+992740248+1001134081+1012288277+1023965921
407+1032340114+1035426797+1034696460+1033854303+1037173589+1047386265
398+1060709313+1066986644+1064779065+1062313843+1063780284+1067206727
390+1069910320+1071903831+1073741823+1073011119+1066456383+1055144643
381+1041799992+1026778942+1009758122+991107487+973328529+963729888
##END=
