##TITLE=LIS-P249
##JCAMP-DX=5.0
##DATA TYPE=LINK
##BLOCKS=1


$$ === CHEMSPECTRA SPECTRUM ORIG ===
##TITLE=LIS-P249
##JCAMP-DX=5.00
##DATA TYPE=INFRARED SPECTRUM
##DATA CLASS=XYDATA
##$CSCATEGORY=SPECTRUM
##ORIGIN=Angelika Moesle
##OWNER=
##XUNITS=1/CM
##YUNITS=TRANSMITTANCE
##XFACTOR=1.0
##YFACTOR=8.8666452e-10
##FIRSTX=3997.453
##LASTX=373.96442
##MAXX=3997.453
##MAXY=0.95204877809422
##MINX=373.96442
##MINY=0.39292252077159395
##NPOINTS=2559
##XYDATA= (X++(Y..Y))
2559I35739348I35127144I34659403I34736509I35424742I36116337I36175628I35685031
2551I35224685I35230532I35775514I36520215I36774589I36200635I35429179I35351200
2543I35950362I36499040I36656477I36665149I36744809I36887928I37027954I37081262
2535I36999317I36887592I36940765I37258799I37729296I38053649I37983804I37583690
2527I37161258I37032256I37392036I38103529I38616847I38489930I37913690I37485275
2519I37566884I38010963I38427479I38530734I38336795I38111999I38113949I38342778
2511I38500484I38297671I37865491I37684660I37948714I38300763I38476283I38673046
2503I39061463I39380976I39309518I38975350I38816904I39054607I39440200I39631653
2495I39703380I39987534I40503810I40923149I41212009I41739377I42514799I42818044
2487I41938560I40143828I38839223I39229858I40406134I40609149I39829760I39275704
2479I39349247I39636157I40455342I42034017I43075174I42631297I41591082I41014372
2471I40830045I40884362I41683783I42814952I43007749I42448248I42519774I43681327
2463I44965833I45452733I44728333I42577989I39604494I38208532I41021027I45604321
2455I47820073I47598370I46264792I44650152I43152615I41939299I41135105I41144046
2447I42445761I44540712I45914020I45916440I45255768I44686520I44361225I44313698
2439I44697141I45111910I44742651I43874729I44066585I45656285I46722920I46701341
2431I46942270I47575111I47309579I45965580I44460447I43665530I44109675I45323058
2423I45941313I45818226I46268086I47604824I48349458I48049507I47649460I47565095
2415I47505938I47458613I47548356I47502443I47121017I46824898I47017963I47297478
2407I47147973I46952286I47408935I48286671I48767252I48675021I48426093I48473284
2399I49088109I50042817I50716059I50985357I51167801I51155163I50684532I50131215
2391I50150509I50630013I50722983I49959392I48602218I47494846I47658804I48728867
2383I49069152I48669576I49283124I51759166I53898754I53795633I52197126I50607628
2375I50215850I51400999I53292667I54601507I54778238I53928802I52535260I51453770
2367I51468962I52446862I53510269I54145060I54425315I54436743I54058006I53312162
2359I52752863I53265374I54952750I56460303I56840250I56602144I56392743I56466958
2351I56939203I57593489I57865407I57579641I57037752I56396105I55616514I54903273
2343I54864015I56031955I57885171I59030255I59054859I58558347I57982712I57417901
2335I56830166I56283841I56403835I58221893I61066521I62621533I62712350I62930224
2327I63784432I64196108I63726754I62874025I61949770I60982962I60105427I59666861
2319I60074908I61222479I62127038I62168044I62019680I62841690I64869149I66773321
2311I67488511I67208794I66474311I65765709I65344823I65142009I65014688I65018385
2303I65193032I65238878I64893417I64773827I66229618I68992972I70582000I70099671
2295I68552322I67012031I66269414I66913885I68636755I70286889I71430225I72472659
2287I73486120I74071367I74280297I74583206I74922550I74782255I74103634I73365790
2279I72998414I73013337I73291844I74012815I75339806I76771934I77499091I77488536
2271I77565642I78486200I79987501I81147374I81789156I82355648I82962340I83295163
2263I83175640I82856934I82703462I82821372I83080452I83389478I83931500I85053729
2255I86686788I88066146I88701876I88974738I89457671I90247815I90916420I91081521
2247I90972283I91230084I92208454I93618130I94890670I95687738I96068156I96404542
2239I96982327I97658461I98226365I98835073I99736943A000847743A001798282
2232A002390521A002844481A003525656A004487220A005416719A006095877A006699947
2225A007485789A008429001A009338199A010145418A010900001A011482694A011518457
2218A010788679A009602521A008437472A007367610A006133993A004609029A002867202
2211A000948511I98737397I95957439I92284350I87487822I81286258I73071620
2204I61957635I47044113I27490560I02684840H72973690H40422282H08320263G79578072
2196G56005028G39000723G29729399G28183865G32964931G42138444G53839492G66567714
2188G79492497G92305286H04737859H16400925H26918167H36092084H43976991H50632246
2180H55779479H58989936H60063562H58766351H54372223H45970973H33257809H16832835
2172G97978138G78562864G60986554G47465230G39163000G36158986G37875535G43337106
2164G51327486G60572054G70013923G79068854G87568721G95510903H02970285H10097181
2156H16944090H23322923H29061721H34426891H39945063H45653544H50952768H55368945
2148H58970508H61987429H64566188H66966132H69557126H72510655H75645755H78583016
2140H81068939H83170546H85019594H86472696H87403606H88250151H89715689H91843513
2132H93858200H95062441H95548869H95938362H96736439H98059396H99719009I01435223
2124I03029293I04486832I05921985I07500459I09278519I11061016I12531461I13567509
2116I14341923I15138387I16148822I17376927I18637098I19645450I20203808I20381614
2108I20473239I20703950I21092367I21619399I22235905I22674202I22634944I22190328
2100I21659263I21228360I20945350I20770838I20422082I19610158I18538078I17679162
2092I17064473I16276211I15035333I13285977I10882269I07727338I04137740I00679430
2084H97653232H94903524H92010631H88601192H84640857H80450013H76326863H72270062
2076H68194910H64170645H60234712H56213406H51995872H47841532H44126765H40799339
2068H37319448H33269506H28822003H24433791H20300423H16368926H12702156H09527126
2060H07002213H05127553H03804864H02866828H02167705H01738886H01699426H01958035
2052H02232037H02432699H02768884H03419136H04357576H05492173H06705892H07805399
2044H08636348H09180454H09476372H09578619H09557107H09371638H08809448H07683388
2036H06015642H03999140H01934439H00196646G99043226G98393041G97975785G97735528
2028G97854715G98312507G98755577G99009345G99394603H00348369H02016519H04313477
2020H07018750H09748022H12197376H14473898H16900462H19565200H22336352H25122428
2012H27788375H30052730H31829512H33478705H35407413H37624913H39906073H42148715
2004H44344031H46399455H48202186H49744090H51081097H52306648H53598145H55093194
1996H56680138H58125913H59423662H60787959H62318572H63912104H65473301H66985627
1988H68383471H69500994H70214369H70662413H71260971H72294733H73514637H74407432
1980H74885121H75437631H76542985H78145257H79750284H80905519H81600004H82228878
1972H83139825H84300101H85482293H86591950H87619998H88452493H88968165H89234235
1964H89464744H89868018H90582872H91645002H92975690H94462404H95993620H97349584
1956H98204196H98447612H98465896H98860565H99832952I01027849I01979800I02461725
1948I02460515I02189067I02100534I02520949I03268810I03882963I04122682I04041340
1940I03762364I03433911I03324202I03793220I05023947I06679728I07985543I08424647
1932I08285158I08273663I08713775I09394345I10046211I10612232I11095165I11455214
1924I11716713I11973843I12255173I12501950I12697705I12935474I13323286I13800640
1916I14081769I13922516I13473262I13167261I13218888I13480388I13832840I14399130
1908I15258313I16254699I17191996I17972258I18505273I18749697I18847306I19012071
1900I19350809I19926444I20764451I21612811I22010774I21825910I21446635I21260695
1892I21231721I21167590I21107963I21210344I21406973I21407712I21020909I20345649
1884I19632745I18988878I18222800I17080270I15688879I14580835I14141732I14245390
1876I14501310I14592263I14284918I13420491I12056259I10497145I09126863I08232119
1868I07905950I08049540I08462897I08980786I09559715I10182876I10684699I10785937
1860I10245729I08858103I06506560I03408836I00066016H96883658H94119497H92030596
1852H90697084H89971676H89923410H90933039H93124523H96122485H99449443I02803825
1844I05955193I08666987I10780358I12344446I13667605I15116068I16782807I18430319
1836I19730958I20483726I20678403I20453610I19965299I19250109I18138435I16250935
1828I13174521I08765133I03208242H96694155H89181801H80644490H71444962H62294573
1820H53997452H47496407H43930607H44104850H47792190H53789060H60618693H67111133
1812H72627355H77081311H80698807H83584306H85595161H86718061H87398564H88287662
1804H89683355H91368915H92985505H94408894H95697500H96843996H97761126H98467577
1796H99108687H99759544I00323415I00645684I00626727I00230848H99510011H98641013
1788H97891136H97520533H97659282H98217506H98965972H99735075I00499271I01304272
1780I02190277I03142833I04075827I04903146I05600926I06178711I06676299I07205482
1772I07890825I08769705I09772208I10698749I11234251I11217646I10957290I11042865
1764I11720545I12624431I13242349I13481934I13583708I13647438I13532822I13182588
1756I12785700I12583291I12663421I12974598I13419618I13874317I14183679I14284582
1748I14335671I14604162I15174150I15802554I16037971I15559878I14565374I13762121
1740I13748071I14426356I15216836I15727802I16015653I16308881I16725398I17242077
1732I17768168I18216481I18574110I18935839I19441427I20160852I21030118I21870815
1724I22477237I22777390I22934155I23212729I23708838I24265650I24657428I24812916
1716I24855469I24947901I25133505I25369593I25661948I26050701I26474142I26751842
1708I26747876I26557028I26506409I26859937I27468240I27867146I27805771I27497552
1700I27269126I27185837I27136293I27082985I27065372I27066246I27009375I26875329
1692I26754329I26792512I27088026I27582052I28035003I28206221I28088782I27884557
1684I27764093I27753875I27796293I27789570I27656535I27500442I27568204I27961730
1676I28519953I29034750I29438830I29756596I30009625I30224538I30475886I30850119
1668I31325725I31737267I31944248I31993523I32033185I32136306I32301137I32561964
1660I32995825I33599962I34190520I34492084I34403080I34144942I34061383I34282078
1652I34651471I34959556I35131513I35204384I35248886I35342125I35493377I35593809
1644I35559525I35493176I35589171I35939201I36488015I37074406I37478956I37560028
1636I37393851I37227809I37259136I37464705I37655216I37706575I37674442I37673366
1628I37755850I37925858I38147426I38331820I38394674I38319653I38170080I38073478
1620I38117848I38240060I38332694I38420757I38582362I38785578I38978510I39224615
1612I39578546I39939939I40182750I40329566I40463072I40569151I40605048I40609014
1604I40600948I40534531I40475441I40606662I40950980I41349548I41756115I42273937
1596I42887956I43435559I43865856I44339848I44981429I45591885I45786362I45478882
1588I45023847I44794279I44873468I45191502I45649092I46094716I46421893I46664233
1580I46880895I47063137I47185955I47251968I47322149I47540894I47998484I48558523
1572I48971409I49152845I49209716I49208238I49084076I48840660I48709843I48943108
1564I49472627I49956435I50174238I50230168I50361389I50668398I51036850I51301643
1556I51511313I51881512I52357790I52524303I52195782I51761182I51634466
1549I51762258I51974953I52394562I53133885I53915627I54318026I54281255
1542I54176252I54365015I54784355I55084642I55150656I55253373I55601658
1535I55998747I56099515I55832100I55406441I55058425I54932045I55077181
1528I55395618I55669486I55764540I55786455I55977303I56447194I57006561
1521I57313705I57230953I56974159I56879441I57119496I57598060I58008459
1514I58066809I57799730I57510871I57433161I57546634I57707231I57785815
1507I57723499I57576683I57502199I57666695I58154401I58865423I59514197
1500I59859860I59915857I59800098I59497525I58965116I58371533I58020962
1493I58080724I58494955I59105747I59739597I60190734I60273284I60038405
1486I59838617I59973669I60354692I60723278I61030422I61348859I61661515
1479I61998641I62529034I63311717I64167538I64850125I65144900I64930188
1472I64384737I63988321I64117860I64701158I65284725I65423071I65132665
1465I64938188I65296623I66095843I66892844I67409725I67629210I67685274
1458I67768833I67909599I67879146I67542290I67134109I66961614I67044500
1451I67239448I67510628I67899650I68379222I68873785I69354096I69800998
1444I70074933I69966636I69470729I68924135I68724347I68946722I69320686
1437I69546221I69545280I69442092I69391540I69462595I69637241I69830038
1430I69914067I69840054I69758580I69871784I70112444I70160038I69852827
1423I69391136I69077404I69058582I69335005I69782713I70157080I70292199
1416I70288973I70361372I70570639I70850288I71215244I71860052I73059654
1409I74910517I77066777I78802083I79406690I78687668I77345955I76704173
1402I77528263I79127646I80094722I79773797I78579304I77177964I75882636
1395I74766592I73964885I73753803I74298986I75292279I76112607I76424860
1388I76407382I76425868I76631303I76972865I77404104I77846434I78108807
1381I78078288I77801865I77290899I76588751I76107767I76411751I77418490
1374I78341266I78667165I78612580I78512618I78378104I78233708I78343686
1367I78793680I79206095I79192785I78888263I78813040I79323199I80306274
1360I81289619I81765561I81560529I81010171I80663231I80770721I81213656
1353I81894428I82872328I84039192I84996723I85455053I85526713I85513873
1346I85605163I85851268I86183688I86416684I86448817I86465354I86739894
1339I87246087I87616085I87581935I87420263I87658435I88244490I88555801
1332I88463503I88609244I89339425I90288553I91265175I92476203I93641927
1325I93989472I93379890I92679624I92800559I93719100I94512202I94372176
1318I93552386I92970365I92898301I92764594I92409184I92613207I93872168
1311I95426710I96217257I96254701I96249256I96380342I96347940I96286901
1304I96600633I97039400I96906499I96190704I95663740I95704544I95714155
1297I95066930I94228586I94259375I95257710I96253894I96969824I98319469
1290A000331198A001243823I99996829I98126269I97800168I99154451A000554716
1283A000621670I99438336I98396709I99042524A001630157A004741795A006517299
1276A006307430A005101575A004410048A004789054A005382099A004961549A003436182
1269A002180985A002736453A005287381A008550810A010948805A011777334A011680667
1262A012042262A013307945A014405502A014577191A014306079A014080141A013741065
1255A012943661A011542859A009885397A008787706A008791134A009576304A010320131
1248A010317913A009398767A008176645A007628639A008105253A009041474A009705844
1241A009845736A009570052A008931629A007848191A006475085A005359781A004957179
1234A005187621A005661883A006056216A006161151A005930508A005626053A005616440
1227A006003311A006660958A007442699A008057592A008076415A007494528A006912037
1220A006685830A006433810A005952557A005942003A007037476A008798529A010416059
1213A011669844A012499717A012475315A011543262A010712111A011073706A012369035
1206A013281728A013100224A012337373A011654651A011012264A010190189A009576170
1199A009998803A011860893A014504657A016561022A017227341A017030712A016871594
1192A016738895A016225510A015791044A016309741A017632295A018717079A018930312
1185A018313671A017120052A016033183A016180672A017944346A020243253A021449712
1178A020739900A018886077A017843376A018838687A020865339A022087058A022532279
1171A023633533A025230359A025420064A023628223A021686003A021458452A023148987
1164A026017344A029107942A031312669A032151551A032373590A032883278A033587376
1157A033849480A033397067A032601276A032228253A032710245A033625963A034261022
1150A034293626A033721353A032774510A032030750A032031288A032803215A034072931
1143A035606769A037082592A038056122A038296984A037995621A037603910A037455077
1136A037513293A037554837A037516116A037619506A038334293A040059919A042468333
1129A044445845A045091728A044511791A043463711A042663819A042434990A042705699
1122A043206648A043596141A043499875A042753898A041522768A039953369A038067012
1115A036276516A035467885A036061871A037402441A038556063A039329334A039954781
1108A040136889A039368727A038051954A037183831A037076004A037189746A037173545
1101A037287893A037708644A038191577A038576028A039002090A039517224A039892331
1094A039963789A039922043A040049970A040333047A040504400A040535188A040783377
1087A041494601A042429545A043192935A043702824A044009094A043993297A043650256
1080A043300358A043265200A043630290A044376471A045344152A046113928A046384771
1073A046476867A047019831A048087272A048935363A048970319A048550845A048379761
1066A048619547A048962857A049263346A049684703A050360366A051157837A051742614
1059A051852121A051567293A051374230A051849903A052950351A053918234A054236537
1052A054170120A054311155A054846119A055488910A056023067A056563207A057280750
1045A058097784A058723971A058923826A058700375A058283052A057996411A057985521
1038A057957287A057576198A056990076A056569526A056453432A056492623A056560586
1031A056743030A057123784A057518251A057701435A057923071A058672410A059994964
1024A061427899A062564110A063332877A063816214A064074083A064105140A063990054
1017A063993012A064340691A064955450A065571351A066082384A066653716A067508932
1010A068571264A069405507A069707542A069663377A069572827A069533097A069602674
1003A069865249A070272555A070579498A070603362A070476646A070506829A070777874
996A071006098A070949092A070646385A070202777A069691946A069203165A068831083
989A068634522A068398567A067547115A065797757A063419192A060749279A057907475
982A054817549A051408446A047896290A044631516A041675365A038985688A036736055
975A035171093A034509749A035007740A036568871A038568566A040641737A042890158
968A045328220A047830277A050360433A052720177A054548386A055973792A057638648
961A059952210A062478938A064677817A066501656A067883434A068681778A068987041
954A069163772A069546609A070196795A071126696A072378397A073481332A073741823
947A073369136A072902202A072558623A072396749A072291813A071955696A071359962
940A070791453A070380718A070069473A069627009A068567097A066582324A063556664
933A059662208A055390494A050628049A044612694A037070492A027893752A014720645
926I94157327I69768058I48699356I31884688I18838096I10791920I08568639
919I09873648I10289963I06793940H97608730H82436466H64159957H45263715
912H25545666H05054548G86326298G71927439G61661545G54065833G48496841
905G46463265G50585070G57419611G62647511G69930365G85188541H08535378
898H31540250H50081014H66443806H81928189H96260497I10636836I27445454
891I44655395I57124336I64953649I70873480I76181578I80771528I84364016
884I87095842I88988787I89537196I88366903I85470178I80322542I72018833
877I60973282I48163720I33333488I16028828H96910413H77577286H59473474
870H43180729H28572402H15449982H03972587G94700858G88561948G86553177
863G88980750G94870667H02337040H09480137H14863928H17596090H17379093
856H14440084H09203445H02049257G93471075G83948403G73105059G59557048
849G43230960G26120509G08126137F86596147F60542558F33846043F10348962
842E90004727E72447576E58238724E47859222E42820556E44160051E47178551
835E49200666E51769711E55879080E61591326E68598361E75959060E83057856
828E90649534E99529415F09744421F22809365F39160998F52116637F58117875
821F60662485F62972013F64876185F64072663F60000670F53721596F45901896
814F36764617F26477009F14611130F00711405E85996730E71940711E58682533
807E46667552E36793638E29008726E22685453E17787419E15719457E19186305
800E26749312E32245569E35033289E37757757E42140221E49008844E58582572
793E69094202E77618872E83888738E90371834E99458158F10649719F21079639
786F29448218F36584592F43734075F51517743F59493670F66915004F73770048
779F80621932F88264768F97314657G06101299G11142116G11787663G10346124
772G09583944G11002090G13502063G15057143G15470431G16668892G21457353
765G29082710G34833676G37573771G38604508G38261332G35903402G30798454
758G22847399G12535927G00130647F85725268F69884802F53149189F35621885
751F18602320F04822724E94891602E87269405E80537783E73914055E67847341
744E64393669E65782976E71973718E80538657E90053260F00989643F11994995
737F19981140F24935912F29013484F33513086F38449841F43311105F47856216
730F52560244F57956069F63487617F68253827F72546514F77176664F82075505
723F86768912F91480401F96356656G00691963G04113905G07374511G11498804
716G16516093G21386096G25424610G28812472G31931505G34978139G37964070
709G40938170G44228756G48080257G52053701G55593688G58831975G62070196
702G65203750G68247695G71768993G76166012G80871451G85053422G88723150
695G92424473G96383194H00323160H03955109H07310298H10521226H13596161
688H16467005H19029630H21176142H22977193H24805267H27123199H30032966
681H33174652H36262159H39391545H42741021H46311930H49996178H53691720
674H57341819H60950709H64498763H67876270H71027101H74076289H77198952
667H80433409H83647429H86611647H89123988H91154069H92875124H94500856
660H96047466H97286058H98025986H98336962H98374540H98190684H97847911
653H97475292H97152686H96958343H97091311H97766907H99054438I00850312
646I02903854I04896626I06578758I07802090I08452074I08446965I07792813
639I06633680I05281077I04134715I03476463I03339663I03590609I04090146
632I04710282I05229315I05369946I05000419I04192527I03066467I01688454
625I00064268H98087630H95499931H91952347H87102445H80658338H72357251
618H61970220H49430963H34982964H19144650H02558474G85879195G69639959
611G54033431G38748836G23024936G05917309F86633927F64819314F40779873
604F15539755E90535389E67087716E46089364E28055430E13333529E02234602
597D94916960D91136078D90280021D91768819D95305310E00701639E07688608
590E16016249E25593069E36432077E48546011E61892755E76312185E91499238
583F07048022F22445552F36988471F49780958F59829317F66152623F68032325
576F65443887F59191031F50170652F38325881F22846405F04036008E84789061
569E69362826E60249882E56497603E55102246E53570997E51101947E48046104
562E44969421E42257089E40160995E38861633E38438159E38862204E40010717
555E41649524E43509529E45493495E47793343E50757797E54638337E59426798
548E64878216E70673348E76601783E82635760E88829392E95143690F01408242
541F07458959F13243133F18776093F24056159F29065650F33840666F38497973
534F43112728F47579861F51730035F55582274F59319898F63047640F66770674
527F70565305F74548428F78698871F82898925F87142943F91555019F96180866
520G00895247G05574940G10244952G14929889G19439439G23456309G26785752
513G29382795G31172620G32007199G31853862G30948564G29622716G27852319
506G24996600G20104682G12506215G02087118F89137731F74129290F57642068
499F40368936F23035236F06218820E90268780E75422281E61939778E50112418
492E40208219E32395779E26680274E22964162E21169733E21202538E22824068
485E25683955E29454888E33880611E38764327E43949877E49283486E54633262
478E59958065E65280817E70624678E76010351E81381236E86523561E91253738
471E95704401F00209515F04880334F09464099F13688354F17643512F21674835
464F25878116F29892028F33328692F36259029F39102850F42140812F45286533
457F48327385F51258328F54251855F57326454F60251951F62865464F65327456
450F67968060F71003938F74472063F78330957F82498004F86795599F90989737
443F94969903F98843990G02808829G06977019G11335854G15780602G20155167
436G24289813G27915307G30309672G29890668G24388765G12047818F93317685
429F71616142F52104805F39047458F33741847F34574342F38774530F44149516
422F49648662F55023513F60334232F65610802F70715885F75456617F79738079
415F83516507F86704713F89255709F91278865F93026272F94798819F96811557
408F99060046G01348669G03498273G05499313G07457667G09426507G11323015
401G13052674G14686137G16401343G18284339G20297883G22380263G24470308
394G26538840G28624313G30689686G32513862G33968308G35325214G37022337
387G39166092G41456126G43534608G45261309G46729806G48147683G49662966
380G51261204G52878331G54546210G56293551G57978910G59389527G60470211
373G61341628G62156645G63017442G63984182G65095789G66345002G67650616
366G68924366G70176671G71495797G72926379G74378675G75613435G76455207
359G77186195G78457793G80517049G82809638G84693642G86257259G88064831
352G90324009G92692022G94830870G96775779G98667783H00407862H01662789
345H01870308H00040755G94891304G85625090G72873676G58985447G47198286
338G40130547G38737140G42336753G49342848G58094333G67338699G76197943
331G84056162G90723854G96435763H01487202H06088310H10478405H14805847
324H19018270H23136714H27386849H31894921H36565875H41400047H46565430
317H51810001H55911438H56579975H49385453H25805283G76017649F99855569
310F15438516E50972206E24761313E34621178E65362023F02139366F36591180
303F65701016F89124892G07423248G21115387G30281237G34447746G33048019
296G26922484G19697577G16714402G21406397G32632713G46041774G57847488
289G66953374G74176668G80535872G86364212G91455312G95640980G99076097
282H02067743H04935227H07955710H11083281H13874735H16023196H17754738
275H19447962H21141926H22611766H23731843H24635730H25547952H26485248
268H27234521H27640887H27688212H27309005H26497416H25577597H24824695
261H23819503H21741357H18304558H13847241H08493296H01677511G92444841
254G79824580G62931933G41211030G15345935F88442910F65729788F51867977
247F48124438F52175928F60275950F69524686F78589835F87075988F94893336
240G02157501G09012814G15233470G20327192G24168071G27229628G30165612
233G33433815G37308238G41921447G47112038G52426791G57497590G62223062
226G66332835G69230031G70770994G71727449G72827830G73608025G72619706
219G68543612G60763574G48781869G31694744G09319958F84000986F60695424
212F44271526F36517839F37354368F46968800F61571682F73934880F83181398
205F91943571G01125016G10098674G18453540G26137180G32949806G38959985
198G44599762G50027048G55028204G59583063G63987543G68275861G72043332
191G75212380G78453222G82328519G86463770G90032125G92695719G94757597
184G96715480G98968474H01743861H04867734H07639290H09452978H10562300
177H11702342H13164183H14797578H16433394H17768183H18377697H18205337
170H17600594H16890984H16260966H15749731H15101563H13972948H12500013
163H11340478H10938280H10952868H10652715H09814506H09090846H09537949
156H11637135H14522231H16651063H17726504H18995145H21169420H23336032
149H24439572H24635259H24619798H24698248H24844122H24914909H24711356
142H24184459H23325545H21775507H19152784H15897488H13063213H10997773
135H08883932H05802812H01706350G97166818G92659822G88330296G84054145
128G79415391G73835845G66984028G59065711G50691552G42450697G34533994
121G26639743G18181084G08679856F98086382F86823430F75688740F65747804
114F57958287F52594932F49110740F46734459F45350193F45804557F49085733
107F55025530F62387774F70352610F79171654F89011620F98387946G04816928
100G07154018G05820507G00706483F90078927F72226934F48409264F23357371
93F01731857E84899913E71555857E60047707E49408454E39133182E29175205
86E20077215E12458314E06262093E00843581D95866122D91566342D87941385
79D84289471D79933358D74932035D69773711D64930732D60652194D56711153
72D52736096D48903385D45794402D43758069D43146773D44514736D47668390
65D51447692D55098900D58825600D62754743D66386288D69395207D72463388
58D76589059D81622684D86176232D89251267D91123239D91698302D89292812
51D82425970D72035612D60847714D51307397D45011148D43154268D45650241
44D50261702D54672703D58635357D62949792D68000827D73701073D79610215
37D84906246D88974912D92219351D96144931E02332177E09840364E15751893
30E19302399E21249325E22144473E22832370E24488857E27148855E29776888
23E32203151E35025155E37793352E39851162E43117213E51077478E61647692
16E67424506E66955420E65561946E67441311E71662473E74812900E75742197
9E76857905E80684868E86383601E91662860E95230946E95670588E90541035
2E79720279E69379498
$$ === CHEMSPECTRA INTEGRALS AND MULTIPLETS ===
##$OBSERVEDINTEGRALS= (X Y Z)

##$OBSERVEDMULTIPLETS=
##$OBSERVEDMULTIPLETSPEAKS=
$$ === CHEMSPECTRA SIMULATION ===
##$CSSIMULATIONPEAKS=
##END=


$$ === CHEMSPECTRA PEAK TABLE EDIT ===
##TITLE=LIS-P249
##JCAMP-DX=5.00
##DATA TYPE=INFRAREDPEAKTABLE
##DATA CLASS=PEAKTABLE
##$CSCATEGORY=EDIT_PEAK
##$CSTHRESHOLD=0.93
##MAXX=3997.453
##MAXY=0.95204877809422
##MINX=373.96442
##MINY=0.39292252077159395
##$CSSOLVENTNAME=- - -
##$CSSOLVENTVALUE=0
##$CSSOLVENTX=0
##NPOINTS=32
##PEAKTABLE= (XY..XY)
392.3793345973413, 0.501463711380356
437.708355144644, 0.39292916632217134
468.8720567709147, 0.39292252077159395
528.3663962392493, 0.5722091191082523
580.7780762470679, 0.731161117376167
596.3599270602031, 0.717392146604984
602.0260546286158, 0.7190302007858256
671.4361173416728, 0.5643777841883723
722.4312654573882, 0.5746689437195398
789.0082643862388, 0.635485231226417
808.839710875684, 0.46528723770571473
849.9191357466766, 0.6550120116442728
975.9904741438622, 0.5619164105741684
1063.8154514542607, 0.46210271114897317
1162.9726839014852, 0.47741401179941867
1215.3843639093038, 0.4347138994855549
1294.7101498670836, 0.7953011386560903
1426.4476158326815, 0.5004278416149239
1466.1105088115714, 0.6291629071064668
1508.6064655746677, 0.45727014479556566
1559.6016136903827, 0.48129972773187313
1596.4314428850662, 0.6974087951391801
1654.5092504612976, 0.6618624925588578
1677.1737607349683, 0.8075668805666784
1753.6664829085407, 0.9178494802927204
2903.890379296325, 0.7957996125825891
2947.8028679515246, 0.7482833265689637
2993.1318884988273, 0.7890635131644131
3246.691097185301, 0.7073237890210665
3282.104394487881, 0.7108384367385655
3442.1724982955434, 0.6527260539653768
3479.002327490227, 0.6456547971319698
##END=


$$ === CHEMSPECTRA PEAK TABLE AUTO ===
##TITLE=LIS-P249
##JCAMP-DX=5.00
##DATA TYPE=INFRAREDPEAKTABLE
##DATA CLASS=PEAKTABLE
##$CSCATEGORY=AUTO_PEAK
##$CSTHRESHOLD=0.93
##MAXX=3997.453
##MAXY=0.95204877809422
##MINX=373.96442
##MINY=0.39292252077159395
##NPOINTS=100
##PEAKTABLE= (XY..XY)
3630.5712399452696, 0.8554307222255181
2456.266301391712, 0.8547342419250709
3651.819218326818, 0.8529887195710826
2477.51427977326, 0.8510548466197688
3658.901877787334, 0.8509025566684717
2488.846534910086, 0.8494431964216682
2504.4283857232213, 0.8489832276752795
2512.9275770758404, 0.8489220141301477
2522.843300320563, 0.8484310502521333
3705.6474302267397, 0.8479995124035784
3678.7333242767786, 0.8479029528640213
2539.841683025801, 0.8467043633125434
3691.4821113057073, 0.8466440435252478
2556.8400657310394, 0.846034228474979
3714.146621579359, 0.8447721599505208
2568.1723208678654, 0.8437805170113463
3726.8954086082877, 0.8436203002792404
3736.81113185301, 0.842522680536642
3760.8921740187648, 0.8424476376849918
2590.836831141517, 0.8411873575628703
3746.7268550977324, 0.8411516542426435
3773.6409610476935, 0.8409357665053203
3752.392982666145, 0.8401100628310639
3792.055875645035, 0.8400779363155108
3780.7236205082095, 0.8396289941290928
3786.3897480766223, 0.839516043709219
3817.553449702893, 0.8394064901011213
3803.3881307818606, 0.8386234633635415
2620.584000875684, 0.8377155658882811
3828.8857048397185, 0.837289451766595
3823.2195772713058, 0.8369002335289151
3809.054258350274, 0.8367147441979956
3865.715534034402, 0.835635423437761
3841.6344918686473, 0.8344711061299745
3872.798193494918, 0.8342006202515034
2641.831979257232, 0.8338862054660533
3885.5469805238467, 0.8328224412348221
3892.6296399843627, 0.8324354290184679
3912.4610864738074, 0.8324156395530461
3854.383278897576, 0.8318762176856846
3933.709064855356, 0.8317906252995755
2668.7460852071927, 0.8317564718689295
3925.2098735027366, 0.8314117189702632
2680.0783403440187, 0.8314017049811743
3942.208256207975, 0.831234931364943
2688.577531696638, 0.8310066453976367
3950.707447560594, 0.8308332554907571
3962.0397026974197, 0.8307049870546358
2699.909786833464, 0.8294686078613155
3976.205021618452, 0.829342722779424
3986.1207448631744, 0.8292305464176762
3994.6199362157936, 0.8287293309244815
2715.491637646599, 0.8281990878082311
2756.5710625175916, 0.822606444255015
2750.904934949179, 0.8223817342057178
2774.985977114933, 0.8219959730730014
2769.3198495465203, 0.8217201822807071
2789.1512960359655, 0.8215003604129086
3049.7931641829555, 0.8167137498815727
3032.794781477717, 0.8105370400157487
2837.3133803674746, 0.8101879947741409
3082.373397701329, 0.8096730111542797
2858.5613587490225, 0.8091552256745353
2874.1432095621576, 0.8077135082783508
1675.757228842846, 0.8055955761859883
3107.870971759187, 0.8053340314325368
3018.6294625566848, 0.805007993361894
1272.045639593432, 0.8009592286908568
3117.7866950039092, 0.8009455199707131
3129.118950140735, 0.7998605369708537
2903.890379296325, 0.7957996125825891
1294.7101498670836, 0.7953011386560903
2993.1318884988273, 0.7890635131644131
2947.8028679515246, 0.7482833265689637
580.7780762470679, 0.731161117376167
602.0260546286158, 0.7190302007858256
596.3599270602031, 0.717392146604984
3282.104394487881, 0.7108384367385655
3246.691097185301, 0.7073237890210665
1596.4314428850662, 0.6974087951391801
1654.5092504612976, 0.6618624925588578
849.9191357466766, 0.6550120116442728
3442.1724982955434, 0.6527260539653768
3479.002327490227, 0.6456547971319698
789.0082643862388, 0.635485231226417
1466.1105088115714, 0.6291629071064668
722.4312654573882, 0.5746689437195398
528.3663962392493, 0.5722091191082523
671.4361173416728, 0.5643777841883723
975.9904741438622, 0.5619164105741684
392.3793345973413, 0.501463711380356
1426.4476158326815, 0.5004278416149239
1559.6016136903827, 0.48129972773187313
1162.9726839014852, 0.47741401179941867
808.839710875684, 0.46528723770571473
1063.8154514542607, 0.46210271114897317
1508.6064655746677, 0.45727014479556566
1215.3843639093038, 0.4347138994855549
437.708355144644, 0.39292916632217134
468.8720567709147, 0.39292252077159395
##END=

##END=

