##TITLE=LSH-R335A
##JCAMP-DX=5.0
##DATA TYPE=LINK
##BLOCKS=1


$$ === CHEMSPECTRA SPECTRUM ORIG ===
##TITLE=LSH-R335A
##JCAMP-DX=5.00
##DATA TYPE=INFRARED SPECTRUM
##DATA CLASS=XYDATA
##$CSCATEGORY=SPECTRUM
##ORIGIN=Angelika Moesle
##OWNER=
##XUNITS=1/CM
##YUNITS=TRANSMITTANCE
##XFACTOR=1.0
##YFACTOR=8.4485513e-10
##FIRSTX=3997.453
##LASTX=373.96442
##MAXX=3997.453
##MAXY=0.9071562874571021
##MINX=373.96442
##MINY=0.41025465657237875
##NPOINTS=2559
##XYDATA= (X++(Y..Y))
2559I26201240I26484357I26385940I26220923I26481042I27041704I27326232I27060610
2551I26479983I25942815I25596413I25332627I25018043I24748119I24733091I24961744
2543I25204507I25286628I25190750I25054447I25180944I25815472I26789064I27564974
2535I27702829I27220689I26548205I26110089I25989166I26051462I26229037I26561328
2527I27057295I27510791I27485676I26838096I26121659I25816671I25500465I24567722
2519I23395038I22829860I22987822I23459309I24120152I25066088I25985567I26238138
2511I25798681I25437182I25677617I26189881I26386998I26280891I26307065I26586937
2503I26749767I26368444I25593098I25084643I25186729I25630983I26174149I26957890
2495I27868410I28094805I26995352I25170926I23670183I22728621I22400775I23111638
2487I24818175I26512295I26868997I25699911I24604620I24735137I25277809I25063901
2479I24434029I24198956I23776291I22717756I22378833I23673217I25358307I25890678
2471I25293048I24500347I24085300I24573578I26079611I27434668I27254201I25824573
2463I24868123I25262429I26733047I28815757I30607096I29999377I25802632I21832634
2455I21241636I22682622I24420413I25740265I26425519I26556319I26615157I26909140
2447I26879015I25826901I24323760I23512574I23515890I23729798I24001063I24689844
2439I25762982I26860742I28027924I29109458I28869023I26802186I24994339I24678909
2431I24625785I24126784I24139906I25085419I26235949I26740948I26267416I25683190
2423I26331828I27705157I27743254I25988461I24569697I24339633I24198674I23767260
2415I23725142I24269365I24951656I25525652I26033683I26386504I26482876I26584256
2407I26944274I27242066I27048265I26663554I26725780I27317837I28124507I28780906
2399I28935481I28657796I28495106I28497858I28148070I27458161I26894254I26377756
2391I25580399I24997231I25477466I26900533I28351537I28735824I27327502I25261300
2383I24734785I25697371I25947330I24113802I22598385I23795974I26650080I29016684
2375I29537697I28254460I26246674I24581268I23887548I24295116I25335096I26178029
2367I26255070I25815754I25557188I25729189I26020279I26184590I26528522I27497387
2359I28724677I28835159I26944909I24447646I23332812I23935734I25694337I27662756
2351I28536026I27801386I26629338I26221205I26482946I26986463I27692669I28477822
2343I28620757I27154584I24325806I22226939I22262849I23807262I25573626I26742500
2335I27375617I27920406I27989615I26566337I24740217I25131982I27333146I28607634
2327I27643002I26200534I25846796I26147198I26245122I26029591I26083351I26748850
2319I27535202I27948060I28589926I30070844I31475145I30886686I27675597I24452514
2311I23647888I24608359I25704426I25961652I25420250I24832849I24794400I25259537
2303I25963204I26942510I28220032I28905638I27398687I24201425I22458343I23265437
2295I25447905I27649281I28616806I27602013I25751412I25126691I25829088I26376416
2287I25998055I25271953I24792918I24579927I24757924I25595073I26925719I28185674
2279I28926098I29169848I29124203I28619698I27390645I26049698I25871136I27106962
2271I28415102I28214035I26686201I25605021I25637897I26024864I26097884I25792402
2263I25395063I25280772I25631759I26280397I27027029I27851690I28460113I28043727
2255I26324279I24611251I24203965I24775139I25313719I25212409I24509871I23734666
2247I23447597I23624960I23648524I23220285I22857657I23043698I23545803I23891711
2239I24017925I24153310I24456394I24907068I25234632I25072861I24452161I23916756
2231I23961837I24555870I25205636I25383352I25031589I24538161I24147031I23777278
2223I23425727I23233125I23183105I23144655I23152345I23450772I24295398I25599024
2215I26698336I26864058I26160462I25271601I24636861I24322137I24374979I24716089
2207I24977759I24867137I24489341I24118741I23851356I23670183I23678861I24006778
2199I24556363I25035117I25194842I24934442I24377448I23892344I23759641I23846347
2191I23862573I23733043I23555892I23446398I23530212I23867089I24341609I24750588
2183I24928445I24767449I24274586I23661435I23322371I23623549I24545428I25549991
2175I26042855I25909586I25401766I24728857I24018489I23424316I23045321I22900622
2167I22999110I23217675I23281664I23144160I23163420I23589121I24123962I24307886
2159I24083254I23713854I23482802I23665668I24314941I24908479I24749953I23860034
2151I23009975I22808978I23159400I23561958I23666656I23546861I23508482I23691419
2143I23978205I24236489I24442072I24599117I24669879I24573154I24273740I23881269
2135I23558926I23325898I23087016I22822382I22625900I22582300I22640645I22595422
2127I22290152I21892320I21796724I22161538I22703223I23058020I23210902I23392286
2119I23637377I23715617I23533598I23312000I23246812I23282722I23367664I23615930
2111I24012140I24254550I24135179I23823559I23616212I23668772I24055740I24675593
2103I25048873I24708046I23906032I23461425I23775021I24362844I24480169I23929384
2095I23133155I22579760I22379821I22348497I22342500I22390756I22583993I22965387
2087I23486894I23996689I24317833I24409337I24386831I24317340I24106677I23739322
2079I23491480I23630604I23969245I24025332I23647748I23214711I23144443I23406890
2071I23632086I23571201I23325193I23160247I23195663I23301135I23311506I23291541
2063I23449432I23766766I23944553I23808179I23554834I23511163I23835553I24475231
2055I25178686I25536234I25301232I24768859I24561372I24858812I25112369I24786498
2047I24084101I23596529I23546015I23727329I23928185I24105830I24301748I24539149
2039I24780924I24970422I25043089I24859447I24366513I23910971I23988576I24560667
2031I25084784I25280278I25336295I25339329I25074907I24536045I24153945I24308873
2023I24899590I25543995I25977525I26082292I25766228I25106796I24492657I24327993
2015I24617741I25025663I25268849I25311673I25265181I25253963I25358660I25584138
2007I25845526I26030015I26130266I26292884I26658052I27162768I27578237I27710942
1999I27512978I27057436I26495998I26045959I25956290I26349254I27006852I27436855
1991I27314803I26811781I26418534I26497762I27037541I27751438I28344341I28658572
1983I28639311I28339544I27963793I27716868I27599755I27488004I27325103I27137511
1975I27001137I27043326I27287077I27478550I27292721I26744264I26222546I26075661
1967I26285053I26579741I26710259I26527534I26007297I25359788I24923154I24821279
1959I24880682I24905798I24816200I24574777I24214125I23920707I23921059I24268025
1951I24769284I25118295I25115120I24816269I24514033I24524616I24928233I25502652
1943I25934137I26024935I25724815I25138190I24519818I24138777I24185340I24734220
1935I25559869I26091182I25938017I25379401I25056493I25362046I26238138I27214410
1927I27597780I27068865I26118907I25445648I24966260I23850157I21500202I18089808
1919I14162141I10206183I06728556I04300361I03281194I03607911I04888537I06619485
1911I08431847I10207524I11828625I12815620I12389992I09965890I05692950I00694755
1903H96664508H94865762H95382118H97375442H99937611I02523697I04813895I06644813
1895I08151622I09635502I11155859I12480367I13511528I14431149I15225473I15450669
1887I14890289I14142458I13995149I14417815I14761252I14798221I14932831I15411443
1879I15938735I16163225I16126186I16102552I16235892I16476891I16760220I17059424
1871I17272626I17248921I17010956I16796201I16784419I16891797I16938430I16949013
1863I17147117I17657124I18363543I19050772I19505679I19522682I19005196I18064551
1855I16993036I16181568I15860918I15792414I15568558I15309286I15508238I16139097
1847I16620602I16683603I16548570I16271943I15623023I14603643I13565075I12809483
1839I12361420I12044156I11644136I11084674I10461857I09843697I09136502I08236635
1831I07160534I05956384I04681966I03512316I02668536I02187737I01890439I01545943
1823I00984081I00162313H99228582H98446463H97956987H97628576H97185239H96483124
1815H95628903H94805089H94039479H93205294H92197344H91007022H89637503H88052735
1807H86282914H84538633H83090732H82001297H81070811H80130872H79312067H78937164
1799H79188534H79975450H81069894H82246812H83319315H84207823H84992623H85778904
1791H86530475H87166484H87765102H88481539H89255192H89732393H89548821H88668073
1783H87419195H86198395H85168011H84285075H83562642H83178214H83306334H83934865
1775H84883200H85942228H86949119H87775755H88358147H88788432H89273676H89929087
1767H90699706H91547012H92535491H93605595H94434065H94698770H94392088H93763345
1759H93041053H92331530H91708149H91232853H90868603H90498638H90069340H89622899
1751H89215613H88952320H89057087H89746150H91032843H92698462H94394487H95788981
1743H96715516H97208591H97372619H97259740H96904026H96446649H96155700H96256092
1735H96782538H97646636H98703830H99689204I00342357I00693979I00991418I01321029
1727I01563510I01663691I01711030I01846768I02232536I02962378I03924681I04868995
1719I05620283I06158934I06546536I06828666I07017035I07187273I07532968I08158536
1711I08827281I09117383I08881322I08395937I08024420I07883461I07888329I07970026
1703I08145132I08447439I08855360I09258131I09478388I09414187I09204301I09172342
1695I09497084I09985644I10283013I10282730I10213662I10350317I10747515I11230006
1687I11551927I11592070I11473546I11461482I11697402I12057983I12297783I12279088
1679I12071529I11907571I12020380I12425479I12914180I13342984I13771717I14193889
1671I14373792I14166939I13797679I13620034I13752104I14062172I14363421I14517291
1663I14459651I14250399I14062877I14030001I14081150I14014974I13749423I13390887
1655I13051400I12757488I12574128I12646301I13020569I13519641I13893345I14058433
1647I14122351I14199462I14279678I14284969I14188527I14082278I14150642I14480040
1639I14854025I14924577I14687458I14540995I14732821I15029555I15096789I14925282
1631I14706294I14554259I14522300I14687034I15048674I15451091I15719606I15851676
1623I15992071I16215926I16428141I16532132I16580035I16652208I16707590I16693127
1615I16686778I16786042I16933421I16976809I16854828I16656159I16536506I16610584
1607I16865693I17191494I17514684I17825810I18062647I18138981I18123108I18172282
1599I18269359I18282340I18273874I18431483I18675727I18696681I18487923I18489193
1591I18975001I19568328I19665264I19193354I18646167I18482490I18766596I19299884
1583I19820051I20105426I20077700I19827952I19544834I19450297I19680855I20100346
1575I20379513I20423466I20549821I21055242I21781627I22299676I22394989I22243307
1567I22210007I22554292I23206386I23786450I23903281I23455781I22679024I21958425
1559I21604193I21729984I22245070I22852366I23150651I22990362I22688760
1552I22652215I22888205I23120668I23221273I23326322I23653039I24226753
1545I24687587I24542818I23726764I22681705I21884277I21596503I21939236
1538I22817867I23837599I24556716I24787133I24656192I24512693I24700286
1531I25275622I26017527I26690646I27146753I27216950I26708707I25613416
1524I24312754I23450561I23369287I23736077I23986248I24024556I24142093
1517I24383727I24471350I24369617I24471350I25040478I25803549I26326748
1510I26515117I26500231I26337049I26076930I25871700I25795294I25792472
1503I25845667I25988531I26200182I26456490I26764018I27039446I27104564
1496I26862718I26399415I25919110I25588089I25402894I25293612I25350194
1489I25701604I26153195I26286394I26021196I25747250I25771025I25917699
1482I25838542I25499971I25211492I25256503I25587313I25858153I25732646
1475I25186799I24484049I23879223I23457827I23276443I23466293I24089604
1468I25014587I25978372I26665812I26807618I26438359I25994034I25921579
1461I26260361I26745746I27109291I27133489I26772273I26383330I26480759
1454I27147176I27979597I28577086I28778084I28575816I28140945I27779376
1447I27624448I27568572I27624024I28035261I28845529I29632728I29903570
1440I29622216I29198210I29011322I29054428I29103884I29164063I29501011
1433I30157268I30731970I30831304I30509807I30087706I29732909I29393633
1426I29007089I28622520I28347375I28271957I28444381I28825211I29218881
1419I29353067I29092032I28540117I27977269I27769852I28198232I29188756
1412I30335972I31338701I32200894I32845652I32884313I32101842I30999355
1405I30446453I30680397I30975932I30543107I29448451I28307585I27502749
1398I27162838I27414632I28196680I29144662I29821520I30001705I29875279
1391I29854044I29997402I29985548I29710404I29475613I29521470I29706029
1384I29839016I29986890I30182384I30167215I29784270I29342273I29327387
1377I29905122I30802238I31593598I32053444I32235464I32311728I32342347
1370I32172251I31621325I30836031I30325248I30490265I31143700I31633177
1363I31493064I30914836I30489348I30520531I30755886I30799980I30554889
1356I30175047I29838240I29677880I29807481I30306129I31160421I32150451
1349I32857081I32975252I32606981I32127945I31867897I32011537I32537488
1342I33089191I33220696I32950560I32697849I32527259I32041803I31251007
1335I30889155I31474510I32554068I33239321I33177518I32791257I32771151
1328I33383596I34203742I34640729I34681790I34726307I34639177I33682094
1321I31797700I30151483I29670825I29870411I29939692I29997895I30368777
1314I30759696I31148639I32385876I34886808I37529898I38649811I37758975
1307I35856731I34198874I33156143I32511315I32455862I33433263I35129218
1300I36718501I38081953I39636596I41095150I41689605I41517039I41325496
1293I41097125I40197681I38774402I37726098I37418923I37486510I37652585
1286I37946568I38368105I38875925I39503750I40228653I40806317I40847378
1279I40327141I40134892I41466526I44205705I46505640I46417170I43628535
1272I39605272I36318694I34754597I34378424I33942777I32784344I31297499
1265I30451533I31238661I34239793I38827738I42975452I45230869I46368207
1258I47538846I48365482I48086739I47186096I46838776I47306031I47561916
1251I46493928I44271387I42213652I41336996I41553937I42294573I42974887
1244I42797031I41251347I38999881I37387034I37167412I38117652I39444135
1237I40325942I40478400I40330739I40452015I40841663I40901772I40034569
1230I38339602I36775506I36368149I37215386I38562329I39750394I40676364
1223I41387509I41714227I41490372I40912566I40458999I40479459I40987843
1216I41809470I42731913I43494136I43830731I43639188I43062157I42403361
1209I41966232I41904711I42123559I42301628I42155659I41761425I41479718
1202I41501377I41686501I41976321I42667571I43970491I45440262I46251236
1195I46143576I45810721I46089888I46955891I47563680I47195338I46058070
1188I45096471I45038691I45695583I46159803I45518925I43583735I41188629
1181I39432564I38715564I39008770I40411307I42568448I44439579I45754563
1174I47583011I50331009I52633695I53449325I53573000I53988117I54408595
1167I54384961I54443729I55214348I56416452I57530298I58719279I60172189
1160I61133152I60757967I59567856I58734095I58211742I56937677I54791048
1153I52938542I52162137I52189229I52568789I53120420I53787331I54648254
1146I55676522I56313096I55888878I54625255I53522555I53176084I53489186
1139I54279559I55219358I55483215I54289930I51660033I48241808I44869370
1132I42504530I41842487I42757664I44628794I46947072I49174833I50610811
1125I51100711I51448241I52485258I54081807I55455418I56257926I56776399
1118I56999337I56422096I55142810I54154474I54118282I54726071I55371675
1111I55532036I54606630I52310011I49205876I46212010I43827133I42407594
1104I42582558I44676839I47908670I50682984I51919234I51936024I51857855
1097I52398551I53425126I54351097I54738135I54730657I54870487I55458664
1090I56269707I56909950I57143965I56804125I55774305I54138318I52160163
1083I50171989I48631174I48156654I49184005I51444855I53967375I55749471
1076I56418498I56368971I56366432I56856473I57683392I58519270I59328339
1069I60205206I60997766I61399973I61285258I60882770I60676481I61033183
1062I61822215I62547259I62919482I63144325I63593377I64287590I64797807
1055I64880564I64887619I65116060I65371240I65328980I64891428I64098304
1048I63030528I61847190I60679515I59596852I58788701I58563716I59094253
1041I60266938I61722316I62929570I63542369I63777795I64058090I64620939
1034I65528849I66661602I67769521I68645190I69141439I69210719I69118863
1027I69166908I69141298I68593334I67446966I65748330I63155895I59481502
1020I55616555I53218344I53303427I55607948I59059754I62417235I64911747
1013I66640084I68137088I69672823I71046646I71891131I72098901I71996815
1006I72050292I72485939I73238921I74041076I74530482I74605547I74560325
999I74554751I74359892I73757604I73008857I72612224I72761296I73379386
992I74409206I75748601I77063937I77931281I78324174I78765677I79534533
985I80347835I80982503I81526798I82040473I82422150I82694685I83051668
978I83562593I84196345I84976700I85902529I86847125I87559470I87828830
971I87786500I87788828I88022631I88455809I88959325I89325763I89438079
964I89506583I89606270I89014778I86811497I83834422I81663171I80265361
957I79172328I78550499I78832277I80184440I82395976I85145456I88306525
950I91712827I94669724I96557716I97758762I98898993A000187238A001521835
943A002675471A003394871A003609908A003677989A004089296A004983660A006033234
936A006891406A007732293A008823563A010145743A011594772A013112941A014568249
929A015856142A017136133A018630314A020178184A021418738A022537310A023811375
922A025145901A026305745A027129912A027629266A027975807A028421403A029361201
915A031134479A033486268A035946633A038363752A040620298A042503775A044084450
908A045656308A047305840A048908103A050253496A051028842A051298131A051515355
901A051657654A051416162A050822412A050521092A050870809A051663793A052653047
894A053898468A055847134A058947177A062665028A065833647A068250200A070254741
887A071962196A073197670A073741823A073503081A072506137A070984511A069076907
880A066014467A059859955A049298599A036705259A025932041A019187942A017501935
873A019749028A022260401A021679068A016832062A007497785I93023648I72296724
866I44487976I09814560H70017651H28524364G89427877G55160829G25668544
859G00358894F80278350F68450055F68329344F81524548G06242211G37488091
852G69760827G98781273H17367707H15368739G93718172G61456724G23568761
845F86631672F61609232F51129785F48726989F49154593F50759679F53221738
838F56536395F61858133F69904729F79258689F88307097F95333467F99029871
831F99924870G00435653G02765430G07386958G13608563G20520782G27721200
824G35293276G42739279G49640563G56516591G64007323G72018291G79872637
817G87414659G94835969H01904951H08124228H13355803H17540484H19872096
810H18728054H12444083H00841126G87348906G77123510G72009684G70671982
803G71485426G73410527G75913434G79053268G82683001G86024750G88160515
796G88062450G84778341G78396728G71375226G66971838G66205947G68540945
789G73414619G80005695G87007725G93604657G99713876H05487205H11087475
782H16635326H22174923H27638889H32825101H37541448H41863984H46056285
775H50173591H54170396H58235567H62741039H67842308H73123973H78121533
768H82954147H88236518H94534458I00656587I03131134H98520682H84464908
761H62270964H40038076H29434884H35318625H51283556H67518765H77233448
754H76480537H61559677H29301473G88607661G64252202G67935060G90928408
747H21702378H50938919H72101490H83081561H84609959H78373115H64967531
740H41082852H04100965G65464959G44576827G45529325G60389230G80177555
733G96963549H04976492H01478193G85791441G60318538G33016905G12659380
726G01974351F99254503G02042715G07946491G14737859G20391747G23307302
719G22652455G17991561G09802101G01260102F96992454F98722555G04893787
712G13294897G22331592G31062173G38987211G45917633G51919121G57172919
705G61817164G66001070G69982073G73991296G78024506G81896227G85517072
698G89077525G92808428G96634785H00299442H03673573H06820814H09848614
691H12815600H15738634H18597396H21352520H23963510H26355089H28399491
684H29977627H31099303H31992750H32993363H34334944H36174962H38689863
677H41998312H46072582H50516817H53755210H52648419H44732976H31920648
670H20466410H15767841H17658162H21104676H20427889H12351380G97336759
663G79879551G65730933G57518827G53876253G52386657G52183755G53917736
656G58355340G65398713G74027347G82915040G91131451G98347743H04571323
649H09905901H14566796H18875998H23056234H27107083H30977886H34749073
642H38601887H42710233H47120675H51596586H55232670H55433597H47452825
635H27584001G99148628G73383013G61089157G63963299G75483502G88375340
628G99260168H07773029H14348161H19471441H23657393H27291570H30487704
621H33129242H35026476H36075063H36444181H36692377H37531641H39344991
614H42003744H45070982H47840992H49033783H46897384H40416577H30768000
607H21084429H14330171H11602138H12400554H15701454H20414132H25437302
600H29854587H33114638H35014765H35643931H35430023H35164472H35680758
593H37256355H39416669H41453312H43015715H44138520H44934890H45505077
586H46106164H47143180H48817829H50891791H52940073H54743617H56365565
579H57946029H59509067H60966915H62263768H63395110H64281219H64777963
572H64784242H64180827H62742239H60255487H56609104H51632144H44967555
565H36216305H25137182H11729199G96504127G81053858G68093022G60206646
558G58176989G60604125G65130975G69942988G74249368G77790985G80589709
551G83514012G88281438G95909318H05455387H14980220H23342245H30532644
544H36864872H42527155H47592514H51761674H53800503H51406454H42307674
537H26456892H07567446G91889513G84455645G85983337G93286758H02292624
530H10468256H17118383H22488235H26982068H30887159H34378544H37385461
523H38781084H35233400H22181413G98678057G71755703G53122142G49774468
516G59128851G73497515G87013722G97799215H06199761H12954231H18567130
509H23325384H27423077H30966669H34007026H36675163H39170309H41567109
502H43777585H45773379H47759295H50005399H52563477H55292568H57953437
495H59798392H59168239H54229800H44603940H32097658H19479484H08539274
488G99493900G92006979G86221162G82730835G81931149G83581105G86957141
481G91321372G96065023H00625242H04788406H08928570H13394394H17624439
474H20033655H19000872H14717914H10230220H09501719H13885352H21281828
467H28769032H35011167H40178471H44803667H49309140H54070075H59291490
460H64746215H69255426H69448876H59846932H37574183H08552114G86092126
453G80071095G87279908G93791333G88176318G72766545G60721521G61940133
446G74367751G89387170H01396708H10010386H16625378H22052377H26441795
439H29841394H32590733H35138651H37531923H39264917H39494205H37671895
432H34574462H32319468H32599622H35191846H38577900H41477722H43511400
425H44954927H46251426H47618265H48953356H50073057H50957897H51725623
418H52474866H53279913H54153042H54745945H54231140H51591649H45801881
411H36395361H25334581H17871294H19056677H28673154H41299301H51668548
404H58436493H62949586H66487393H69417340H71686232H72638800H69978848
397H60409992H43625268H25492402H14589513H14743030H22572331H32151135
390H39968866H45480243H49306177H52091496H54272201H56079625H57597229
383H58879548H60051033H61239168H62429631H63540161H64612029H65749650
376H66910341H67918925H68688909H69332045H70020755H70789963H71538430
369H72197156H72826534H73587417H74630289H75938783H77300471H78503633
362H79532183H80593187H81956427H83654569H85405412H86997164H88625461
355H90696601H93199509H94832109H92923728H85871113H76527030H71379057
348H74697241H84570310H95813180I05225696I12665984I18496742I20885428
341I13725577H87897948H40101853G82518479G38087203G22096944G31232269
334G51700910G72870043G91041077H05714306H17006137H25551099H32361939
327H38187546H43180379H47206040H50385947H53116025H55644965H57955624
320H59989725H61795033H63551096H65449177H67459150H69371482H71094458
313H72687833H74202614H75754647H77593466H79830752H82232702H84499336
306H86633831H88819968H91036441H93100456H95092510H97381932I00201680
299I03558667I07550182I12383078I18163886I24969223I32809036I40987067
292I47009297I45318563I27865094H90028139H38799004G91408855G60655556
285G42505123G21041161F83534310F28992070E67232304E14358751D85591721
278D86649442E11056899E46550214E83289621F16715429F45879020F71157276
271F93040376G11841776G27753160G40935241G51808922G61359717G70812377
264G80817022G91100127H00964377H09923679H17067163H19004399H10257241
257G89764190G67220246G57622958G66963091G87150378H06293452H19405265
250H27900066H34023536H38785529H42702755H46295097H49967091H53685928
243H57057097H59809399H62007671H64040502H65511190H62640294H49819217
236H28662995H12237371H12853061H27835865H44250977H54299363H59491077
229H63453031H67401793H71265401H74798199H77621756H79693179H81512808
222H83639260H86248485H89130671H92135683H95565196H99520236I01816291
215H96092135H74599671H37626390G98758909G74302422G71762899G89151039
208H12956771H29151555H38407027H45386482H51561947H56771087H60996687
201H64318540H66829420H69054359H71515007H74066171H76194385H77590079
194H78466100H79614657H81613412H83563771H81913109H69718518H40462153
187G97665805G57347813G33200547G22286865G14612209G11624764G23196397
180G50437639G82357131H07894869H24153219H33986426H41034667H47453389
173H53646633H59089999H63388478H66532051H68589928H69653401H70029644
166H70251454H70824815H71972031H73482156H74828394H75739408H76545020
159H77564540H78562259H79292807H79887403H80277122H80114575H79597866
152H79530420H80475368H82337116H84472104H85960994H86265700H85865681
145H85857709H86785724H88172459H89370047H90472605H91935321H93660342
138H95007144H95491118H95094485H94215572H93596635H93849981H94803748
131H95641813H95763018H95293154H94873804H95150573H96309852H97950919
124H99487147I00576654I01026905I00589142H99200927H97212541H95130184
117H93340821H92224153H92241932H93561431H95549040H96902191H96703875
110H95345644H93966106H93089027H92528365H92519688H93723132H95985251
103H98053287H98953224H99053900H99251793H99841733I00645582I01705950
96I03374108I05673196I07881627I09105249I09105954I08333571I07350455
89I06528828I06216644I06655254I07571700I08161570I07467073I04535716
82H98588834H89931485H81038358H75792744H76472706H81834587H88577558
75H93618929H94440697H86732671H61380762H09986399G42763689F92130491
68F84189650G16429863G65351726H08721646H38739953H57429813H67885485
61H70192685H61976487H44270167H24750002H12350604H12005332H22307698
54H37096911H50805367H61539288H70052079H77174821H82805286H86734788
47H89077546H90178058H91005047H92956040H96482418I00525717I03556551
40I04860529I04990130I05122976I06281479I08853596I11960483I13384749
33I11858609I10654882I13682048I19424476I24565253I28135513I31558464
26I35435829I37353240I34811813I29612409I26820529I29026843I33410335
19I34568768I30292089I25077094I24543382I29159971I35706248I40145615
12I40099123I36599907I32336068I27793415I20080239I05682579H82928255
5H52607570H18956002G90542499G78778123G86504068
$$ === CHEMSPECTRA INTEGRALS AND MULTIPLETS ===
##$OBSERVEDINTEGRALS= (X Y Z)

##$OBSERVEDMULTIPLETS=
##$OBSERVEDMULTIPLETSPEAKS=
$$ === CHEMSPECTRA SIMULATION ===
##$CSSIMULATIONPEAKS=
##END=


$$ === CHEMSPECTRA PEAK TABLE EDIT ===
##TITLE=LSH-R335A
##JCAMP-DX=5.00
##DATA TYPE=INFRAREDPEAKTABLE
##DATA CLASS=PEAKTABLE
##$CSCATEGORY=EDIT_PEAK
##$CSTHRESHOLD=0.93
##MAXX=3997.453
##MAXY=0.9071562874571021
##MINX=373.96442
##MINY=0.41025465657237875
##$CSSOLVENTNAME=- - -
##$CSSOLVENTVALUE=0
##$CSSOLVENTX=0
##NPOINTS=38
##PEAKTABLE= (XY..XY)
375.380951892103, 0.657954692348321
451.8736740656759, 0.6860268703275532
468.8720567709147, 0.5780411356954045
484.45390758404983, 0.7399179925851768
630.3566924706797, 0.6012198325004393
670.0195854495696, 0.6520278443638219
705.4328827521499, 0.6862229096670632
733.7635205942138, 0.6400816435169296
767.7602860046909, 0.41025465657237875
848.5026038545734, 0.6100673074957228
866.9175184519154, 0.7361890664810125
930.6614535965596, 0.6882101289022517
951.9094319781075, 0.6909827584156383
1007.1541757701325, 0.6426994795182528
1014.2368352306485, 0.6590470663754674
1038.3178773964032, 0.6839116800409685
1058.149323885848, 0.6606185425394444
1104.8948763252538, 0.6334508056328209
1128.9759184910085, 0.6627513759357089
1162.9726839014852, 0.6405497186046036
1229.5496828303358, 0.685686229808268
1267.7960439171225, 0.6430100786788254
1304.625873111806, 0.6354863041144132
1320.207723924941, 0.6892056453578743
1385.3681909616885, 0.588857650333189
1399.5335098827209, 0.5907687540351504
1416.5318925879592, 0.6290595519700726
1434.9468071853007, 0.6456823934734963
1447.6955942142295, 0.7007523167483549
1493.0246147615321, 0.6473330249594581
1511.439529358874, 0.6511061775399677
1565.267741258796, 0.5480803246261036
1585.0991877482406, 0.5646414748079347
2851.4786992885065, 0.7510359278774016
2891.1415922673964, 0.7461576448021379
2922.305293893667, 0.7425745719530513
3066.791546888194, 0.7560319296870591
3085.2064614855353, 0.7631417505834253
##END=


$$ === CHEMSPECTRA PEAK TABLE AUTO ===
##TITLE=LSH-R335A
##JCAMP-DX=5.00
##DATA TYPE=INFRAREDPEAKTABLE
##DATA CLASS=PEAKTABLE
##$CSCATEGORY=AUTO_PEAK
##$CSTHRESHOLD=0.93
##MAXX=3997.453
##MAXY=0.9071562874571021
##MINX=373.96442
##MINY=0.41025465657237875
##NPOINTS=100
##PEAKTABLE= (XY..XY)
3555.4950496638, 0.7801794396116226
3471.919668029711, 0.7801784266303218
2528.5094278889756, 0.7801132790063924
3708.480494010946, 0.7800824629155256
3459.1708810007817, 0.7800736417831132
3296.269713408913, 0.7800475948994554
2456.266301391712, 0.7800348392767026
3368.512839906177, 0.7800098053743456
3301.935840977326, 0.7799366704900171
3517.248688577013, 0.7799234975088302
3309.018500437842, 0.7799233183995427
3437.922902619234, 0.7799230801503959
3443.5890301876466, 0.779717324976891
3549.828922095387, 0.7796810257762304
3939.3751924237686, 0.7796575413381819
3418.0914561297886, 0.7796398990733572
2571.005384652072, 0.779507457048613
3742.477259421423, 0.7794619784969651
3389.7608182877248, 0.779448389002199
3626.32164426896, 0.7793436632948496
3898.2957675527755, 0.7792950266747258
3878.4643210633308, 0.7792764888634633
3334.5160744956997, 0.779245792742025
3687.2325156293978, 0.7791481604383471
2592.25336303362, 0.779133855351286
3382.678158827209, 0.7787846910885942
2580.921107896794, 0.7786220302855601
2554.007001946833, 0.7786155333496104
3850.1336832212664, 0.7783157221441928
2607.8352138467553, 0.7768023002004737
2629.0831922283032, 0.775989233589595
2619.167468983581, 0.7759846434916737
2634.749319796716, 0.7758083931938736
2640.415447365129, 0.775681017765344
3017.2129306645816, 0.7745500194962195
2660.2468938545735, 0.7744675269964711
2651.7477025019543, 0.7743405689263758
3029.9617176935103, 0.7739739406632918
2993.1318884988273, 0.7733037458137372
2689.994063588741, 0.7726546512210544
2680.0783403440187, 0.772638856654399
2698.4932549413606, 0.7722671018103862
2723.990828999218, 0.7722229353187552
3042.7105047224395, 0.7721934904277644
2735.3230841360437, 0.7718765725956744
2714.075105754496, 0.7709929335460767
2749.4884030570756, 0.7704297894451893
2757.987594409695, 0.7700529088651027
417.87690865519926, 0.7693714487172447
2767.903317654417, 0.7689986817367861
2774.985977114933, 0.7681189171928144
2789.1512960359655, 0.767029999468005
497.2026946129786, 0.7656217805747838
3085.2064614855353, 0.7631417505834253
2833.063784691165, 0.757121740423741
553.8639702971068, 0.7560387240120146
3066.791546888194, 0.7560319296870591
562.363161649726, 0.7549597012304876
522.7002686708365, 0.7540498370327995
536.8655875918685, 0.7538001527719549
2851.4786992885065, 0.7510359278774016
577.9450124628615, 0.7484214298986972
2891.1415922673964, 0.7461576448021379
587.8607357075839, 0.7430757873280547
2922.305293893667, 0.7425745719530513
484.45390758404983, 0.7399179925851768
866.9175184519154, 0.7361890664810125
1215.3843639093038, 0.7055929894077965
983.0731336043782, 0.7031893723386708
1447.6955942142295, 0.7007523167483549
951.9094319781075, 0.6909827584156383
1320.207723924941, 0.6892056453578743
930.6614535965596, 0.6882101289022517
705.4328827521499, 0.6862229096670632
451.8736740656759, 0.6860268703275532
1229.5496828303358, 0.685686229808268
1038.3178773964032, 0.6839116800409685
1128.9759184910085, 0.6627513759357089
1058.149323885848, 0.6606185425394444
1014.2368352306485, 0.6590470663754674
375.380951892103, 0.657954692348321
670.0195854495696, 0.6520278443638219
1511.439529358874, 0.6511061775399677
1493.0246147615321, 0.6473330249594581
1434.9468071853007, 0.6456823934734963
1267.7960439171225, 0.6430100786788254
1007.1541757701325, 0.6426994795182528
1162.9726839014852, 0.6405497186046036
733.7635205942138, 0.6400816435169296
1304.625873111806, 0.6354863041144132
1104.8948763252538, 0.6334508056328209
1416.5318925879592, 0.6290595519700726
848.5026038545734, 0.6100673074957228
630.3566924706797, 0.6012198325004393
1399.5335098827209, 0.5907687540351504
1385.3681909616885, 0.588857650333189
468.8720567709147, 0.5780411356954045
1585.0991877482406, 0.5646414748079347
1565.267741258796, 0.5480803246261036
767.7602860046909, 0.41025465657237875
##END=

##END=

