##TITLE=SVS-1030-A
##JCAMP-DX=5.0
##DATA TYPE=LINK
##BLOCKS=1


$$ === CHEMSPECTRA SPECTRUM ORIG ===
##TITLE=SVS-1030-A
##JCAMP-DX=5.00
##DATA TYPE=INFRARED SPECTRUM
##DATA CLASS=XYDATA
##$CSCATEGORY=SPECTRUM
##ORIGIN=Angelika Moesle
##OWNER=
##XUNITS=1/CM
##YUNITS=TRANSMITTANCE
##XFACTOR=1.0
##YFACTOR=8.6652818e-10
##FIRSTX=3997.453
##LASTX=373.96442
##MAXX=3997.453
##MAXY=0.9304275476740721
##MINX=373.96442
##MINY=0.5316761113361264
##NPOINTS=2559
##XYDATA= (X++(Y..Y))
2559I95121348I94508262I93793511I93473658I93732292I94180637I94373305I94284365
2551I94070992I93763108I93465610I93446901I93712344I93883758I93765722I93618658
2543I93720874I94061844I94481161I94734704I94545750I93936654I93319647I93065278
2535I93194320I93504543I93746806I93781061I93750314I94031922I94920838I96321037
2527I97652038I98107743I97364238I96094733I95274052I95001799I94613711I93784707
2519I92996905I92793369I93135164I93672999I94182975I94605112I94866222I94890572
2511I94777007I94675549I94504479I94119142I93782437I94034123I94895181I95734159
2503I95973464I95637515I95145079I94779209I94586334I94574640I94801289I95242686
2495I95633388I95531654I94760017I93814835I93317102I93180425I93014446I92940570
2487I93405698I94419116I95241173I95093834I94510601I94614605I95197219I95091426
2479I94209595I93691365I93598023I93022769I92219078I92216464I92983217I93801215
2471I94402951I94782923I94581037I93956531I93806718I94238829I94526077I94387337
2463I94250660I94322335I94615843I95449455I96872491I97460677I95049605I91515333
2455I90436156I91613421I93477579I94971671I95756789I96106908I96474017I96785203
2447I96364923I95049880I93952681I93962586I94611922I95043827I95154847I95334927
2439I95555248I95601747I95661384I95644669I94772399I93354315I93301626I94565010
2431I94987973I93917257I93183521I93890980I95462731I96960399I97607053I97290845
2423I96886384I96828881I96439761I95499531I94953030I94978618I94873376I94565767
2415I94545819I94830041I95116808I95423386I95869116I96182022I96015079I95628091
2407I95584550I95891747I96067287I95908393I95654160I95495129I95460736I95411898
2399I94964448I94026694I93298599I93332717I93868831I94596445I95468990I96133803
2391I96055388I95485361I95336097I95900551I96749159I97080568I95937695I93909896
2383I93235523I94219500I94866841I93656628I92245698I92616796I94244813I95895667
2375I96758032I96551744I95542522I94309197I93477648I93549185I94495950I95562126
2367I95845867I95270819I94458874I93847921I93681666I94151471I95100712I96065017
2359I96464524I95624859I93537560I91851763I91995319I93419593I94951035I95793658
2351I95650172I95062055I95059028I95743995I96375928I96653960I96928208I97421676
2343I97657266I96685257I94436244I92697619I92880245I94607382I96850824I98709548
2335I99708039I99833436I98834738I96173286I93445112I93612192I96047615I97351583
2327I95678305I93444149I93111089I94224315I95388236I95967136I96339128I96979522
2319I97560141I97481175I97252119I97896778I99196963I99571294I97528843I94228030
2311I92211237I92054956I93079104I94445667I95388030I95546993I95187726I94822268
2303I94765520I95166678I96032413I96807214I96344631I94710836I93846889I94403981
2295I95479790I96074166I95426756I93490580I91706763I91561075I92607715I93467949
2287I93533639I93168113I92748726I92381481I92345987I92968153I94155186I95414237
2279I96204377I96406469I96373727I96373658I96365267I96387278I96698258I97330947
2271I97805086I97405992I96086823I94867942I94453578I94563153I94707740I94737456
2263I94705402I94539491I94178367I93921315I94244470I95225352I96315466I96633530
2255I95783134I94651474I94258914I94381422I94360992I94102771I93883276I93747838
2247I93628357I93725826I94231125I94951448I95597688I96070314I96186149I95691443
2239I94794823I94112814I93946215I94080897I94196801I94256369I94477171I94886170
2231I95120179I94935283I94641500I94626849I94696322I94474076I94143217I94069341
2223I94140259I94155736I94309128I94669358I94796474I94468091I94215236I94593556
2215I95375304I95887069I95798473I95238352I94504066I93922553I93629458I93430599
2207I93160890I92935136I92891320I92998281I93184828I93371099I93439059I93450409
2199I93694322I94259809I94789802I94846618I94382866I93822745I93692672I94144593
2191I94857831I95310851I95161244I94547195I94018027I93991889I94346135I94731265
2183I95056758I95404951I95748329I95987978I96062404I95999740I96001597I96273300
2175I96741524I97246410I97815748I98323936I98296766I97612005I96915414I96755350
2167I96834384I96470577I95366431I93805686I92340553I91279536I90438838I89547928
2159I88696362I88033407I87356488I86516685I85894863I85959177I86625297I87477069
2151I88305110I89041459I89506656I89632947I89644021I89717003I89766802I89815435
2143I90158124I90819292I91247894I90965117I90245207I89793286I90003976I90815508
2135I91943454I92947586I93380523I93206358I92927019I93042373I93479230I93769299
2127I93707529I93574567I93675957I93973592I94258571I94404121I94354458I94130010
2119I93861540I93650712I93479436I93350532I93335743I93411132I93422551I93256365
2111I92964095I92771770I92913950I93319923I93575186I93376052I92922548I92695349
2103I92910855I93329621I93593208I93585710I93376052I93020705I92694249I92783395
2095I93481706I94457636I95192885I95467615I95373447I95095416I94827702I94733604
2087I94832174I94939548I94845036I94616393I94547195I94696460I94801839I94778452
2079I94867736I95152921I95423798I95609863I95823580I95972432I95806796I95350404
2071I94913134I94748049I94956400I95540665I96276877I96685463I96404956I95568248
2063I94675205I94136614I94027795I94186001I94451858I94822750I95356595I95963559
2055I96418300I96588681I96488186I96144190I95626991I95163789I94981782I95050843
2047I95150444I95142396I95067558I95050705I95205748I95576296I96055043I96345869
2039I96155058I95541766I94959908I94792553I95012323I95384247I95712423I95764975
2031I95359828I94697629I94265793I94296471I94577392I94818898I94949866I95046509
2023I95142603I95136825I94898896I94567555I94637717I95489007I96829225I97891411
2015I98246759I98123288I97901593I97686638I97454417I97259961I97174598I97207890
2007I97309074I97370499I97343948I97356467I97542944I97819325I97980971I97940663
1999I97779498I97675769I97771244I98002501I98160226I98172814I98140829I98065990
1991I97837622I97547897I97515018I97883846I98452496I98988680I99459930I99843889
1983I99970732I99726061I99238234I98750200I98417622I98302544I98430898I98747793
1975I99065995I99153146I98899190I98422093I98031872I98029946I98447956I99019152
1967I99472036I99707902I99646064I99216704I98645784I98406685I98700881I99246557
1959I99660921I99832748I99855858I99819266I99771322I99798630A000000791
1952A000373196A000816519A001257916A001629014A001746431A001421626A000757432
1945A000229434A000322432A000954090A001379667A000971906I99987171I99231631
1938I99116896I99399674I99686441I99825250I99828207I99679287I99332539I98841204
1930I98381785I98108500I98070048I98269320I98674330I99130103I99374636I99191391
1922I98577411I97749301I96829294I95515558I93388158I90677593I88395356I87461936
1914I87889576I88945710I89910428I90529429I90878172I91016293I90838276I90060036
1906I88168295I84640558I79624025I74288672I70109329I67849447I67454412I68638624
1898I71099772I74263084I77334429I79763041I81434600I82363549I82480140I81851853
1890I80817868I79732087I78866008I78674303I79674858I81818148I84377728I86635890
1882I88363646I89636111I90622771I91601108I92749484I93868763I94619626I94964930
1874I94897933I93770399I90573865I85253162I79322126I74827813I72894113I73338812
1866I75320043I78070297I81131805I84196065I86940404I89045105I90223264I90122700
1858I88098891I83088962I74333589I63055986I53085310I48551033I50570440I56723655
1850I63681798I69629893I74264047I77677806I79932666I81142123I81309135I80149203
1842I77278643I72456912I65658214I57328211I48702843I41342167I35861882I31271820
1834I25944721I19200500I11649633I04066091H96459713H88554942H80866021H74860490
1826H72028037H72866465H76675948H82253014H88826026H96295315I04611285I13178116
1818I21074702I27668969I32736953I36094240I37509641I37039010I35155110I32471853
1810I29503618I26598528I23836030I21043542I18132880I15346514I12959654I10766494
1802I08068862I04333736H99942602H96286992H95002009H96895262I01455128I07291309
1794I13047012I18007346I22085231I25469688I28354624I30893706I33239776I35501308
1786I37694605I39837138I42020461I44278898I46470476I48373360I49790481I50544302
1778I50592177I50239926I50078280I50572366I51666814I52737461I52954824I51785744
1770I49158548I45209567I40169717I34666801I29862472I26870024I25978976I26631132
1762I28131896I30193331I32809315I35877496I39091640I42160440I44962490I47365239
1754I49084603I50051797I50750521I51745092I53015699I54170747I55113247I56105341
1746I57363567I58842044I60262122I61310483I61984306I62666179I63694798I64984665
1738I66218128I67289120I68376070I69603890I70807640I71736039I72379184I72969364
1730I73705920I74551295I75264531I75637626I75718380I75749471I75919440I76273067
1722I76758624I77198302I77347085I77165835I76911879I76826378I76886566I76994421
1714I77225885I77696516I78288828I78727061I78909756I78974690I79021395I78973795
1706I78816070I78783190I79155871I79933010I80797645I81372830I81518655I81433017
1698I81407292I81474151I81459087I81383285I81523539I82000292I82603335I83141032
1690I83695031I84387565I85056711I85337905I85056229I84434545I83857365I83524374
1682I83411153I83462055I83674120I83993905I84239469I84231215I84003535I83769939
1674I83640277I83494246I83195029I82800544I82507517I82471749I82700804I83080638
1666I83488881I83838243I84011170I83870022I83417206I82876414I82549683I82608219
1658I83009789I83576376I84125491I84570672I84933447I85254056I85513791I85710311
1650I85944595I86281575I86575084I86613397I86417014I86253167I86378150I86801801
1642I87255717I87440269I87350159I87234049I87245949I87358139I87574813I87910968
1634I88182809I88139678I87829045I87560643I87488831I87460079I87322645I87173174
1626I87195323I87402780I87640503I87769545I87793414I87844246I88022057I88240314
1618I88304284I88131220I87814804I87536912I87487799I87762598I88252833I88729998
1610I89045036I89174766I89148490I89033205I88939450I88972605I89174353I89489254
1602I89789021I89975774I90052539I90067947I90022961I89849346I89509476I89134664
1594I88964488I89082318I89384631I89868124I90652418I91619061I92341792I92518983
1586I92272112I91955285I91830990I91941322I92127524I92140594I91891108I91623464
1578I91680900I92102830I92663295I93216400I93710212I93975793I93880319I93596922
1570I93431424I93460795I93511559I93423651I93262762I93285599I93647273I94134275
1562I94323229I94061225I93681803I93647411I94036531I94484050I94619351I94467060
1554I94349092I94430466I94536327I94564047I94813601I95535369I96405369
1547I96944304I97189043I97409913I97495414I97162973I96515494I95938658
1540I95671151I95735122I96059583I96459709I96704586I96752392I96750603
1533I96768969I96801367I96989633I97432200I97814716I97683130I96987363
1526I95986052I94915817I94133656I94144318I95007302I96051398I96580084
1519I96664828I96896704I97447264I97796832I97549754I97111177I97136697
1512I97599486I97891000I97733068I97534759I97784795I98427114I99017776
1505I99259970I99179697I98989299I98959859I99181967I99369408I99196068
1498I98759693I98390245I98232245I98330746I98760656I99391213I99866040
1491I99956699I99698478I99288172I99049005I99238440I99705082A000006156
1484I99965298I99813969I99739062I99612152I99319538I99083534I99164702
1477I99391144I99332539I98903798I98459306I98291263I98342302I98440596
1470I98540267I98677425I98907994I99326761I99921756A000387159A000364529
1463I99942117I99604173I99582712I99595300I99383372I99134780I99097430
1456I99097911I98845743I98515848I98595982I99252885A000201989A001070819
1449A001568070A001499216A000950995A000306612I99876151I99688092I99676604
1442I99774830I99795535I99509043I98897126I98164353I97532558I97194614
1435I97387352I98239123I99492603A000583061A001126811A001247598A001359031
1428A001707636A002178886A002485808A002491310A002345003A002318659A002520751
1421A002776358A002797062A002487596A002053559A001772707A001733018A001885791
1414A002265694A002949354A003787919A004376998A004411322A003938765A003169055
1407A002218300A001257710A000686514A000782470A001306066A001768718A001905188
1400A001575843A000606448I99255293I98372017I98541230I99569437A000891564
1393A002005547A002621522A002770029A002729790A002607420A002151991A001236180
1386A000271049I99792095I99887707A000290653A000714373A000875056A000520604
1379I99723172I98976367I98797181I99218217I99836118A000422790A001154325
1372A002129842A003011398A003377405A003279112A003139958A003158187A003206818
1365A003300434A003658258A004243004A004704624A004855196A004843227A004862900
1358A004941040A004976396A004867852A004613690A004241078A003716175A003142435
1351A002886965A003226216A004057077A005102274A006053716A006524071A006382992
1344A006062520A006010931A006074695A005932447A005808633A006137153A006768329
1337A007119136A007009147A006748381A006437883A005871571A005228494A005150148
1330A005835389A006613080A006745974A006204287A005365310A004447022A003611140
1323A003206337A003525502A004489669A005703115A006616244A006746662A006099183
1316A005340478A005263163A006021455A006926811A007102696A006478192A005938706
1309A006280983A007388018A008526626A008878877A007855760A005782632A004114513
1302A004077162A005348732A006652563A007132205A006768467A006109570A005875905
1295A006426601A007589835A009070239A010593702A011624660A011549959A010435907
1288A009346963A009510260A010929994A012117990A011716626A010194401A009378948
1281A010393742A012345324A013198956A012130372A010612480A010533996A011885495
1274A013187812A013360051A012449881A011341814A011156712A012228804A013582298
1267A014011176A013467701A012943899A013531327A015882625A019591819A022698038
1260A023287668A021951233A020921306A021211719A021798529A021296669A019833256
1253A018756968A018672087A018813372A018637900A018827404A020053920A021698652
1246A022414366A021407964A019030872A016547850A015145794A014843275A014698000
1239A014094543A013310595A012864245A012800274A012688016A012205279A011683678
1232A011738294A012272345A012466389A011918443A011135457A010883977A011650661
1225A013462129A015608033A016922181A016842115A015839428A014634786A013547148
1218A012762442A012690630A013678804A015496394A017287639A018104468A017686114
1211A016792589A016386342A016480509A016411311A016119523A016156804A016487250
1204A016506235A016164783A015931669A015932632A016086299A016513595A017107146
1197A017445777A017480445A017545584A017762260A018151449A018890825A019749682
1190A019898602A018927144A017562162A016936695A017584587A019339926A021603247
1183A023427096A023975455A023280858A022144452A021231117A020611290A020036105
1176A019359048A018859596A019249473A020830303A022521740A022623681A020962027
1169A019567262A020632269A024083036A027680865A029326904A028713956A026962400
1162A025425799A024920982A025666205A027563999A030081001A031938830A031924317
1155A030299257A028528029A027538273A027200536A027276130A027865899A028964473
1148A030162580A031114023A032114509A033516909A034539682A033804295A031584791
1141A030063942A030765692A033020209A034931416A034972756A032891717A030159554
1134A029444597A032065602A035570778A035967671A032677175A028901672A027433375
1127A028304544A030077080A031662312A032854160A033905066A034831677A035228157
1120A034822253A033832910A032611278A031279589A029814319A028278956A026919409
1113A025999196A025660014A026126793A027669172A029962346A031956371A032992074
1106A033508724A034190251A035132132A035887742A035919865A035136810A034179108
1099A034007970A035059288A036887953A038644324A039718549A040022236A039827642
1092A039330667A038516245A037490033A036583852A035935066A035374533A034838899
1085A034547799A034629378A034888287A035128349A035334431A035263719A034085078
1078A030955816A026206722A021641835A019321629A019912222A022369449A025179822
1071A027496726A029371684A031161278A032776433A033810004A034200982A034340479
1064A034537068A034770114A035004122A035408238A036103454A036965337A037900683
1057A039013496A040171914A040838515A040821113A040513021A040345804A040436050
1050A040556288A040478629A040460057A041050031A042324628A043765067A044915506
1043A045767484A046541528A047345287A048029222A048421438A048744936A049332159
1036A050081234A050711516A051140807A051492164A051913475A052370074A052527318
1029A051986251A050862157A049805473A049366896A049744597A050726787A051872135
1022A052934597A053840779A054486194A054853921A055099830A055337278A055505802
1015A055519628A055482003A055665660A056277577A057331784A058683765A059999633
1008A060843495A061162385A061395155A061893713A062718177A063873293A065267783
1001A066605663A067707470A068591847A069293391A069916313A070615312A071387980
994A072081064A072557335A072829520A073093519A073484359A073741823A073357449
987A072220424A070614761A068872010A067543898A067151614A067787468A069143507
980A070508626A071193111A071124532A070627625A070081811A069811277A069855713
973A069772895A069105468A068043144A066858244A065451028A063674503A061064021
966A056516263A049511896A040960471A030196836A011644057I78417388I34609228
959H89339373H43051423G96428075G53600452G16734682F87432850F69240440
952F63360029F66998098F76352181F87953695F99768581G11523418G22977593
945G33822190G43885521G52897325G60765640G67797521G74345564G80693373
938G87038774G92998494G97917833H01716173H04537138H07202855H10883021
931H15771612H21396553H27307435H33114245H38020377H40732111H41537246
924H42705707H45188866H48800316H53270759H58375750H63704156H68686227
917H73079425H76871780H80053939H82969553H86064767H89319150H92382241
910H94991621H97107260H98801311I00315764I01839571I02988978I03402723
903I04726020I07963620I12285280I16978795I21353971I25090610I28449066
896I31446329I33844745I35350392I35163983I32289915I28564557I27734384
889I30163134I34488647I39680995I44842184I49295981I52851370I55508832
882I57423823I58920322I59905400I59631221I57621513I54888524I52304181
875I48977435I42761832I30834688I11046589H83888116H53156163H24662355
868H03469242G91266061G86811369G88639621G95934676H07416090H20979162
861H34784703H47765987H58249804H63128284H60717280H54608433H52121765
854H57569514H68507935H79635791H87760882H92138671H93840014H95143707
847H97146262H99788522I03092981I07170522I11733551I16278558I20372057
840I23834173I26724612I29037458I31005619I33403417I36119553I38529112
833I40344157I41737065I43067172I44555073I46129987I47550685I48743908
826I49893315I50913818I51548640I52491897I54258654I56425607I58445908
819I60073031I61534174I63030811I64302312I64948003I65060536I65254236
812I66015142I67509921I69472993I71279165I72599023I73632939I74787918
805I76301888I78196174I80352258I82606706I84599217I85491436I84991020
798I83171642I79544991I73596895I64604143I50066105I28346576I04102272
791H83550723H68448711H56654735H45833112H37970301H36357073H40573010
784H48371231H58486632H70383787H83102722H95436390I06381414I15107896
777I20720800I22289524I20078824I15184111I07652640H96948090H84680732
770H75094086H70175229H68088412H65178988H56599431H42556717H31900455
763H28837020H31860009H38728868H47434853H56700202H66007648H74823552
756H82271242H87512772H90353135H91185372H90156064H87162310H82653759
749H76696515H68344432H57734600H47973651H42849125H43336402H48625461
742H57599367H68734033H80949731H93789525I05711373I14923689I21750589
735I27165527I31371697I34272935I36206498I38049814I40713811I44441301
728I48570568I52337542I55575967I58388472I60776432I62639215I63905420
721I64768335I65582274I66225695I65376330I59380429I42806818I14457941
714H81952283H57441023H50167360H60081220H77989683H94009226I03976670
707I08829286I11675496I15088568I19669275I24246818I25974436I20124016
700I02152201H74864273H52841056H48906589H60650764H77338422H90688327
693H98534354I03052671I07147960I12277645I18311035I24450836I30121656
686I35088251I39217380I42449408I44803113I46333799I47180068I47539679
679I47639349I47911671I49010727I51300668I54348007I57184999I59053010
672I59708811I59119732I57122680I53388173I47588242I39717520I30491517
665I21543407I15028862I12480562I13857237I17956582I23461355I29355248
658I34735105I38520238I39437149I36763455I31606324I27098324I26415971
651I30327600I37043962I44197181I50357136I55043704I58257298I60258752
644I61446060I62247274I63075728I64211859I65587158I66719025I66897867
637I65501589I62431413I58605353I55819331I55487234I57428363I60236397
630I62599663I63824528I63232213I59360137I49948894I33570153I12387427
623H92972972H82675495H84045704H93092452I02878095I07939613I06044983
616H98472791H89867234H85977409H89641204H99106169I10410185I20601732
609I28737003I35057091I40054294I44129978I47587829I50564662I52944919
602I54586899I55667933I56599359I57644625I58817006I60051226I61266461
595I62327341I63137841I63744668I64240612I64640669I64869106I64613292
588I62907753I57550732I44791626I21005983H87458913H53928350H34380588
581H36415472H55724479H81366574I04602962I22344277I35064588I44023291
574I50170796I54159466I56681833I58613882I60357459I60766046I57451956
567I49302447I38509439I28602321I19973032I08882801H91849909H69730117
560H46641274H26556916H11923678H03344190G99071365G96792363G96980629
553H02295416H13113736H26246005H38599414H49753409H60610731H71543236
546H82284449H92396273I01462969I09260641I15876300I21617901I26785556
539I31476457I35661714I39421329I42908002I46147184I49130896I52009228
532I54955040I57938546I60817979I63538311I66054692I68037301I68736575
525I67304597I63554957I58602051I54560692I53225151I54887492I58436828
518I62473441I66229478I69670752I73080728I76648911I80347375I84073008
511I87711009I90945651I93188404I93868625I92619685I88899553I81164203
504I65974696I38566737H97310040H50096167H14046332H04101313H20373436
497H47894754H68245517H70705566H55519842H31261781H09234849G96531391
490G92151194G90338143G87784891G86494130G89795081G97318160H04286827
483H04303405G92880733G70748904G45143746G26468599G21864161G31368196
476G49625333G70373747G89536929H05551794H18247411H28061944H35985149
469H43030994H48799834H51395321H50346547H49075458H52414860H61652489
462H73675727H84737618H93387817I00052659I05624910I10897806I16384970
455I22172932I28067444I33876524I39448775I44495779I48418277I50147684
448I47983759I39485231I21557439H91731185H51682982H10299100G80581663
441G70738792G78680844G95759548H13813699H27842175H35535223H37836513
434H39040398H43653779H52727904H63879835H74212530H82310036H88038363
427H91668109H93481641H93837125H93382658H92972421H93144179H93826463
420H94780175H96082768H97900702H99996736I01874995I03467037I05346947
413I08027315I11187600I13694972I14349533I12989507I11234374I11544322
406I14928504I20074353I25006554I28770364I31334346I32927902I33846258
399I34164667I33246929I29726827I22385961I11839137I01660521H96811482
392H99856826I08856525I19244317I27028919I29691401I25603957I15239552
385I03238257H96534001H98399672I05222445I10027118I08019680H98715947
378H85529202H74773545H72652885H80759816H94878814I08901098I19317987
371I26028708I30422387I33713983I36472767I38755072I40349316I40895267
364I39940042I37362508I34112802I32163556I33063409I36538113I40909712
357I44685834I47393303I49311457I50936517I52541698I54046107I55365552
350I56652599I57997701I59251662I60331252I61363380I62451155I63536110
343I64505918I65330588I66088055I66833691I67472021I67846352I67789053
336I66710633I63228845I56138152I46560035I38506894I35970357I39446643
329I46000808I52011636I54695512I51213586I37223149I07810228H62372674
322H09033445G61335666G29688589G18140591G27507949G55788865G95015425
315H32965669H60332424H75074963H80928479H83738301H87993583H94675621
308I02190996I09254656I16030793I22926616I29667259I35681664I40656237
301I44623652I47811932I50449309I52637929I54357843I55616757I56632376
294I57675647I58725865I59553081I59919845I59325951I56606375I48981079
287I31130053H99270911H60589820H34586532H37446843H65988457I01953067
280I29699794I44790250I47880924I37168258I10728112H75703457H49903843
273H48347982H69203220H96971546I16382631I18126345H95450491H44933878
266G74366063G06186964F67044804F69815969G05622440G54134572G99680532
259H36814497H65737527H87679371I03963944I16199248I25853649I33759176
252I40377793I46349000I52233401I57962758I63155450I67589163I70522661
245I69459647I60826371I44138163I25953388I16743136I20952538I31138170
238I33043393I14641461H71903948H10873047G44573376F85000317F39199713
231F13570480F15171809F44196365F89588864G36322546G75288890H05065136
224H27687613H45431748H60079982H72801118H83984278H93337948I00378840
217I05033904I07884723I09983852I12450228I15912619I20186405I24757550
210I29358136I33389040I35567411I35941673I35255743I32405957I24512124
203I08663169H83986273H52950769H21735114G98473964G89640038G96857641
196H16390545H41740645H66935428H88402789I05067471I17379196I26141241
189I31301742I30650755I19202358H91805543H50315868H08585376G85380835
182G89513611H13595099H42683764H66127197H80807072H87845557H89740462
175H88362412H81833834H64376054H34017744H00735703G81651487G86674830
168H11118680H42099843H69503125H90069945I04581776I14495498I20766680
161I23837268I23394977I17588786I03367642H79932739H53236298H35216264
154H34988240H50786362H73127643H93631387I08761945I18775956I25730247
147I31317356I35650985I38327708I39874833I41389147I43458837I45992554
140I48612321I51013076I53210569I55384881I57456152I59038427I59889029
133I60385249I61357189I63166869I65178297I66500975I67121902I68003871
126I69872638I71838598I71625982I67249637I57094134I38166474I07722251
119H69395407H35427298H18750853H22537430H39477600H60151931H79382248
112H95513154I07868145I16657567I23339054I29414678I35137432I40029188
105I44055414I47410500I49493396I48364074I39986885I17926867H78529582
98H30411795G94608146G88607842H10766016H44024051H73320930H94305555
91I08455436I17407192I22333615I24896910I27061042I29973011I33314752
84I36204434I38507238I40845260I43639468I46534722I48763512I50140393
77I51310780I52640542I53626171I53983375I54482552I55709136I56471624
70I54432956I47764401I34868274I14972733H91976956H75015464H72001967
63H83365414I02623175I21641082I34782705I41220760I43919906I45250564
56I45421977I43888678I40481590I35902947I32274026I32365648I37127743
49I44284126I50215782I53201420I53616266I51898965I48006456I42496870
42I36996569I33756080I34658959I39458611I45280692I49221418I51517412
35I54311069I56802620I53473535I41295393I26726331I16053698I11144471
28I12869545I20614526I31165684I40558837I46438284I48713023I48732352
21I47933064I46550542I42353590I31905679I18375487I12294153I18333803
14I31662385I44612646I53295794I58541589I61628617I61910019I59568901
7I57232805I56643519I57868040I61175389I66386859I69809011I65697009
$$ === CHEMSPECTRA INTEGRALS AND MULTIPLETS ===
##$OBSERVEDINTEGRALS= (X Y Z)

##$OBSERVEDMULTIPLETS=
##$OBSERVEDMULTIPLETSPEAKS=
$$ === CHEMSPECTRA SIMULATION ===
##$CSSIMULATIONPEAKS=
##END=


$$ === CHEMSPECTRA PEAK TABLE EDIT ===
##TITLE=SVS-1030-A
##JCAMP-DX=5.00
##DATA TYPE=INFRAREDPEAKTABLE
##DATA CLASS=PEAKTABLE
##$CSCATEGORY=EDIT_PEAK
##$CSTHRESHOLD=0.93
##MAXX=3997.453
##MAXY=0.9304275476740721
##MINX=373.96442
##MINY=0.5316761113361264
##$CSSOLVENTNAME=- - -
##$CSSOLVENTVALUE=0
##$CSSOLVENTX=0
##NPOINTS=53
##PEAKTABLE= (XY..XY)
381.04707946051576, 0.8289585674278653
395.2123983815477, 0.7905285920237315
413.6273129788897, 0.7895323601726928
430.625695684128, 0.8091259565663343
446.20754649726314, 0.8078417150110526
463.20592920250147, 0.75561427742093
508.5349497498041, 0.6833509180619876
538.2821194839717, 0.7094706865235375
590.6937994917903, 0.7235408399286032
613.3583097654414, 0.6773230404244036
631.7732243627834, 0.6805546255594302
653.0212027443313, 0.6842453449832708
699.7667551837371, 0.5316761113361264
713.9320741047691, 0.7943837611655724
746.512307623143, 0.5780131199885767
759.2610946520717, 0.7351174328491328
774.8429454652069, 0.7231927486264718
824.4215616888191, 0.6222890593033543
841.4199443940574, 0.8110446899851602
883.9159011571537, 0.807745989643008
905.1638795387021, 0.7561783162107992
916.4961346755276, 0.7768719761946481
929.2449217044564, 0.7771124213005627
950.4929000860043, 0.7896102636556593
971.7408784675526, 0.7737857667593238
997.2384525254101, 0.6678668826871585
1031.2352179358872, 0.7357478113034064
1049.6501325332288, 0.625515637638557
1062.3989195621575, 0.6815193270495834
1079.3973022673963, 0.6967764472895003
1110.5610038936666, 0.8259964552262552
1158.7230882251756, 0.6904430361482893
1196.9694493119623, 0.7230142923469698
1242.298469859265, 0.7677243917418856
1253.6307249960905, 0.764863190212949
1269.2125758092257, 0.8279566138912541
1296.1266817591868, 0.8027655452735627
1311.708532572322, 0.7906901206752371
1359.870616903831, 0.735601481556178
1381.118595285379, 0.7366939751562047
1427.8641477247847, 0.7303525183008425
1453.3617217826427, 0.7182106344572236
1485.9419553010162, 0.7247269722968172
1583.6826558561374, 0.7383875221638376
1599.2645066692726, 0.6817942235828784
1633.2612720797497, 0.803907987290941
1721.0862493901482, 0.5748201586141172
2871.310145777951, 0.8023868767915436
2919.4722301094607, 0.7755444619551136
2959.13512308835, 0.7556368678105826
2997.381484175137, 0.8219462002626099
3018.6294625566848, 0.8430401650706043
3063.9584831039874, 0.8383265108633301
##END=


$$ === CHEMSPECTRA PEAK TABLE AUTO ===
##TITLE=SVS-1030-A
##JCAMP-DX=5.00
##DATA TYPE=INFRAREDPEAKTABLE
##DATA CLASS=PEAKTABLE
##$CSCATEGORY=AUTO_PEAK
##$CSTHRESHOLD=0.93
##MAXX=3997.453
##MAXY=0.9304275476740721
##MINX=373.96442
##MINY=0.5316761113361264
##NPOINTS=100
##PEAKTABLE= (XY..XY)
3993.2034043236904, 0.8608729207446824
3981.871149186865, 0.8608497350501702
3674.483728600469, 0.8608481848312561
2596.5029587099298, 0.8608363237935283
3368.512839906177, 0.8607534135107378
3818.969981594996, 0.8607238501688207
3767.9748334792807, 0.8607212271880198
2590.836831141517, 0.8606901734176331
3748.1433869898356, 0.8606665700565381
3813.3038540265834, 0.8606215088581217
3665.98453724785, 0.860558744488988
3964.872766481626, 0.860519047966534
3896.8792356606723, 0.8604109849702626
3391.177350179828, 0.8603992426468954
3496.000710195465, 0.8603683084573975
3939.3751924237686, 0.8602834311556384
3361.430180445661, 0.8602647150134786
3687.2325156293978, 0.8602004610824033
3352.9309890930413, 0.8601984940634347
3343.015265848319, 0.8601975408824368
3606.4901977795153, 0.8598957620454136
3742.477259421423, 0.8598088588007696
3877.0477891712276, 0.8597835267159555
3644.7365588663015, 0.85964357548266
3709.8970259030493, 0.8594675030221813
2616.3344051993745, 0.8594495026322981
2609.2517457388585, 0.8592696755052155
3616.4059210242376, 0.8592156136785934
3850.1336832212664, 0.8582408396648761
3401.0930734245503, 0.8576837746937994
2630.4997241204064, 0.8569655978712718
2647.4981068256448, 0.8569439017387009
2658.8303619624703, 0.8556860052396758
3085.2064614855353, 0.8556635942213564
2694.2436592650506, 0.8554661237140008
2677.2452765598123, 0.8554133738110433
2702.7428506176702, 0.854616161819746
3425.1741155903046, 0.8543056813067393
2755.1545306254884, 0.8521534766007915
2723.990828999218, 0.8514069885695669
2736.739616028147, 0.8513394565623867
2777.8190408991395, 0.8504170745754885
2773.56944522283, 0.8503962718334712
2787.7347641438623, 0.8481432162452942
3045.543568506646, 0.8480488625913585
2804.7331468491006, 0.846447583504332
3018.6294625566848, 0.8430401650706043
3063.9584831039874, 0.8383265108633301
381.04707946051576, 0.8289585674278653
1269.2125758092257, 0.8279566138912541
1110.5610038936666, 0.8259964552262552
2888.3085284831895, 0.8232696028259303
2997.381484175137, 0.8219462002626099
841.4199443940574, 0.8110446899851602
430.625695684128, 0.8091259565663343
446.20754649726314, 0.8078417150110526
883.9159011571537, 0.807745989643008
1633.2612720797497, 0.803907987290941
1296.1266817591868, 0.8027655452735627
2871.310145777951, 0.8023868767915436
713.9320741047691, 0.7943837611655724
1311.708532572322, 0.7906901206752371
395.2123983815477, 0.7905285920237315
950.4929000860043, 0.7896102636556593
413.6273129788897, 0.7895323601726928
929.2449217044564, 0.7771124213005627
916.4961346755276, 0.7768719761946481
2919.4722301094607, 0.7755444619551136
971.7408784675526, 0.7737857667593238
1242.298469859265, 0.7677243917418856
1253.6307249960905, 0.764863190212949
905.1638795387021, 0.7561783162107992
2959.13512308835, 0.7556368678105826
463.20592920250147, 0.75561427742093
1583.6826558561374, 0.7383875221638376
1381.118595285379, 0.7366939751562047
1031.2352179358872, 0.7357478113034064
1359.870616903831, 0.735601481556178
759.2610946520717, 0.7351174328491328
1427.8641477247847, 0.7303525183008425
1485.9419553010162, 0.7247269722968172
590.6937994917903, 0.7235408399286032
774.8429454652069, 0.7231927486264718
1196.9694493119623, 0.7230142923469698
1453.3617217826427, 0.7182106344572236
538.2821194839717, 0.7094706865235375
1079.3973022673963, 0.6967764472895003
1158.7230882251756, 0.6904430361482893
653.0212027443313, 0.6842453449832708
508.5349497498041, 0.6833509180619876
1599.2645066692726, 0.6817942235828784
1062.3989195621575, 0.6815193270495834
631.7732243627834, 0.6805546255594302
613.3583097654414, 0.6773230404244036
997.2384525254101, 0.6678668826871585
1049.6501325332288, 0.625515637638557
824.4215616888191, 0.6222890593033543
746.512307623143, 0.5780131199885767
1721.0862493901482, 0.5748201586141172
699.7667551837371, 0.5316761113361264
##END=

##END=

