##TITLE=JPK-212, X 1204
##JCAMP-DX=4.24
##DATA TYPE=INFRARED SPECTRUM
##DATE=13/5/2019
##SAMPLING PROCEDURE=Diamant-ATR
##ORIGIN=Angelika Moesle
##XUNITS=1/CM
##YUNITS=TRANSMITTANCE
##RESOLUTION=4
##FIRSTX=3997.453
##LASTX=373.96442
##DELTAX=-1.4165319
##MAXY=0.95108652
##MINY=0.55964458
##XFACTOR=1
##YFACTOR=8.8576835e-010
##NPOINTS=2559
##FIRSTY=0.90271032
##XYDATA=(X++(Y..Y))
3997+1019126863+1018766450+1018498159+1018556030+1019015092+1019636798
3989+1020043642+1020069549+1019902061+1019906839+1020275058+1020787213
3980+1020987270+1020627867+1019860475+1019040125+1018484701+1018364518
3972+1018671569+1019246709+1019840355+1020198547+1020181590+1019852198
3963+1019454573+1019302292+1019549050+1020014370+1020325795+1020245853
3955+1019828982+1019366017+1019228945+1019617822+1020315432+1020817763
3946+1020886871+1020799796+1020893870+1021037739+1020742733+1019803815
3938+1018575208+1017693623+1017660111+1018493449+1019656447+1020495168
3929+1020823819+1020849928+1020781022+1020737821+1020686343+1020412534
3921+1019888266+1019499860+1019655640+1020265704+1020821262+1020923680
3912+1020525853+1019788473+1018840538+1017702505+1016490115+1015584035
3904+1015425564+1016085895+1017192503+1018229397+1018787849+1018754943
3895+1018329460+1017904716+1017933988+1018410277+1018579784+1018111435
3887+1017767576+1018170719+1018589541+1018286999+1018089431+1018844778
3878+1019733698+1019825214+1019605306+1019765594+1020087516+1020217658
3870+1020414216+1020695696+1020654312+1020439451+1020565891+1020994942
3861+1021267001+1021285573+1021155499+1020869174+1020720123+1021629904
3853+1023776434+1025098913+1024639245+1023389777+1022109355+1021060753
3844+1020437836+1020353856+1020623762+1021059609+1021801901+1022825942
3836+1023553161+1023615002+1023290993+1022980645+1022687793+1022140108
3827+1021300647+1020468655+1019936582+1019933284+1020691995+1021743761
3819+1021991595+1021471500+1021198700+1021524929+1021790730+1021565640
3810+1021036864+1020659696+1020891784+1021511134+1021735821+1021773302
3802+1022738598+1024544701+1025543777+1025210886+1024336837+1023492599
3793+1022800842+1022418492+1022535512+1023112200+1023892512+1024553785
3785+1024804177+1024600956+1024331589+1024510584+1025161898+1025678764
3776+1025612885+1025124820+1024475458+1023769907+1023152104+1022723323
3768+1022366880+1022097108+1022147308+1022425222+1022519631+1022360285
3759+1022384308+1022933205+1023695684+1024108450+1024031267+1023949239
3751+1024447599+1025036265+1024845292+1024392622+1024879139+1026333711
3742+1027159378+1026768818+1025986555+1025410944+1025024892+1024693886
3734+1024647522+1025069238+1025650434+1026056134+1026289703+1026449991
3725+1026397302+1025954188+1025401792+1025235851+1025487925+1025735288
3717+1025645993+1025265729+1025076303+1025781854+1027302372+1028267735
3708+1028024544+1027405328+1027044309+1026846270+1026661286+1026545007
3700+1026441512+1026242195+1026092606+1026169049+1026330010+1026252356
3691+1025891135+1025715236+1026243675+1027211259+1027908601+1028007115
3683+1027521540+1026556312+1025224277+1023818222+1023214348+1024537433
3674+1027018335+1028311744+1028249701+1028429638+1029399914+1029884143
3666+1029141448+1027827716+1026922983+1026879311+1027436820+1028106707
3657+1028557560+1028489057+1027764866+1026911409+1026910197+1028342227
3649+1030275443+1030936447+1030346368+1029544994+1028921270+1028470955
3640+1028223794+1028140958+1028062900+1027954897+1027896017+1027786938
3632+1027541997+1027640242+1028840857+1030602883+1031363142+1030903138
3623+1029901505+1028856334+1028109197+1027993994+1028481587+1029105379
3615+1029550445+1029743235+1029591829+1029084115+1028485288+1028160742
3606+1028235839+1028558165+1028967634+1029443855+1030023235+1030583840
3598+1030798365+1030504772+1029969873+1029509263+1029066014+1028597665
3589+1028536901+1029362904+1030662638+1031401297+1031323306+1030986176
3581+1030934832+1031229771+1031486151+1031376331+1031016793+1030769632
3572+1030852804+1031254399+1031850265+1032498417+1033089370+1033520439
3564+1033674537+1033535041+1033228260+1032883391+1032548818+1032302060
3555+1032282680+1032533946+1032907010+1033159017+1033196094+1033213994
3547+1033489889+1033965034+1034236218+1034114084+1033816320+1033572994
3538+1033389019+1033196229+1033052629+1033115479+1033436258+1033847072
3530+1034110383+1034181847+1034252638+1034504644+1034958054+1035543019
3521+1036136193+1036519418+1036518879+1036239620+1035977654+1035842802
3513+1035718178+1035620202+1035766830+1036214049+1036752717+1037261239
3504+1037818076+1038415691+1038862843+1039069966+1039187928+1039346466
3496+1039415306+1039066198+1037903603+1035369676+1030601672+1022408870
3488+1009298273+989787989+963505493+932905509+904183361+885041296+879762146
3478+886844034+901354495+918249295+934106998+947418393+958104411+966817780
3468+974247026+980649809+985955606+990174646+993503958+996193127+998563334
3458+1001003457+1003659383+1006198357+1008150550+1009459234+1010488793
3449+1011533695+1012571060+1013522494+1014487521+1015528318+1016454450
3441+1017118415+1017758492+1018700774+1019785243+1020451092+1020435615
3432+1020119480+1020106829+1020608419+1021325679+1021844294+1021992941
3424+1021788510+1021303877+1020811707+1020834182+1021662069+1022945250
3415+1023990084+1024324658+1023921313+1023160515+1022668278+1022877151
3407+1023626845+1024378962+1024782778+1024824162+1024620269+1024390132
3398+1024476333+1025040168+1025786699+1026219720+1026114005+1025653193
3390+1025239687+1025228315+1025703123+1026410693+1026961204+1027173441
3381+1027203252+1027314013+1027546640+1027715811+1027752350+1027840636
3373+1028092441+1028313493+1028304947+1028160136+1028068485+1028057988
3364+1028068889+1028066265+1028040559+1028093047+1028406961+1028921404
3356+1029269167+1029273137+1029176439+1029158876+1029046028+1028694767
3347+1028249095+1027869572+1027541593+1027205943+1026855960+1026598167
3339+1026657585+1027047876+1027287972+1026901920+1026100143+1025484628
3330+1025236053+1025027651+1024558630+1023834036+1023053589+1022383837
3322+1021716104+1020674298+1019031242+1017054017+1015248991+1013793140
3313+1012365014+1010565169+1008336409+1005808672+1002891924+999370158+995359520
3303+991327685+987664338+984513415+982013336+980424921+979970838+980664882
3293+982292595+984546388+987264223+990493002+994210249+998108309+1001782893
3284+1005040406+1007941408+1010594979+1012933425+1014683003+1015602944
3275+1015717003+1015239570+1014353207+1013131464+1011620097+1009902954
3267+1008059437+1006036387+1003681993+1001001101+998235288+995607287+993188361
3257+991124061+989783279+989514786+990287426+991668382+993242934+994973805
3247+996920211+998710836+999724582+999843823+999622972+999637709+999964476
3237+1000284447+1000250600+999775522+999117210+998661646+998570332+998739772
3227+999092043+999610725+1000017973+999786625+998656734+996892890+994988071
3217+993347842+992255500+991872409+992166944+992924511+993917464+995134161
3207+996757298+998768438+1000717872+1002094049+1002788430+1003046694+1003129799
3197+1003133097+1002990035+1002544296+1001674016+1000420309+999006044+997685988
3187+996545465+995478155+994338910+993062190+991697384+990358957+989099059
3177+987881824+986733293+985773515+985060899+984497938+983831080+982722655
3167+981006790+978895790+976783914+974898879+973166729+971269447+968924608
3157+966252532+963685161+961459832+959502660+957709343+955986076+954148750
3148+952095822+949922308+947695903+945317217+942703818+939983225+937450374
3138+935333183+933589392+931955959+930178119+928147734+925905246+923613433
3128+921478073+919604275+917939485+916383437+914913926+913590909+912442176
3118+911383345+910289859+909144626+908082699+907270289+906713183+906197731
3108+905513848+904773642+904413767+904785350+905768075+906905771+907957873
3098+909149134+910763187+912709794+914689105+916590426+918513010+920557526
3088+922726263+924925348+927050681+929144253+931352422+933628960+935608809
3078+936889298+937393109+937461679+937572845+937880770+938133652+938182169
3068+938355377+939097265+940436433+942031577+943542539+944799678+945835227
3058+946890828+948213239+949748696+951153338+952136264+952729708+953251620
3048+954068067+955341155+956922773+958479292+959745515+960706572+961543005
3038+962398481+963253890+964019936+964627982+964988058+964957441+964354105
3029+963011304+961014834+958974086+957792515+958001724+959455018+961625235
3019+963953048+966014589+967665047+969042503+970327097+971562434+972728326
3009+973818245+974829770+975805631+976910557+978321592+979951525+981378508
2999+982201415+982412912+982313590+982182035+982173893+982395484+982903602
2989+983686336+984718520+985951232+987239729+988385904+989308605+990106076
2979+990845676+991359177+991441542+991204003+990926359+990574828+989758919
2969+988116065+985396145+981179258+974895716+966385365+956438611+946671929
2959+938667542+932962034+928599932+923577365+915873233+904250114+888315093
2949+868520906+847116637+829139253+820981240+826295650+842888715+864012580
2939+882745109+895145580+900235371+898411301+890290299+876644062+859052998
2929+840144165+822639571+808035305+796202102+786105422+777010780+769353886
2919+764597457+764246868+769070926+779023467+793361999+810600186+828623598
2910+845265987+859110330+869914983+878336173+885305886+891589966+897590682
2900+903320550+908640680+913518099+917915327+921541327+923941345+924802743
2890+924107016+922199909+919957690+918816023+920242804+924783699+931528591
2880+938634502+944387855+947778806+948347015+945877351+940428829+932718977
2870+924377393+917455188+913344891+912023085+912183373+912071670+910466499
2860+907005094+901561080+893802307+884046324+874322574+867645713+865803744
2850+868092933+872302821+876790488+881612258+887845196+896061887+905594934
2840+915126163+923656836+930831923+936662459+941279056+944937962+948027851
2830+950910685+953769361+956599438+959260007+961526384+963249785+964527785
2820+965621540+966700491+967776953+968847829+969947237+971060170+972112070
2810+973082413+974054707+975112933+976252648+977433344+978606033+979623412
2800+980285829+980618787+980933442+981470226+982140853+982755089+983327201
2791+984013440+984841865+985634289+986208420+986576437+986871375+987134754
2781+987287506+987274788+987098147+986736254+986168651+985521778+985115607
2771+985260754+985948944+986816802+987467443+987746232+987707808+987484333
2761+987237037+987086439+987050640+987120556+987327611+987653975+987984914
2751+988264443+988614359+989207331+990062404+991028911+991937547+992710726
2741+993335124+993797214+994083001+994196589+994152311+993977892+993722453
2731+993438887+993196705+993133115+993410692+994043972+994789359+995311070
2721+995523442+995702706+996153492+996842422+997505781+998007102+998404930
2711+998773619+999138676+999513960+999901424+1000303222+1000751248+1001252839
2701+1001714996+1001963302+1001882148+1001612242+1001516352+1001800187
2693+1002270218+1002622018+1002792871+1002893270+1002982902+1003056452
2684+1003128184+1003265190+1003548352+1003981238+1004462843+1004883886
2676+1005166106+1005240531+1005098007+1004795599+1004334182+1003669073
2667+1002908814+1002324724+1002104210+1002191083+1002402782+1002659499
2659+1003026036+1003518946+1004012192+1004427044+1004825477+1005228755
2650+1005595224+1005992714+1006517453+1007078731+1007537323+1007929228
2642+1008316423+1008584983+1008625426+1008580004+1008723469+1009151577
2633+1009679614+1010045881+1010169765+1010203074+1010361276+1010716844
2625+1011137416+1011449715+1011668480+1011972032+1012405792+1012771656
2616+1012923062+1013019692+1013294914+1013685743+1013916822+1013912852
2608+1013901211+1014105978+1014533414+1015034533+1015411096+1015511630
2599+1015419508+1015482896+1015939334+1016557945+1016863381+1016701881
2591+1016352033+1016100363+1015998954+1016105410+1016623083+1017601299
2582+1018717529+1019538956+1019886180+1019897216+1019913837+1020306617
2574+1021175552+1022234181+1023176867+1024005360+1024731636+1025034919
2565+1024614549+1023652752+1022543789+1021438527+1020410179+1019760816
2557+1019768891+1020307425+1020991644+1021557969+1021886890+1021834604
2548+1021368746+1020814870+1020592808+1020682844+1020711375+1020571342
2540+1020557951+1020878056+1021377157+1021742079+1021782184+1021596325
2531+1021509116+1021731985+1022178868+1022677295+1023134002+1023463394
2523+1023619510+1023699183+1023854627+1024162754+1024554727+1024776318
2514+1024626325+1024342019+1024424720+1024968031+1025487656+1025488127
2506+1024949863+1024276544+1023907922+1023919698+1024022384+1024035170
2497+1024175876+1024670065+1025273198+1025497615+1025230670+1024906796
2489+1025076236+1025887098+1026902863+1027419728+1027145381+1026523406
2480+1026130087+1025925791+1025536913+1025061634+1024984383+1025433688
2472+1026105930+1026786045+1027429284+1027865938+1027865130+1027456604
2463+1026990409+1026884290+1027260786+1027785054+1028007250+1027864794
2455+1027672879+1027721867+1028085779+1028672964+1029263514+1029642702
2446+1029808575+1029949887+1030233857+1030642720+1030925748+1030793386
2438+1030329949+1030009373+1030108022+1030368776+1030499591+1030720643
2429+1031442883+1032559719+1033433835+1033582886+1033065213+1032223800
2421+1031410381+1030915789+1030800115+1030830934+1030792645+1030699245
2412+1030635049+1030683364+1030966257+1031413813+1031596644+1031127353
2404+1030134400+1029136603+1028550427+1028441145+1028673503+1029111907
2395+1029539948+1029584696+1029091585+1028474993+1028318540+1028676060
2387+1029058073+1029026312+1028611864+1028239204+1028321434+1028847989
2378+1029392310+1029660668+1029929161+1030655371+1031729410+1032500435
2370+1032610928+1032422041+1032501848+1033000007+1033636046+1034066711
2361+1034143895+1033912143+1033519228+1033199190+1033153768+1033255109
2353+1033043343+1032182012+1030763979+1029179669+1027973066+1027720723
2344+1028560251+1029811940+1030598509+1030670982+1030391723+1030244624
2336+1030397375+1030633165+1030627916+1030172958+1029255305+1028127231
2327+1027225996+1026942565+1027480223+1028739179+1030171814+1031028098
2319+1030992636+1030451074+1030090392+1030312992+1030945935+1031511924
2310+1031813659+1032014726+1032136860+1031885391+1031154337+1030414602
2302+1030375438+1031288651+1032662339+1033690687+1033943568+1033611014
2293+1033192864+1033050745+1033184857+1033340435+1033318901+1033174292
2285+1033159824+1033541703+1034349403+1035248147+1035813059+1035932703
2276+1035739173+1035290676+1034610763+1033928697+1033630393+1033942828
2268+1034655848+1035217934+1035281524+1035063365+1034978645+1035128840
2259+1035354603+1035481582+1035291079+1034571801+1033472797+1032617388
2251+1032576407+1033293398+1034171821+1034687610+1034756247+1034574627
2242+1034378136+1034405793+1034854896+1035656607+1036361619+1036541826
2234+1036328310+1036188411+1036132223+1035765619+1035156766+1034836660
2225+1034903211+1034947085+1034787807+1034597708+1034554238+1034862231
2217+1035652435+1036606291+1037275841+1037736182+1038204800+1038260786
2208+1037252895+1035337107+1033523737+1032777542+1033332696+1034809205
2200+1036805474+1039094191+1041150349+1042163489+1042010805+1041423821
2191+1040789330+1039779622+1038447991+1037602541+1037850914+1039019565
2183+1040324211+1040767999+1040075906+1039321905+1039755128+1041243884
2174+1042674096+1043383550+1043334360+1042429088+1040582341+1038172769
2166+1035969310+1034711296+1034830806+1036333088+1038660901+1040801106
2157+1041929180+1042069886+1041955020+1042405873+1043808361+1045855166
2149+1047733270+1048691366+1048655903+1048186344+1047564571+1046432661
2140+1044832470+1043785549+1044024165+1044952383+1045699319+1046273786
2132+1046925033+1047356102+1047146556+1046283476+1045111528+1044114807
2123+1043632798+1043570688+1043512212+1043121787+1042381446+1041652208
2115+1041505446+1042170285+1043204219+1043982848+1044283035+1044184790
2106+1043829289+1043464367+1043338801+1043502791+1043960575+1044774196
2098+1045753488+1046448744+1046666364+1046557487+1046202591+1045643870
2089+1045174512+1045078151+1045255060+1045443813+1045558141+1045610494
2081+1045614262+1045646226+1045789489+1046086514+1046626326+1047406368
2072+1048071679+1048181768+1047783402+1047389478+1047349305+1047480524
2064+1047416462+1047156448+1047074218+1047432545+1048156264+1048917802
2055+1049111197+1048157408+1046447600+1045515142+1046457222+1048446291
2047+1049712245+1049796157+1049426391+1048710746+1047171858+1045325043
2038+1044776551+1046648666+1050530172+1054608439+1056688754+1056064828
2030+1054337456+1053283133+1052555443+1050860170+1048510217+1047246417
2021+1048079216+1050342631+1052490776+1053462061+1053560038+1053770525
2013+1054210948+1053992318+1052670579+1051088355+1050328635+1050266188
2004+1050026630+1049658950+1050150581+1051817795+1053725238+1054827472
1996+1054994355+1054936081+1055441978+1056426923+1056852811+1056046255
1987+1054549020+1053434135+1053390531+1054266194+1055056802+1054928275
1979+1054404074+1054596730+1055393865+1055847813+1055838863+1055915777
1970+1056245774+1056562044+1056603630+1056288841+1055784962+1055443728
1962+1055515662+1055940944+1056380492+1056408216+1055734965+1054461743
1953+1053190338+1052633502+1053013631+1054040701+1055281690+1056294090
1945+1056793594+1056982616+1057183144+1057022251+1055810802+1053567574
1936+1050950206+1048614250+1047148104+1047162639+1048812289+1051371854
1928+1053625243+1054729025+1054686900+1054063782+1053356346+1052698707
1919+1052173497+1052113204+1052715530+1053483998+1053582580+1052691103
1911+1051180612+1049527597+1048007887+1047094001+1047349642+1048671986
1902+1050300036+1051655555+1052632896+1053226474+1053470675+1053572756
1894+1053703234+1053909078+1054367804+1055253091+1056172225+1056288774
1885+1055235730+1053581504+1052381630+1052312521+1053270483+1054698811
1877+1056010120+1056805034+1057079583+1057240140+1057725648+1058621163
1868+1059557995+1059982738+1059715120+1059132174+1058809512+1059033727
1860+1059599446+1060085829+1060222565+1059997475+1059629122+1059467488
1851+1059734971+1060276129+1060690106+1060776172+1060702622+1060643877
1843+1060483185+1060209174+1060208299+1060815605+1061800617+1062496815
1834+1062568884+1062304361+1062042597+1061681309+1060889491+1059617144
1826+1058125158+1056849379+1056284265+1056630614+1057679015+1059010511
1817+1060183132+1060931279+1061311341+1061605135+1062041453+1062569893
1809+1062943495+1063028148+1062851441+1062350388+1061285568+1059523541
1800+1057403793+1055667068+1054917912+1055294273+1056570052+1058311017
1792+1059942969+1061056777+1061738103+1062304832+1062972431+1063790089
1783+1064676856+1065503935+1066159556+1066570774+1066698695+1066547962
1775+1066276710+1066240777+1066607044+1066956825+1066925669+1066735436
1766+1066687323+1066784357+1066912076+1066986366+1066891754+1066561959
1758+1066084930+1065602248+1065222253+1065041912+1065174140+1065599826
1749+1065956807+1065835884+1065337389+1064967488+1065121451+1065735620
1741+1066367958+1066616330+1066521449+1066495206+1066895994+1067539435
1732+1067707663+1067355325+1067106078+1067297320+1067765668+1068113498
1724+1068007110+1067415551+1066696003+1066363449+1066809255+1067908663
1715+1068946230+1069519822+1069793295+1070013338+1070317563+1070736990
1707+1071186497+1071443349+1071280705+1070576096+1069224413+1067427192
1698+1066008083+1065613688+1066243267+1067343078+1068306019+1069073209
1690+1069794573+1070416279+1070921907+1071624968+1072692749+1073522520
1681+1073741823+1073674330+1073492104+1073121732+1072518397+1071810962
1673+1071187574+1070645676+1069862403+1068419876+1066446958+1064471011
1664+1062787177+1061397609+1060015173+1058101807+1055181291+1051017766
1656+1044728034+1031853899+1005337969+972071426+942739550+912427170+875778627
1646+841280651+824138017+825434252+838773034+858643260+880784102+904592022
1636+931829249+958112217+976182127+987338513+996094679+1004657787+1012931271
1626+1020115173+1026241993+1031809890+1036501787+1039658766+1041482970
1618+1042577533+1042921393+1041746618+1038063824+1030125518+1015351611
1609+992852779+966630306+944394113+932405668+932139329+940724238+953513047
1599+966885206+979379683+990896010+1001417501+1010423521+1017047894+1020107973
1589+1017958751+1009617638+997055534+985728228+981457441+985966642+995730161
1579+1005965461+1014702181+1022048860+1027002319+1028065726+1025481936
1571+1020263483+1014717725+1012694405+1015902257+1022780453+1030472540
1562+1036794572+1042036712+1048597629+1056360977+1061199031+1063254247
1554+1064449276+1065362960+1066084257+1066641497+1066943030+1066955479
1545+1066708991+1066135735+1065004094+1062413171+1057248148+1051141112
1537+1046558227+1044098791+1044055456+1046107509+1048364330+1049181450
1528+1047344797+1040368960+1025542700+1001481697+967852050+931167169+907135370
1519+903288721+913168386+926855199+938260025+947199090+955498280+963800027
1509+972968421+985028397+997739955+1006008192+1010473989+1012941365+1013145998
1499+1009287102+998674230+980065584+955102875+923596947+881388514+827899946
1489+777385055+750271576+751702798+774760822+810946535+850215005+879255374
1479+886226097+868377710+836401952+811746698+809295270+814585321+800622209
1469+764982028+723002251+691887016+682270730+687030323+690219467+686279350
1459+680241355+681633278+694144779+709269948+722352148+735287922+749279229
1449+763684648+777231563+788556581+797296059+804888555+813077118+822308093
1439+832572799+844608550+857960319+869295431+876544942+880316157+881122780
1429+879548967+877817289+878766098+883694727+891511908+900157246+909328129
1419+920087630+931260166+939824619+945090108+947549880+946421739+940523912
1409+930689265+920487543+914520271+915832993+923537125+933951420+944733262
1400+955466653+965638497+974690410+982899631+990229017+995652238+998235961
1390+996709319+987709961+966827672+933571156+893422918+855105614+827766305
1380+816835682+820737645+833820518+851373562+869997348+885973215+896805323
1370+902667082+904976525+905188830+904788042+905351070+908089361+912930780
1360+918704454+924632630+930710058+936945823+942955825+948174951+952031761
1350+953930860+953573946+951411804+948470697+945885426+944934463+947124935
1340+953241796+961914992+970343449+976864395+981433216+984123730+984291286
1330+980891385+973388455+962696919+951200307+941267617+933018962+922960773
1320+905494535+878344315+847816737+826036174+821377721+832573809+851240190
1310+868804001+881093306+888370204+893430724+899265768+906929458+915277031
1300+922666710+928364345+932268192+933961783+932458626+926615911+915387793
1290+897548019+871693968+837823485+799856163+765942075+744794590+740615252
1281+750875382+768697189+787396274+803318174+815665416+824763895+830774233
1271+833877110+835216883+836774007+839485920+841383405+838368747+828026925
1261+813178862+801084838+798361350+806654215+822883367+842518410+862311856
1251+880657459+896394778+908077181+914419469+914982698+910276535+901270785
1241+888714198+873098273+855749929+839788732+829176330+826359375+830786682
1231+839422330+848372094+854369176+855587286+851669375+843025182+830143107
1221+813890873+796278882+780025706+766979911+757522500+751707980+750263972
1211+753983575+762546211+774480352+788177999+802546610+816803517+830214368
1201+842248369+852740655+861781599+869555109+876269450+882153483+887470652
1191+892471013+897315056+902025795+906448930+910367244+913840156+917239250
1181+920736858+923992419+926577689+928461447+929846170+930634557+930338071
1171+928801672+927022957+926849883+929516106+934531271+940188531+945104778
1162+949061650+952489477+955748201+959060488+962548608+966018829+968067046
1152+964086487+946965992+915157656+880654700+862256071+867898662+888308431
1142+909109701+923480600+932066586+937002146+939350079+939518308+937810787
1132+934833140+931553422+928663119+925789235+921565149+915239078+908549500
1122+905051555+906982955+913472745+921951671+930343925+937773306+944145471
1112+949583159+954131927+957831006+960852863+963408055+965605928+967467883
1102+968992775+970223805+971291787+972322760+973304408+974120182+974676010
1092+974938850+974910991+974604210+973941254+972531431+969496249+963874923
1082+955844293+947637494+942525900+942359623+946312861+952067425+957657999
1072+962119154+965207361+967085129+968122629+968777038+969568722+970912533
1062+972816208+974918730+976906520+978752122+980591467+982561828+984675520
1052+986661830+988029327+988367466+987318662+984186782+978193132+969775038
1043+961481029+956781461+957460903+962282403+968258759+972741111+974026243
1033+970636974+960966249+944232680+922094598+898854954+878971808+864414310
1023+855497721+853467201+859942187+873908731+891374297+908264453+922463893
1013+933489666+941714096+948056316+953546020+958788563+963846795+968465277
1003+972221352+974484363+974306714+970208799+959806885+939946349+908517402
993+867771549+826185696+795440766+783484487+789793533+807376724+828673932
983+849217005+867348554+882719135+895487084+905989195+914558627+921470873
973+926833666+930632605+933272853+935885444+939513598+944074815+948614700
963+952412159+955424596+957950179+960285193+962578486+964819762+966894560
953+968533982+969225132+967788459+961422687+946880734+925930413+908729370
943+906652756+920740492+941075567+957635659+967702865+973157847+975060378
933+971526164+958961973+936447462+910011541+890011981+882594646+885674307
924+893803317+903947975+915358252+926859170+936734931+944249840+949770027
914+953749442+956204033+956746806+954712383+949635915+942140387+934367080
904+929103743+928054872+930808034+935420729+939853621+942943376+944563014
894+945305643+945967252+947067199+948652114+950417237+952021263+953336407
884+954379963+955104356+955421097+955317199+954776983+953746414+952303214
874+950647979+948829158+946743257+944488792+942439901+940864205+939658880
864+938462034+936822949+934440764+931593124+929167132+927889335+927651190
854+927807575+927852661+927639885+927290912+927054853+927060371+927229003
844+927567278+928346109+929828001+931972446+934502335+937108332+939509627
834+941507578+943169273+944820068+946623277+948324136+949662092+950790906
824+951971602+953130563+954111538+955126966+956532415+958292154+960058017
815+961687412+963255572+964593394+965356412+965626116+965876709+966229586
805+966343577+966187932+966330254+967213319+968574693+969815951+970635023
795+971010846+970744842+969461662+967302010+965393489+965143771+966884668
785+969560109+971943169+973724508+975208621+976526323+977522304+978059761
775+978180952+978050138+977723707+977023405+975686458+973392896+969475793
765+962352184+948491355+922456088+880560896+825765326+767444693+715957239
755+679067724+662300846+667778438+690330161+717562947+737826290+749168400
745+758300389+770464936+784254638+797368196+811347660+826959480+840150962
735+847133393+850061311+853957150+860161086+865249868+864489677+854360697
725+833837071+806576897+781648238+768886413+771467578+783953172+798229324
715+809454549+816435096+819551229+819750479+818238507+815878932+812783189
705+808921937+805242642+803803413+806817397+815708685+830073729+846455768
696+858924404+862447516+856084570+842899818+827498956+813726749+803650190
686+797699337+795364660+795843506+798412761+802600712+808033084+814191868
676+820665037+827325142+833872601+840035826+846704544+855580018+865562572
666+873348934+879256788+885281459+891926693+898460761+904465783+910131589
656+915588523+920897348+926195541+931458204+936422228+940809564+944597871
646+948152812+951887151+955790863+959605751+963306781+967031296+970852038
636+974899821+979224508+983422419+987060061+990378539+993883078+997358480
626+999664626+999064722+993322809+980181258+959333624+934994438+915590138
616+908601045+914690922+925668514+925138325+895390184+835222939+771160729
606+738805919+750273393+787664162+826821264+857041925+878843349+894808584
596+906723748+916043010+923746872+930241238+935644339+940191155+944320428
586+948123002+951182744+953363660+955114853+956797409+958378624+959805472
577+961232051+962760442+963920210+963768602+962103273+960411835+960871099
567+964128410+968569242+972068533+974071800+975528996+977205967+978996458
557+980639917+982118243+983483452+984842201+986160037+986969486+986770438
547+985674395+984246739+982373681+977875315+967212445+949938458+932354728
537+923790814+928299274+941591558+956008147+966511537+972260381+974909982
527+976382252+977509720+978124495+978163188+978125908+978401668+978737318
517+978773521+978787854+979218048+979754900+979666815+978927888+978333569
507+978368090+978771973+979380826+980249357+980840244+980532924+979893453
497+979903748+980122244+977963466+969258912+951192300+927576497+909079757
487+904150926+910324178+916784763+916046845+910332589+905582889+903892931
477+903534604+902419517+897736974+883606642+856052943+822472082+798228248
467+792822523+802929095+817931793+829828990+836242741+837872944+836473147
458+833767223+830159929+824604347+815921460+803795001+789162002+773583155
448+758033983+742500422+726351750+709131866+691538447+675460162+662455549
438+652449578+644173267+637160016+632691662+631818219+633809238+637334907
428+641813423+646989347+652261835+657270338+663007541+671672729+684047898
418+696135328+703714029+707935356+711504294+716162343+722643116+730013079
408+736411756+741276592+745011672+746753915+745334806+742544363+743670149
398+753636755+770211314+785403303+795399248+801656613+806969879+813896930
388+824246760+837831156+850818340+857454287+856596792+852900338+851380762
378+855325859+866184950+880679262+890690952
##END=
