##TITLE=TB-028_neu
##JCAMP-DX=5.0
##DATA TYPE=LINK
##BLOCKS=1


$$ === CHEMSPECTRA SPECTRUM ORIG ===
##TITLE=TB-028_neu
##JCAMP-DX=5.00
##DATA TYPE=INFRARED SPECTRUM
##DATA CLASS=XYDATA
##$CSCATEGORY=SPECTRUM
##ORIGIN=
##OWNER=
##XUNITS=1/CM
##YUNITS=TRANSMITTANCE
##XFACTOR=0.12501352010900002
##YFACTOR=0.0031999987211313165
##FIRSTX=4000.433
##LASTX=249.7859
##MAXX=4000.433
##MAXY=102.39995907620212
##MINX=249.7859
##MINY=64.75837411953445
##NPOINTS=3890
##XYDATA= (X++(Y..Y))
3890C1098C1082C1054C1034C1047C1047C1018C1053C1105C1077C0983C0983C1058C1088
3876C1067C1059C1030C1058C1053C1030C1021C1036C1117C1165C1080C1045C1112
3863C1106C1020C1033C1093C1117C1101C1075C1075C1066C1046C1053C1047C1038
3850C1078C1098C1094C1102C1098C1124C1118C1120C1143C1121C1109C1077C1058
3837C1093C1075C1116C1138C1077C1025C1023C1098C1138C1112C1103C1088C1065
3824C1066C1075C1075C1039C1002C1085C1103C1074C1082C1089C1112C1049C1067
3811C1080C1067C1061C1053C1071C1132C1086C1061C1152C1156C1120C1091C1067
3798C1061C1073C1095C1129C1135C1077C1068C1103C1262C1151C1131C1319C1039
3785C1212C1286C1179C1108C1103C1115C1149C1002C1154C1334C1154C1073C1065
3772C0906C1190C1313C1173C1181C1050C1026C1287C1265C1165C1163C1138C1046
3759C1197C1248C1075C0931C0989C1310C1296C1204C1049C1086C1406C1303C1059
3746C1172C1223C1117C1040C1053C1160C0914C0536C1417C1344C1339C1400C1179
3733C1163C1183C1185C1143C1027C1054C1358C1202C1003C1123C1065C0893C1421
3720C1351C1066C1252C1240C0997C1139C1299C1158C1130C1079C1142C1270C1227
3707C1192C1027C0887C1251C1435C1298C1201C0954C1064C1488C1298C1188C1209
3694C1202C1142C1118C1056C0975C1332C1311C1128C1035C0884C0916C1413C1322
3681C1179C1074C1031C1262C1282C1216C1225C1205C1234C1186C1157C1153C1155
3668C1148C1145C1223C1236C1195C1176C1061C1183C1326C1235C1152C1139C1136
3655C1143C1179C1177C1109C1165C1247C1178C1089C1099C1232C1187C1150C1160
3642C1121C1078C1235C1252C1145C1170C1234C1170C1002C0985C1379C1145C1085
3629C1416C1284C1177C0879C0960C1779C1409C1167C1190C1237C1205C1204C1132
3616C1139C1172C1322C1167C1160C1349C1262C1209C1178C1146C1242C1273C1231
3603C1169C1103C1209C1218C1154C1191C1234C1204C1157C1165C1153C1061C1241
3590C1261C1092C1250C1374C1252C1206C1213C1206C1142C1131C1262C1247C1179
3577C1190C1178C1180C1180C1171C1216C1174C1108C1313C1271C1109C1372C1317
3564C1208C1169C1178C1187C1198C1186C1169C1192C1209C1095C0951C1259C1474
3551C1315C1157C0976C1271C1402C1346C1336C1236C1205C1180C1185C1211C1207
3538C1183C1192C1205C1169C1046C1220C1348C1276C1209C1068C1147C1282C1317
3525C1414C1372C1359C1289C1247C1225C1221C1223C1263C1279C1292C1296C1268
3512C1202C1236C1299C1310C1223C1110C1041C1434C1657C1425C1215C1273C1251
3499C1234C1209C1208C1170C1256C1262C1221C1237C1183C1220C1229C1220C1301
3486C1218C1147C1321C1284C1273C1294C1251C1243C1222C1205C1178C1236C1258
3473C1262C1245C1211C1246C1275C1223C1242C1243C1227C1179C1279C1265C1239
3460C1344C1308C1245C1251C1273C1260C1257C1303C1272C1255C1256C1223C1235
3447C1254C1247C1251C1258C1193C1216C1301C1329C1397C1317C1300C1252C1209
3434C1200C1191C1195C1240C1254C1229C1166C1173C1231C1349C1335C1260C1273
3421C1268C1259C1276C1278C1325C1343C1361C1269C1220C1215C1199C1195C1294
3408C1348C1268C1226C1269C1245C1264C1252C1250C1272C1237C1255C1311C1293
3395C1304C1322C1285C1226C1202C1211C1236C1261C1264C1257C1273C1247C1239
3382C1220C1308C1390C1346C1329C1278C1242C1294C1382C1342C1253C1246C1275
3369C1246C1167C1145C1216C1232C1184C1200C1251C1308C1280C1232C1283C1313
3356C1248C1181C1195C1256C1318C1300C1258C1239C1216C1213C1239C1239C1248
3343C1260C1241C1212C1234C1260C1287C1297C1287C1289C1308C1290C1279C1322
3330C1338C1315C1242C1214C1265C1307C1333C1280C1234C1243C1266C1291C1264
3317C1207C1216C1230C1254C1269C1263C1262C1240C1251C1306C1336C1329C1273
3304C1269C1298C1301C1280C1244C1239C1226C1247C1271C1259C1287C1303C1293
3291C1303C1272C1280C1335C1272C1232C1272C1306C1310C1307C1317C1266C1263
3278C1292C1317C1270C1241C1262C1262C1262C1311C1284C1240C1286C1282C1251
3265C1243C1242C1296C1357C1329C1263C1263C1269C1301C1326C1279C1273C1269
3252C1259C1312C1307C1244C1255C1301C1283C1237C1268C1263C1229C1249C1277
3239C1276C1244C1279C1325C1347C1289C1250C1238C1256C1250C1243C1280C1305
3226C1331C1321C1258C1253C1278C1298C1326C1329C1312C1331C1308C1297C1322
3213C1294C1331C1347C1299C1291C1294C1296C1331C1346C1376C1371C1310C1304
3200C1312C1276C1264C1311C1325C1303C1329C1318C1286C1293C1294C1279C1268
3187C1261C1283C1273C1251C1280C1301C1289C1259C1299C1331C1282C1250C1260
3174C1306C1344C1317C1273C1287C1393C1423C1390C1339C1314C1333C1328C1294
3161C1296C1258C1231C1263C1273C1255C1273C1308C1272C1266C1282C1278C1273
3148C1273C1261C1229C1229C1242C1245C1276C1277C1261C1275C1260C1248C1266
3135C1287C1334C1312C1289C1293C1256C1228C1257C1300C1300C1324C1304C1247
3122C1231C1218C1176C1183C1208C1207C1191C1198C1220C1239C1250C1245C1246
3109C1263C1273C1229C1218C1243C1252C1241C1223C1262C1261C1240C1262C1296
3096C1292C1312C1329C1304C1256C1272C1311C1303C1294C1291C1264C1270C1263
3083C1247C1253C1277C1232C1221C1253C1292C1298C1273C1259C1273C1287C1301
3070C1308C1272C1245C1265C1279C1303C1268C1254C1265C1240C1223C1221C1276
3057C1273C1271C1287C1258C1273C1275C1221C1235C1255C1246C1267C1304C1318
3044C1294C1301C1333C1339C1310C1250C1251C1329C1343C1297C1263C1271C1305
3031C1314C1315C1305C1311C1327C1278C1284C1321C1267C1225C1222C1233C1254
3018C1291C1322C1364C1331C1324C1331C1285C1325C1382C1362C1301C1283C1297
3005C1275C1280C1304C1264C1241C1297C1263C1258C1308C1314C1299C1290C1244
2992C1228C1243C1249C1270C1293C1285C1287C1291C1264C1303C1327C1314C1305
2979C1299C1318C1339C1336C1317C1304C1327C1331C1305C1264C1265C1298C1327
2966C1297C1271C1273C1303C1321C1298C1287C1286C1255C1259C1252C1243C1202
2953C1148C1165C1181C1158C1101C1045C1052C1082C1118C1127C1160C1214C1246
2940C1244C1246C1242C1222C1246C1260C1278C1297C1319C1326C1286C1267C1276
2927C1292C1296C1275C1280C1299C1312C1315C1280C1285C1293C1273C1248C1254
2914C1291C1328C1373C1381C1346C1349C1333C1301C1308C1341C1321C1286C1313
2901C1333C1297C1285C1312C1318C1312C1329C1331C1303C1286C1299C1307C1311
2888C1303C1301C1299C1290C1261C1271C1279C1276C1280C1268C1280C1263C1192
2875C1212C1223C1193C1184C1166C1135C1096C1100C1125C1110C1134C1152C1167
2862C1199C1173C1158C1167C1215C1226C1187C1209C1245C1235C1239C1255C1268
2849C1270C1266C1248C1273C1336C1336C1300C1303C1287C1273C1317C1340C1329
2836C1306C1307C1332C1331C1280C1256C1263C1271C1290C1292C1267C1245C1236
2823C1243C1212C1181C1155C1123C1113C1077C0993C0941C0905C0872C0842C0747
2810C0678C0648C0592C0517C0438C0349C0277C0171C0079C0017B9944B9873B9803
2797B9682B9606B9655B9745B9810B9894B9992C0061C0093C0151C0208C0208C0270
2784C0349C0387C0418C0449C0425C0421C0473C0494C0476C0483C0469C0435C0444
2771C0479C0513C0500C0517C0562C0612C0649C0657C0676C0702C0715C0728C0717
2758C0699C0731C0715C0684C0685C0696C0665C0623C0595C0556C0516C0469C0441
2745C0409C0366C0338C0341C0336C0326C0347C0399C0425C0420C0422C0437C0464
2732C0507C0535C0538C0548C0563C0562C0550C0533C0512C0499C0503C0520C0549
2719C0554C0540C0573C0584C0578C0595C0635C0637C0643C0647C0679C0722C0743
2706C0771C0768C0799C0834C0853C0893C0937C0951C0980C1017C1037C1035C1016
2693C1011C1033C1038C1043C1050C1077C1087C1046C1017C1040C1049C1051C1053
2680C1067C1075C1056C1068C1101C1128C1138C1106C1082C1086C1096C1121C1128
2667C1147C1163C1146C1158C1165C1188C1229C1246C1251C1233C1220C1225C1211
2654C1185C1171C1160C1163C1145C1124C1110C1103C1110C1095C1091C1106C1112
2641C1085C1064C1089C1130C1149C1146C1128C1092C1110C1116C1126C1155C1158
2628C1152C1170C1195C1223C1212C1195C1226C1233C1211C1199C1218C1241C1236
2615C1226C1215C1201C1219C1225C1236C1260C1272C1267C1261C1268C1266C1267
2602C1267C1298C1322C1346C1328C1299C1311C1322C1320C1287C1271C1271C1293
2589C1287C1277C1276C1287C1287C1262C1264C1280C1244C1232C1251C1231C1225
2576C1243C1254C1267C1272C1276C1282C1284C1296C1305C1300C1292C1290C1314
2563C1331C1322C1301C1280C1269C1287C1290C1272C1290C1301C1290C1265C1255
2550C1255C1248C1223C1234C1259C1275C1285C1277C1268C1272C1264C1252C1259
2537C1271C1286C1297C1303C1292C1291C1285C1284C1303C1315C1299C1293C1301
2524C1280C1258C1248C1231C1223C1227C1250C1276C1282C1276C1262C1264C1275
2511C1269C1261C1276C1282C1273C1280C1259C1223C1250C1294C1313C1277C1246
2498C1248C1266C1285C1269C1259C1220C1194C1193C1195C1204C1188C1172C1198
2485C1223C1214C1207C1229C1229C1222C1248C1268C1260C1243C1240C1238C1252
2472C1294C1293C1280C1291C1299C1293C1277C1280C1315C1293C1275C1279C1266
2459C1251C1241C1215C1231C1240C1242C1223C1211C1239C1277C1280C1298C1284
2446C1255C1283C1344C1333C1282C1247C1238C1263C1313C1322C1328C1287C1247
2433C1279C1303C1271C1239C1201C1181C1201C1213C1227C1267C1260C1260C1272
2420C1259C1200C1206C1250C1272C1249C1230C1247C1292C1266C1270C1291C1267
2407C1308C1284C1242C1260C1310C1317C1311C1279C1275C1285C1255C1190C1174
2394C1228C1241C1231C1259C1285C1256C1229C1245C1256C1212C1192C1254C1292
2381C1308C1326C1314C1256C1303C1318C1234C1265C1315C1329C1321C1262C1242
2368C1279C1264C1225C1234C1215C1235C1237C1226C1277C1313C1259C1237C1266
2355C1240C1222C1276C1290C1233C1230C1308C1331C1336C1322C1284C1279C1304
2342C1286C1301C1345C1294C1278C1262C1259C1256C1278C1294C1294C1207C1176
2329C1269C1306C1267C1294C1303C1249C1246C1273C1264C1266C1290C1258C1191
2316C1197C1222C1251C1308C1368C1336C1359C1395C1352C1286C1273C1304C1304
2303C1272C1247C1222C1287C1273C1176C1188C1249C1280C1272C1234C1206C1188
2290C1216C1257C1278C1267C1251C1250C1271C1314C1301C1278C1294C1307C1310
2277C1314C1294C1318C1315C1286C1261C1195C1204C1268C1272C1252C1257C1280
2264C1314C1280C1277C1236C1159C1143C1220C1276C1254C1273C1327C1327C1283
2251C1246C1307C1389C1358C1331C1286C1301C1333C1319C1287C1238C1213C1236
2238C1242C1190C1194C1232C1229C1223C1227C1218C1239C1230C1221C1220C1256
2225C1292C1292C1270C1235C1272C1333C1313C1345C1360C1312C1279C1287C1285
2212C1325C1344C1325C1287C1235C1237C1255C1209C1200C1209C1239C1240C1250
2199C1279C1342C1313C1287C1331C1280C1272C1322C1275C1240C1276C1321C1257
2186C1253C1342C1389C1403C1366C1262C1269C1280C1257C1160C1152C1192C1236
2173C1213C1251C1297C1269C1276C1236C1213C1201C1184C1200C1177C1259C1308
2160C1308C1260C1244C1256C1317C1268C1225C1157C1143C1213C1343C1218C1222
2147C1149C1162C1108C1213C1131C1198C1164C1220C1150C1215C1138C1128C1118
2134C1153C1158C1107C1153C1148C1163C1160C1216C1223C1213C1243C1230C1246
2121C1239C1147C1136C1110C1079C1117C1195C1205C1134C1109C1149C1132C1067
2108C1075C1068C1140C1188C1152C1118C1132C1142C1129C1099C1103C1064C1107
2095C1242C1319C1241C1198C1301C1301C1232C1248C1195C1200C1238C1285C1324
2082C1378C1370C1345C1282C1265C1233C1220C1178C1137C1118C1181C1214C1233
2069C1223C1227C1215C1235C1254C1209C1202C1152C1158C1072C1042C1171C1072
2056C1063C1177C1209C1301C1376C1338C1322C1241C1229C1174C1167C1227C1289
2043C1268C1234C1160C1054C1089C1123C0976C1100C1209C1202C1132C1156C1211
2030C1221C1194C1298C1201C1073C1098C1278C1207C1110C1238C1273C1133C1178
2017C1223C1416C1464C1333C1133C1082C1318C1315C1079C1091C1304C1286C1162
2004C1130C1223C1251C1204C1037C1092C1263C1440C1396C1177C1307C1173C1226
1991C1322C1213C0816C0948C1294C1259C1113C1232C1243C1122C1674C1789C1223
1978C0981C1205C1414C1286C1315C1312C1019C1101C1516C1513C1565C1690C1772
1965C1635C1546C1321C1335C1661C1685C1553C1465C1348C1322C1336C1345C1285
1952C1213C1272C1322C1289C1265C1378C1379C1253C1253C1216C1149C1128C1270
1939C1327C1308C1256C1280C1223C1162C1211C1263C1245C1294C1359C1321C1249
1926C1325C1301C1195C1197C1267C1269C1165C1066C1173C1246C1239C1253C1328
1913C1301C1271C1216C1183C1135C1235C1327C1361C1379C1419C1428C1301C1192
1900C1374C1444C1381C1343C1294C1241C1216C1276C1431C1381C1177C1334C1397
1887C1169C1147C1296C1357C1195C1188C1177C1198C1206C1286C1386C1234C1120
1874C1202C1364C1393C1321C1209C1286C1362C1276C1253C1321C1450C1531C1404
1861C1221C1322C1349C1227C1273C1304C1256C1110C1118C1041C0986C1256C1506
1848C1372C1317C1636C1591C1021C0877C1403C1745C1471C1616C1866C1647C1221
1835C1329C1724C1859C1700C1520C1741C1937C1585C1384C1484C1410C1465C1423
1822C1356C1484C1752C1629C1386C1236C1373C1375C1237C1272C1513C1582C1405
1809C1267C1291C1523C1711C1543C1279C1236C1279C1275C1277C1265C1200C1220
1796C1204C1149C1181C1214C1246C1167C1242C1392C1378C1362C1409C1283C1315
1783C1552C1693C1612C1527C1470C1583C1547C1597C1661C1497C1435C1488C1326
1770C1172C1312C1455C1551C1552C1405C1385C1287C1329C1344C1268C1188C1308
1757C1386C1419C1383C1358C1461C1444C1397C1352C1287C1276C1260C1232C1181
1744C1150C1200C1419C1424C1412C1329C1361C1329C1259C1266C1280C1233C1242
1731C1265C1283C1246C1236C1225C1219C1204C1180C1174C1226C1262C1293C1278
1718C1294C1315C1308C1307C1379C1421C1402C1362C1391C1381C1336C1336C1303
1705C1300C1341C1284C1216C1286C1305C1277C1265C1276C1308C1269C1273C1291
1692C1265C1226C1225C1268C1324C1346C1352C1329C1358C1358C1355C1329C1349
1679C1357C1384C1386C1383C1373C1315C1315C1389C1329C1335C1347C1290C1273
1666C1271C1223C1216C1202C1264C1325C1301C1289C1327C1320C1280C1263C1339
1653C1345C1346C1336C1315C1320C1296C1308C1343C1345C1342C1347C1356C1322
1640C1265C1310C1346C1317C1258C1256C1332C1304C1268C1255C1251C1250C1255
1627C1292C1313C1312C1301C1292C1306C1322C1315C1336C1339C1334C1357C1353
1614C1307C1314C1320C1315C1328C1301C1315C1338C1320C1297C1287C1280C1256
1601C1253C1278C1267C1289C1261C1245C1239C1248C1270C1322C1324C1324C1318
1588C1333C1336C1362C1349C1307C1334C1331C1252C1293C1360C1386C1326C1269
1575C1335C1313C1264C1270C1265C1208C1235C1322C1273C1264C1252C1245C1306
1562C1294C1279C1286C1262C1287C1332C1299C1342C1355C1354C1348C1329C1319
1549C1344C1326C1257C1283C1325C1294C1291C1241C1143C1284C1393C1343C1269
1536C1262C1308C1269C1243C1247C1286C1297C1304C1294C1282C1283C1253C1249
1523C1342C1377C1313C1335C1354C1339C1339C1336C1344C1335C1307C1286C1315
1510C1299C1327C1326C1267C1144C1290C1379C1307C1264C1193C1361C1372C1322
1497C1321C1326C1329C1345C1344C1344C1335C1283C1284C1393C1400C1376C1340
1484C1345C1356C1341C1313C1260C1352C1376C1293C1255C1266C1235C1213C1298
1471C1264C1240C1216C1223C1199C1256C1283C1283C1297C1304C1287C1287C1272
1458C1234C1154C1218C1406C1334C1276C1250C1248C1254C1245C1325C1291C1275
1445C1265C1268C1269C1279C1252C1266C1223C1238C1367C1329C1313C1318C1313
1432C1311C1292C1296C1318C1306C1286C1250C1300C1308C1251C1232C1218C1199
1419C1144C1272C1273C1209C1193C1185C1183C1153C1118C1096C1043C1045C1016
1406C0969C0921C0890C0859C0827C0773C0763C0697C0569C0392C0209B9989B9832
1393B9780B9821B9881B9935B9938B9982C0046C0173C0346C0565C0709C0807C0849
1380C0883C0882C0828C0721C0870C0794C0664C0577C0543C0365C0301C0302C0241
1367C0154B9951B9735B9585B9344B9175B8802B8331B7928B7600B7244B6832B6343
1354B5825B5436B5101B4781B4506B4410B4402B4414B4435B4468B4674B4826B4799
1341B4898B4903B4737B4814B4786B4619B4543B4460B4354B4385B4375B4343B4371
1328B4504B4646B4864B5060B5278B5650B5822B6056B6333B6714B7108B7328B7492
1315B7889B8191B8421B8651B8784B9050B9279B9389B9600B9722B9883C0191C0428
1302C0495C0590C0649C0722C0769C0797C0928C0983C0925C1139C1185C1165C1186
1289C1190C1170C1256C1296C1245C1256C1277C1232C1231C1202C1132C1061C1007
1276C0928C0797C0613C0489C0421C0242C0113C0149C0305C0410C0437C0535C0578
1263C0569C0457C0354C0132B9708B9146B8576B8127B7923B7891B8022B8325B8221
1250B7955B7652B7535B7830B8306B8786B9111B9343B9320B9200B9130B9148B9261
1237B9456B9699B9980C0298C0387C0616C1040C1113C1181C1092C1095C1260C1123
1224C0933C0661C0371C0107B9825B9504B9192B8935B8821B8838B9210B9914C0188
1211C0590C0917C1137C1254C1296C1194C0931C0656C0625C0700C0679C0456C0151
1198B9985C0067C0252C0389C0368C0319C0238C0029B9746B9369B8810B8114B7416
1185B6766B6313B6173B6323B6793B7484B8026B8591B9123B9483B9753B9927C0154
1172C0335C0538C0698C0879C0939C1019C1123C1159C1181C1211C1214C1252C1225
1159C1207C1205C1229C1181C1165C1125C1094C1013C0767C0646C0464C0205B9913
1146B9615B9530B9542B9660B9954C0252C0177C0319C0424C0421C0329C0439C0199
1133B9900B9622B9425B9401B9517B9711B9961C0159C0300C0449C0588C0691C0778
1120C0861C0922C0979C1024C1052C1089C1118C1144C1162C1183C1211C1241C1244
1107C1262C1289C1271C1230C1219C1209C1134C1020C0916C0821C0706C0591C0506
1094C0480C0479C0513C0594C0684C0746C0811C0890C0947C0990C1030C1079C1117
1081C1151C1139C1137C1165C1198C1185C1167C1174C1173C1150C1115C1078C1066
1068C1018C0948C0838C0670C0493C0358C0326C0425C0580C0712C0832C0948C0993
1055C1020C1066C1089C1101C1107C1132C1132C1088C1065C1064C1023C0981C0955
1042C0918C0835C0770C0706C0660C0597C0524C0466C0375C0236C0062B9884B9754
1029B9648B9599B9571B9539B9535B9542B9581B9645B9737B9884C0042C0224C0389
1016C0515C0644C0775C0851C0908C0960C0997C1000C0990C0975C0933C0840C0778
1003C0840C0927C0981C1026C1074C1115C1124C1126C1179C1221C1197C1216C1233
990C1242C1246C1244C1241C1195C1130C1050C0997C1019C1043C1085C1122C1110
977C1068C1027C0952C0782C0531C0418C0484C0647C0804C0931C1027C1068C1078
964C1085C1092C1101C1098C1091C1039C1002C0958C0882C0766C0623C0424C0169
951B9822B9361B8782B8216B7801B7626B7748B8082B8481B8890B9262B9580B9812
938C0003C0112C0157C0199C0188C0133C0120C0131C0144C0112C0086C0100C0107
925C0134C0192C0187C0119C0005B9812B9558B9337B9271B9401B9660B9893C0079
912C0291C0452C0596C0707C0783C0916C1033C1064C1080C1092C1086C1075C1054
899C1064C1016C0938C0838C0724C0640C0635C0712C0811C0881C0900C0933C0996
886C1039C1054C1092C1089C1068C1066C1072C1096C1118C1119C1167C1243C1301
873C1312C1317C1321C1266C1230C1184C1095C0989C0820C0649C0517C0460C0496
860C0580C0677C0750C0835C0873C0877C0899C0898C0898C0820C0657C0483C0417
847C0512C0646C0757C0837C0875C0870C0802C0703C0619C0516C0362C0152B9982
834C0033C0266C0538C0759C0918C1052C1133C1150C1194C1256C1272C1234C1214
821C1230C1208C1117C0996C0879C0774C0663C0634C0701C0838C0941C0996C1089
808C1167C1163C1177C1206C1259C1287C1273C1244C1270C1301C1282C1273C1244
795C1200C1183C1133C1078C0968C0801C0609C0294B9722B8949B8118B7560B7507
782B7889B8428B8942B9360B9694B9977C0199C0369C0503C0598C0651C0671C0562
769C0382C0366C0542C0725C0854C0930C0997C1033C1073C1115C1096C1070C1084
756C1132C1156C1169C1174C1214C1188C1131C1143C1202C1195C1190C1211C1216
743C1195C1198C1223C1241C1231C1176C1192C1222C1193C1195C1236C1250C1255
730C1242C1237C1284C1269C1231C1221C1155C1074C1013C1000C1126C1215C1213
717C1229C1219C1211C1184C1143C1126C1102C1121C1082C1011C0897C0728C0520
704C0222B9944B9867C0009C0223C0434C0589C0669C0815C0901C0890C0915C0944
691C0955C0980C0989C0968C0964C0944C0909C0920C0898C0844C0776C0662C0471
678C0219B9852B9414B9093B8973B9113B9456B9792C0103C0392C0579C0685C0787
665C0856C0904C0943C0995C1042C1093C1056C1042C1080C1094C1138C1160C1167
652C1151C1146C1163C1183C1208C1177C1170C1194C1181C1125C1106C1096C1027
639C0973C0922C0832C0658C0485C0470C0580C0696C0757C0922C1036C1068C1124
626C1207C1228C1176C1163C1215C1263C1235C1184C1220C1239C1230C1255C1260
613C1243C1193C1133C1109C1041C0983C0939C0807C0551C0239C0123C0307C0547
600C0696C0799C0861C0913C0938C0887C0896C0842C0627C0297B9955B9493B9096
587B9152B9545B9912C0189C0385C0573C0700C0750C0774C0853C0858C0817C0796
574C0755C0561C0191B9723B8969B7967B7187B7243B7997B8906B9587C0028C0360
561C0601C0791C0931C1068C1172C1205C1190C1209C1248C1233C1232C1299C1253
548C1110C0997C0890C0714C0352B9646B8796B8262B8384B9055B9770C0174C0451
535C0731C0929C1010C1071C1151C1240C1242C1223C1248C1291C1321C1338C1341
522C1326C1333C1307C1279C1290C1186C1059C0959C0778C0529C0180B9986C0185
509C0469C0715C0863C0898C0898C1024C1113C1054C0982C0948C0893C0774C0524
496C0244B9987B9763B9608B9743C0075C0296C0470C0688C0835C0952C0995C1037
483C1078C1061C0985C1074C1163C1173C1159C1209C1242C1256C1236C1298C1342
470C1307C1244C1266C1275C1253C1253C1277C1283C1279C1252C1239C1280C1238
457C1213C1266C1324C1317C1266C1267C1209C1228C1252C1249C1266C1233C1206
444C1294C1301C1213C1188C1219C1192C1209C1204C1211C1244C1305C1271C1280
431C1239C1221C1225C1221C1191C1195C1179C1151C1162C1206C1199C1188C1183
418C1126C1075C1089C1040C1041C1050C0982C0921C0882C0816C0736C0605C0224
405B9857B9475B9083B8983B9142B9380B9585B9599B9629B9672B9749B9753B9913
392C0082C0197C0319C0427C0541C0623C0651C0724C0823C0853C0858C0929C0972
379C0944C0953C1004C1047C1074C1103C1110C1194C1233C1200C1219C1287C1240
366C1113C1089C1049C0934C0884C1010C1003C0921C0941C1020C1006C0913C0899
353C0941C0900C0801C0749C0789C0602C0381C0212C0003B9703B9464B9375B9590
340B9916C0065C0388C0613C0644C0702C0828C0907C0818C0612C0460C0451C0545
327C0562C0620C0736C0883C0969C1075C1007C1029C1068C0902C0916C1075C1061
314C1117C1188C1071C1016C1027C0980C1046C1160C1264C1297C1227C1118C1347
301C1471C1271C1124C1023C1072C1285C1280C1247C1271C1251C1188C1172C1202
288C1160C1117C1163C1063C1237C1314C1113C1080C1045C1046C1205C1086C0809
275C0960C1089C0941C0818C0842C1010C1010C1007C1006C1115C1040C0939C1089
262C1059C0817C0821C0820C0786C0609C0425C0397C0441C0420C0570C0566C0684
249C0808C0901C1096C1397C1411C1356C1131C1109C1106C1087C1092C0962C0810
236C1162C1241C1072C1244C1386C1133C1110C1080C1105C1091C0868C0363C0023
223C0093C0394C0637C1003C1223C0959C0824C1427C1462C1248C1041C1034C1166
210C1251C1035C0784C0881C0883C0695C0828C0778C0918C1294C1294C0905C0872
197C1054C1074C1235C1371C0972C0870C0877C0721C0877C0886C0643C0824C0935
184C1036C1263C1513C1520C1462C1041C0837C1491C1531C1119C1148C1303C1155
171C1137C1222C1107C1463C1125C0692C1146C1286C0749C0548C0251C0323C0824
158C1054C0999C1228C1191C1096C1544C1035C1101C1814C1628C1233C1593C1828
145C1448C1225C1050C1012C1133C1068C0802C0999C1034C1143C1374C0886B9972
132C0340C0800C0689C0789C0618C1054C1501C1106C1081C1108C0894C1061C1492
119C1353C1325C1234C0732C0545C0917C0908C1188C1317C1529C0852C0877C1628
106C1445C0981C0593C0520C0722C0559C0687C1004C1287C0825C0982C0881C0848
93C0997C0930C0644C0934C1024C0612C0515C0950C0749C0769C0724C0581B9545
80B8158B8002B7548B5067B4919B4026B3797B3684B3404B2613B1881B1685B2701
67B2346B2802B3952B4484B5116B6326B7094B7630B6588B6385B5709B1917B5516
54B6703B5278B4742B3787B2674B2203B2406B1595B1539B2549B2392B0237B0959
41B0543B1195B2688B4207B4602B3842B2358B2717B2210B4684B5814B9327B7808
28B6370B7058B5798B7080B8282B7785B8559B9705B9110B7358B4704B5636B8760
15B9215B8807B9562C0827C2000C1130C0366C0530B9161B6772C1360C1068B9288
2B8662B7684
$$ === CHEMSPECTRA INTEGRALS AND MULTIPLETS ===
##$OBSERVEDINTEGRALS= (X Y Z)
##$OBSERVEDMULTIPLETS=
##$OBSERVEDMULTIPLETSPEAKS=
$$ === CHEMSPECTRA SIMULATION ===
##$CSSIMULATIONPEAKS=
##END=


$$ === CHEMSPECTRA PEAK TABLE EDIT ===
##TITLE=TB-028_neu
##JCAMP-DX=5.00
##DATA TYPE=INFRAREDPEAKTABLE
##DATA CLASS=PEAKTABLE
##$CSCATEGORY=EDIT_PEAK
##$CSTHRESHOLD=0.93
##MAXX=4000.433
##MAXY=102.39995907620212
##MINX=249.7859
##MINY=64.75837411953445
##$CSSOLVENTNAME=
##$CSSOLVENTVALUE=0
##$CSSOLVENTX=0
##NPOINTS=0
##PEAKTABLE= (XY..XY)
##END=


$$ === CHEMSPECTRA PEAK TABLE AUTO ===
##TITLE=TB-028_neu
##JCAMP-DX=5.00
##DATA TYPE=INFRAREDPEAKTABLE
##DATA CLASS=PEAKTABLE
##$CSCATEGORY=AUTO_PEAK
##$CSTHRESHOLD=0.93
##MAXX=4000.433
##MAXY=102.39995907620212
##MINX=249.7859
##MINY=64.75837411953445
##NPOINTS=39
##PEAKTABLE= (XY..XY)
724.2827817690923, 94.74556213525602
2945.3525352532783, 94.73916213781375
1237.356645795834, 94.51196222861343
1353.0875925687837, 94.49596223500778
1338.621224222165, 94.08636239870296
578.6546737464641, 93.99996243323243
1133.19879370018, 93.66716256623477
1444.7079254307018, 93.21596274655525
815.9031146310103, 93.10716279003678
636.5201471329387, 92.74556293454894
898.8436264849574, 92.71356294733764
1421.561736076112, 92.22716314172567
262.3234192337359, 92.18236315962983
770.5751604782718, 90.43836385661326
1458.2098692208792, 89.25116433107355
271.0032402417073, 88.91196446663363
1161.1671058369761, 88.40316466997375
1452.423321882232, 88.1119647863508
1003.9659031370529, 88.02236482215912
796.6146235021856, 86.9983652313971
254.6080227822058, 85.6703657621276
275.82536302391327, 84.38396627623281
1389.735725713551, 83.75356652816994
273.896513911031, 82.5535670077457
1543.0792301877086, 79.35676828533552
1540.185956518385, 79.15836836462537
266.1811174595009, 79.05276840682804
1548.8657775263564, 78.08636879304639
1534.3994091797376, 77.93276885443208
1531.506135510414, 77.89756886849963
282.57633491900197, 71.54557140705397
313.4379207251218, 71.5071714224004
280.6474858061197, 71.07197159632653
296.07827870917936, 71.04957160527862
302.82925060426805, 70.13437197103507
315.36676983800453, 69.3919722677326
293.1850050398557, 68.92477245444742
288.36288225764974, 65.74077372692176
290.29173137053203, 64.75837411953445
##END=

##END=

