##TITLE=X7987
##JCAMP-DX=4.24
##DATA TYPE=INFRARED SPECTRUM
##DATE=30/10/2018
##SAMPLING PROCEDURE=Diamant-ATR
##ORIGIN=ComPlat
##XUNITS=1/CM
##YUNITS=TRANSMITTANCE
##RESOLUTION=4
##FIRSTX=3997.453
##LASTX=373.96442
##DELTAX=-1.4165319
##MAXY=0.96599048
##MINY=0.45214072
##XFACTOR=1
##YFACTOR=8.9964875e-010
##NPOINTS=2559
##FIRSTY=0.9529233
##XYDATA=(X++(Y..Y))
3997+1059217059+1059605303+1059742049+1059527124+1059295105+1059235013
3989+1059121654+1058839680+1058707505+1058939590+1059275428+1059438875
3980+1059463123+1059322203+1058818016+1058063126+1057558276+1057606840
3972+1057993693+1058330193+1058440902+1058402541+1058364115+1058378293
3963+1058419039+1058529681+1058820003+1059277084+1059657312+1059578271
3955+1058810661+1057632016+1056767677+1056796828+1057676671+1058830869
3946+1059614512+1059786373+1059657047+1059686861+1059847988+1059818373
3938+1059654661+1059516391+1059131526+1058297265+1057592861+1057734908
3929+1058439975+1058869428+1058713998+1058277190+1057976533+1057854097
3921+1057580736+1056992938+1056424485+1056359093+1056842476+1057591801
3912+1058518617+1059648765+1060577967+1060473220+1058914281+1056585281
3904+1054908346+1054637039+1055285061+1056305494+1057473207+1058363783
3895+1058543528+1057964674+1057071448+1056647493+1056955438+1057301413
3887+1056993600+1056007686+1054803202+1053759647+1053276594+1054059973
3878+1055982112+1057721988+1058231939+1057350440+1055690068+1054313921
3870+1054274037+1055745323+1057540521+1058418243+1058035167+1056976573
3861+1056242686+1056268591+1056763503+1057172683+1056978428+1055838144
3853+1054343868+1054127551+1055262867+1056766020+1058007142+1058610179
3844+1058276992+1056897533+1054889795+1053215045+1052835282+1053937603
3836+1055652038+1056979621+1057471551+1057200774+1056738128+1056714939
3827+1057237544+1057845815+1057925717+1057243507+1056305891+1056139861
3819+1056841151+1057522301+1057942015+1058505499+1059170218+1059385143
3810+1058803241+1057569274+1056445156+1056288864+1056649746+1056206777
3802+1054735226+1053785154+1054745959+1057151813+1059830431+1061632122
3793+1062023149+1061534067+1061001524+1060724453+1060456061+1059944056
3785+1059268471+1058651720+1058080352+1057424511+1056963919+1057227805
3776+1058050538+1058679944+1058748715+1058499536+1058342649+1058407047
3768+1058492778+1058499801+1058656556+1059092039+1059453715+1059239916
3759+1058373986+1057376743+1056772513+1056403946+1055633222+1054046325
3751+1052385422+1052184410+1053227700+1054084487+1054003525+1052999788
3742+1051795305+1050843444+1049751061+1048040005+1045939379+1044651748
3734+1045231000+1047371841+1050096969+1052443659+1053602560+1053326748
3725+1052228866+1051331134+1051204922+1051891902+1053254930+1054984007
3717+1056548577+1057359848+1057069659+1055899229+1054810158+1054739069
3708+1055430554+1056027760+1055998013+1055248158+1054199303+1053675638
3700+1054052950+1054812345+1055400143+1055836090+1056457479+1057403509
3691+1058439577+1059218649+1059570189+1059484391+1059029165+1058384521
3683+1057724440+1057100334+1056502664+1055847949+1054958632+1054228852
3674+1054716542+1055852719+1055822375+1054412573+1053960063+1056011064
3666+1058826165+1060442412+1060520194+1059791673+1058943102+1058218954
3657+1057976401+1058715058+1059959161+1060320970+1058975499+1056160996
3649+1053339005+1052414375+1053612035+1055847353+1058022778+1059372820
3640+1059774580+1059692227+1059437881+1058756731+1057319500+1055245575
3632+1052829915+1050194361+1048119641+1048338807+1050605926+1052895373
3623+1054188703+1054515596+1054336779+1054339296+1055034492+1056077185
3615+1056671278+1056506572+1056028622+1055901879+1056522738+1057988525
3606+1059682885+1060408093+1059638032+1057977394+1056475367+1055710871
3598+1055484550+1055300962+1054943394+1054701834+1054837322+1054875948
3589+1054069845+1052694692+1052504015+1054438345+1057103249+1058796019
3581+1059045993+1058620846+1058499801+1058786479+1059037645+1059165911
3572+1059239784+1058925478+1057901932+1056575476+1055933482+1056284425
3564+1056898195+1057329239+1057833956+1058802844+1060168323+1061260242
3555+1061336765+1060338395+1059143783+1058778595+1059249589+1059727938
3547+1059636641+1059087600+1058650726+1059012866+1060491042+1062469894
3538+1063676167+1063442227+1062387674+1061461984+1060896976+1060505287
3530+1060230203+1060010441+1059623257+1059084751+1058947143+1059786042
3521+1061306819+1062385819+1062296112+1061563417+1061227712+1061421304
3513+1061261833+1060199131+1058888111+1058420827+1058970729+1059692558
3504+1059826390+1059474916+1059294509+1059531033+1059770075+1059668707
3496+1059467430+1059615241+1060089614+1060389012+1060220265+1059961083
3488+1060247628+1061130651+1061953980+1062090661+1061487822+1060525229
3479+1059636839+1059163791+1059358244+1060217880+1061303903+1062009832
3471+1062110007+1061742036+1060919833+1059568797+1058043714+1057033683
3462+1056870568+1057312609+1057981237+1058686768+1059363611+1059872303
3454+1059955186+1059533683+1058976891+1058732549+1058707174+1058359609
3445+1057442201+1056356310+1055741878+1055818135+1056058038+1055746515
3437+1054897016+1054174591+1053932634+1053911897+1053854058+1053808476
3428+1053863929+1053981926+1053980601+1053533127+1052482947+1051216052
3420+1050374570+1050226229+1050524832+1050799187+1050643757+1049939220
3411+1048861479+1047700921+1046832937+1046627684+1047012086+1047350308
3403+1047069527+1046149270+1044840967+1043292032+1041611585+1040025615
3394+1038804502+1038027616+1037429747+1036626029+1035542060+1034402504
3386+1033329003+1032249605+1031251831+1030668140+1030587377+1030520528
3377+1029884364+1028742622+1027695953+1027078738+1026603305+1025812970
3369+1024662549+1023588186+1022950035+1022520846+1021950075+1021636564
3360+1022283991+1023516566+1023995842+1023207959+1022111666+1021612779
3352+1021443171+1021021271+1020441952+1020048607+1019768289+1019394091
3343+1019002998+1018726391+1018439249+1017825347+1016626163+1014940018
3335+1013311050+1012313607+1012075095+1012248679+1012241987+1011560639
3326+1010249554+1008864861+1007776188+1006759465+1005460306+1003985641
3318+1002840653+1002393244+1002530786+1002845820+1003002377+1002830980
3309+1002342627+1001886871+1002059858+1003200673+1005038736+1006832212
3301+1007895642+1008151976+1008137930+1008374256+1008960266+1009830104
3292+1011016965+1012513758+1014139878+1015659263+1016945636+1018016554
3284+1018973449+1020033965+1021577599+1023818151+1026291186+1028127924
3275+1029090253+1029888869+1031228775+1032991707+1034581189+1035640909
3267+1036200816+1036511874+1037008906+1038113083+1039734366+1041225196
3258+1042126572+1042654014+1043161911+1043521600+1043453757+1043203982
3250+1043462634+1044620609+1046282836+1047596240+1048123417+1048383660
3241+1049225540+1050581413+1051323714+1050714648+1049509833+1049003791
3233+1049461137+1050148912+1050479051+1050484418+1050496874+1050880811
3224+1051825450+1053013569+1053766405+1053815565+1053643902+1053772699
3216+1054112445+1054391835+1054779218+1055552923+1056488353+1057056673
3207+1057047861+1056684992+1056250967+1055792561+1055220465+1054694348
3199+1054710381+1055586646+1056990486+1058174498+1058600904+1058298458
3190+1057701450+1057131208+1056569248+1056061814+1055978534+1056536254
3182+1057434847+1058251153+1058860948+1059295105+1059484523+1059357383
3173+1059028436+1058738445+1058676962+1058957677+1059574893+1060238419
3165+1060575847+1060635673+1060753140+1060902939+1060755327+1060232390
3156+1059467231+1058586924+1057935191+1057909419+1058351460+1058691869
3148+1058626676+1058179401+1057481886+1056853739+1056606019+1056681481
3139+1056945898+1057549001+1058490327+1059268008+1059448349+1059225937
3131+1059078656+1059181083+1059413102+1059684873+1059999178+1060273334
3122+1060378478+1060390404+1060511978+1060668137+1060531391+1060037473
3114+1059483794+1059007897+1058416123+1057679387+1057200575+1057317843
3105+1057789832+1058084725+1058075383+1058087706+1058249298+1058294085
3097+1058180196+1058330988+1058921238+1059447753+1059424166+1059093894
3088+1059100917+1059694148+1060479912+1060863849+1060635209+1060127776
3080+1059822680+1059861835+1060003617+1059985596+1059823077+1059694546
3071+1059572640+1059166508+1058339071+1057404105+1056934370+1057328775
3063+1058445275+1059566081+1059948958+1059465707+1058514244+1057492421
3054+1056714343+1056517769+1056979289+1057695023+1058146340+1058184833
3046+1058042786+1057940028+1057800697+1057476984+1057139291+1057076085
3037+1057175664+1057099274+1056892299+1056899520+1057202033+1057517928
3029+1057526541+1057134256+1056603368+1056329080+1056348227+1056384269
3020+1056335043+1056172590+1055566373+1054336580+1053039077+1052462740
3012+1052832499+1053876783+1055166336+1056137144+1056327622+1055787327
3003+1054930077+1054051426+1053222598+1052426300+1051606085+1050779311
2995+1050102269+1049655590+1049254228+1048606536+1047570733+1046235929
2986+1044769347+1043090888+1040784016+1037499578+1033274410+1028281301
2978+1022590147+1016295824+1009358249+1001113364+990477665+976944911+961123306
2968+944339637+928190012+914551452+905452960+902253459+904696878+910910969
2958+918463440+925457729+930896192+934470223+936199499+936176841+934599748
2948+931886877+928415804+924044945+918165963+910372595+900907988+890390882
2938+879362368+868245405+857418765+847022836+836916832+827156471+818373809
2928+811367661+806335330+802657082+799473482+796373758+793424163+790660542
2918+787835504+784639315+780928073+776736960+772177147+767254199+761866552
2908+756254306+751345869+748338568+748037712+750793449+756730866+765664055
2898+776963016+789795540+803467890+817481444+831445175+845024970+857868359
2888+869549468+879705427+888191871+894958646+899839986+902657206+903538772
2878+903103157+902400011+902596253+904435443+907863717+912124198+916086274
2868+918603699+918933043+916950150+912882267+906921993+899157180+889643148
2859+878434094+865808015+852667082+840572487+831135707+825388370+823980555
2849+827905927+838395273+855616080+877646740+901038176+922471364+940152433
2839+954076280+965188008+974334798+981942194+988274016+993550888+997891933
2829+1001418593+1004382365+1007049655+1009491815+1011577799+1013188084
2820+1014368253+1015254721+1016006629+1016873155+1018094865+1019636710
2812+1021219434+1022649311+1023955560+1025253925+1026613309+1028001579
2803+1029254826+1030106114+1030333429+1030032705+1029728470+1029971288
2795+1030826419+1031942455+1032976469+1033763094+1034305840+1034819237
2786+1035578896+1036599859+1037560928+1038078366+1038059351+1037819647
2778+1037782877+1038036494+1038310319+1038363255+1038246318+1038204844
2769+1038403073+1038802249+1039371431+1040252334+1041423426+1042385357
2761+1042628639+1042292536+1041965179+1041979092+1042214490+1042426301
2752+1042504811+1042507727+1042564042+1042733849+1042985876+1043316281
2744+1043725262+1044031286+1043950126+1043504440+1043140842+1043247046
2735+1043704061+1044089324+1044182277+1044043874+1043716583+1043205903
2727+1042758760+1042751803+1043192454+1043671928+1043934358+1044154915
2718+1044543954+1045016339+1045371192+1045547028+1045583136+1045532386
2710+1045521984+1045747642+1046281047+1046942188+1047431071+1047549002
2701+1047315923+1046957890+1046726335+1046677374+1046694136+1046675122
2693+1046586210+1046434424+1046290389+1046151920+1045780305+1044917092
2684+1043592690+1042032360+1040479980+1039307761+1038984512+1039632733
2676+1040756256+1041623511+1041958156+1042128427+1042604523+1043398568
2667+1044167105+1044627300+1044673147+1044272978+1043441168+1042296975
2659+1041175241+1040620768+1041058039+1042448297+1044360631+1046231092
2650+1047536082+1048064850+1048133223+1048253274+1048570428+1048827292
2642+1048796550+1048554792+1048342981+1048269903+1048219882+1048106987
2633+1048147070+1048661129+1049571846+1050368210+1050743336+1050994502
2625+1051465363+1051875736+1051718517+1051135820+1050771228+1050833109
2616+1050958327+1050978270+1051134495+1051483318+1051747470+1051855860
2608+1052065552+1052483808+1052966066+1053463892+1054006440+1054360829
2599+1054156636+1053474758+1053013635+1053376769+1054311934+1055061391
2591+1055365360+1055535830+1055637992+1055367746+1054767027+1054349698
2582+1054423637+1054729793+1054851037+1054802804+1055014815+1055595590
2574+1055991189+1055831849+1055608377+1055840794+1056213468+1056366049
2565+1056797755+1057992169+1059225274+1059241771+1057848466+1056032133
2557+1054731184+1054178367+1054210500+1054524143+1054693818+1054462329
2548+1053987293+1053554659+1053291170+1053340198+1053916932+1054961481
2540+1056028820+1056653522+1056707055+1056470001+1056410174+1056742103
2531+1057265901+1057734179+1058100625+1058300511+1058225182+1058013436
2523+1057871058+1057648977+1057181295+1056862485+1057219457+1058067300
2514+1058698428+1058799862+1058722611+1058958936+1059633990+1060388151
2506+1060676419+1060326734+1059706140+1059148420+1058516365+1057646327
2497+1056867123+1056670881+1057113717+1057796192+1058183641+1057917501
2489+1057189842+1056757805+1057221379+1058437457+1059847392+1060967337
2480+1061407060+1061016894+1060203570+1059544549+1059071037+1058453623
2472+1057757831+1057432395+1057624066+1057931282+1057842238+1057278887
2463+1056736007+1056787354+1057359782+1057753260+1057536214+1057028979
2455+1056674723+1056445752+1056193725+1056080829+1056288268+1056681945
2446+1057024010+1057202960+1057161221+1056900448+1056563683+1056322521
2438+1056225129+1056244210+1056402356+1056782451+1057402780+1058113677
2429+1058694520+1058993918+1058922099+1058498741+1057949303+1057475195
2421+1057034545+1056658292+1056617149+1056921318+1057149428+1057076947
2412+1056943778+1056975248+1057131009+1057328046+1057575834+1057953941
2404+1058475685+1058855382+1058661393+1057902131+1057124318+1056789805
2395+1056896937+1057259739+1057792945+1058448057+1059068850+1059263502
2387+1058324694+1055587905+1051143373+1045862658+1040391333+1034493735
2378+1027767838+1020554516+1013589181+1007078674+1000623488+993891562+987049855
2368+980428043+973880102+967128831+960994046+957121743+955928720+956207779
2359+957327525+960249823+965798134+973483842+982217344+990624814+996831285
2349+999079059+996646703+990599108+983910777+979554692+978230224+978837170
2339+980088760+981412963+982932746+984633136+986095146+987276706+988616877
2329+990097637+991221424+991990227+993000788+994749277+997518066+1001623051
2319+1006914896+1012213101+1016089446+1018212796+1019494133+1021049097
2310+1023384789+1026461390+1030065633+1033863534+1037237347+1039528650
2302+1040761291+1041829757+1043591298+1046006958+1048366766+1050011502
2293+1050763874+1051066320+1051659684+1052858139+1054375537+1055888231
2285+1057230720+1058097512+1058273414+1058072865+1057920085+1057716357
2276+1057148566+1056287208+1055446786+1054791011+1054394618+1054338170
2268+1054498901+1054609013+1054763383+1055380731+1056386919+1057073899
2259+1057100467+1056897202+1056829888+1056881301+1057270539+1058251087
2251+1059304844+1059772460+1060104190+1061208697+1062810370+1063730362
2242+1063719563+1063847299+1064856071+1065964024+1065839401+1064422775
2234+1063107250+1063129114+1064302856+1065319446+1064994540+1063436860
2225+1062045012+1061985119+1062957651+1063868699+1064056196+1063428049
2217+1062303002+1061585281+1062259408+1064346981+1066758400+1068309587
2208+1068777534+1068866181+1069077794+1068995043+1068045303+1066359688
2200+1064418534+1062560661+1061080630+1060123204+1059449276+1058663712
2191+1057573382+1056459400+1055994567+1056373668+1056905947+1057339641
2183+1058593748+1060992844+1063362060+1064924908+1066090369+1066588593
2174+1065062715+1061526846+1058409962+1058106124+1060497933+1063450243
2166+1065041845+1064843947+1063977752+1064408133+1066755618+1068645491
2157+1067743255+1065481236+1064586288+1065857157+1068690610+1071900844
2149+1073741823+1073094661+1070625204+1067851579+1065751815+1064361358
2140+1062850850+1060629445+1058974771+1060111014+1064080047+1068284941
2132+1070577369+1070976810+1070338593+1069135566+1067591336+1065985092
2123+1064833876+1064852228+1066100771+1067367400+1067442730+1066763700
2115+1066588063+1066930725+1066680288+1065534570+1064463388+1064237464
2106+1064588209+1064952602+1065320241+1065978401+1066706391+1066684925
2098+1065464209+1063772897+1062828589+1062922205+1063329927+1063482840
2089+1063438119+1063366035+1063399891+1063749708+1064162664+1063786744
2081+1062498184+1061625960+1062282994+1063729766+1064434965+1064100254
2072+1063645955+1063799597+1064570519+1065759368+1067287499+1068917925
2064+1069928485+1069426749+1067120143+1063589574+1060008520+1057928897
2055+1058650792+1061603169+1063827423+1062765450+1059501550+1057805070
2047+1059696268+1063472637+1066737795+1069377656+1072118817+1073624157
2038+1071530886+1066408848+1062200906+1061841615+1064484788+1067846875
2030+1070767516+1072451210+1072065152+1070456921+1070026341+1071680088
2021+1073348279+1072443591+1068898115+1065134202+1063704855+1065284398
2013+1068165685+1069431188+1067634997+1064478361+1062734973+1062937046
2004+1063429042+1063168005+1063053519+1064535339+1067487915+1069794124
1996+1069510427+1067037128+1064553095+1063883473+1065213772+1067165924
1987+1067743917+1065850996+1062314199+1059028568+1057317777+1057661830
1979+1060251934+1064496316+1068261620+1069439669+1068288983+1066626092
1970+1065177797+1063378226+1061475102+1060846822+1061833002+1063238366
1962+1064247734+1065158053+1066164904+1066618341+1065640310+1062938835
1953+1059378319+1056963389+1057418747+1060315405+1063235185+1064261713
1945+1063617400+1062473671+1061348558+1060493361+1060631168+1062155920
1936+1064307097+1065749430+1065690265+1064342940+1062772738+1062189974
1928+1062775388+1063418442+1063161048+1062416825+1062099539+1062045675
1919+1061521280+1060867758+1061192995+1062366340+1063017676+1062561522
1911+1061882559+1061955173+1062580338+1063096120+1063492645+1063950654
1902+1064062688+1063378690+1062219324+1061246329+1060702125+1060527879
1894+1060609702+1060545105+1059751855+1058212792+1056951662+1057279549
1885+1059443247+1062186927+1063809733+1063980269+1063852069+1064287088
1877+1065013886+1065464209+1065492102+1065265450+1064924577+1064309548
1868+1063170323+1061964448+1061630002+1062408279+1063682792+1064597484
1860+1064678512+1064106283+1063456272+1063233529+1063633169+1064451065
1851+1065088553+1064986855+1064206193+1063329132+1062901600+1063211069
1843+1064140668+1065113928+1065626662+1065517411+1064789685+1063519876
1834+1061880638+1059975128+1057769757+1055605330+1054503340+1055117043
1826+1057016126+1059266616+1061018418+1061870634+1061962328+1061874874
1817+1062236815+1063024566+1063613293+1063633897+1063266059+1062819115
1809+1062484205+1062424643+1062656198+1062844622+1062557282+1061811006
1800+1061190345+1061154304+1061462514+1061578656+1061185708+1060325674
1792+1059547729+1059525203+1060130161+1060672709+1060626994+1059868196
1783+1058715787+1057694493+1057138960+1057021493+1057090794+1057112988
1775+1056929666+1056442969+1055766060+1055295132+1055311232+1055692784
1766+1056027827+1055947594+1055398818+1054576152+1053687762+1052742395
1758+1051653721+1050523706+1049536202+1048541475+1047088939+1045041383
1749+1043146474+1042247550+1042103052+1042011158+1041768738+1041635105
1741+1041768208+1042021560+1042232709+1042301679+1042025535+1041411235
1732+1041126943+1041594823+1042521308+1043437392+1043854986+1043518221
1724+1042608365+1041433364+1039997192+1038255064+1036849700+1037123061
1715+1039224613+1041753698+1043889570+1045571873+1046754294+1047226812
1707+1047059655+1046896672+1047080061+1046987837+1045990726+1044461071
1698+1043366435+1042949238+1043094863+1043542006+1043646620+1042903258
1690+1041273296+1039175189+1036815314+1033534984+1028981465+1024826062
1681+1021862355+1018904745+1015320709+1010949387+1005566245+999397869+992621819
1672+983779927+970718630+954311346+938364324+923543143+907452549+888622186
1662+868224867+847477797+825735935+802981458+780001124+757019399+739256773
1652+736765319+745483583+760781192+785838962+819232318+849391389+871951214
1642+890502122+907020114+921553293+935326149+950903280+966992018+978903158
1632+986441650+991693346+995720616+998715925+1000534245+1000640714+998070154
1622+992216680+983326887+971576808+958209952+949256688+951089849+961414025
1612+974930216+988414473+999902123+1008345966+1013827957+1017348655+1020160177
1602+1022975145+1025693383+1027735705+1028601304+1028287197+1027066216
1594+1024722640+1020276717+1012137837+997762540+973586269+937138705+891423174
1584+847906124+822196024+822379148+843949746+878875075+921194730+959635854
1574+983627080+995879292+1003037756+1008850882+1014155911+1018234262+1020740026
1564+1021856393+1021496969+1019158428+1015137320+1012731533+1013334106
1555+1013929259+1013307273+1011488688+1008608792+1004863828+1000374839
1547+994870918+987725373+978667959+967787256+953670413+935999481+920406648
1537+907815750+892137384+867805749+836814404+808609605+786706946+768079384
1527+751593258+739083587+730945502+725552555+722187884+720591446+719612885
1517+718489827+716708940+712670142+704463353+692065583+679013761+674801579
1507+696461154+742735465+783665723+812184762+835692406+857801178+878653392
1497+897119031+910895399+918342396+920014628+916669965+908704669+898094809
1487+888032466+879730405+872776730+867077427+863401896+862457721+863546394
1477+864883385+864920818+863020277+859450354+854718018+848999833+843024453
1468+839015337+840339143+848126615+857493697+862915465+863707588+861030891
1458+855005623+846068524+836766039+829035479+824202901+824033823+829846418
1448+841142596+855402281+870178542+884666404+898346770+909944930+918676312
1438+925248435+930903348+935592487+938332721+938540094+935542930+928634042
1428+917832047+902821050+882548288+858110183+833325906+810706520+791696809
1418+779938184+776130477+775217706+773282184+770554803+770251827+775928935
1408+789178854+810034712+837112080+865674316+890263809+909658451+925208087
1398+937182697+945224516+950283481+953942846+956821284+958557252+958558577
1388+956138081+950483764+941158488+928665379+914592065+901321938+890710024
1378+882585191+875251288+867613482+860749315+857069345+857691993+862054504
1368+869098151+877458846+885903153+894074695+902083718+909651494+916183534
1358+921101181+923819021+924373958+924345469+926257339+931557665+939367530
1349+947112402+952682047+956407599+960625545+967160235+975719889+984576092
1339+992131280+997784470+1001657038+1004063886+1005244055+1005187674+1003691742
1329+1000601558+995954953+990074316+983554069+976851693+969765312+961402629
1319+950626076+936517449+918544137+896756295+872420618+848127808+826288686
1309+807324093+789265712+768724889+742897786+711961961+680128803+653880992
1299+638383431+635040624+641672043+654256714+668825404+682875464+696007916
1289+709459179+724732936+742406187+761992500+782474093+802682921+821483934
1279+837964759+851445637+861246744+866600669+867111017+863606950+858439793
1269+854165200+851276957+847445532+839465859+826117355+809207143+792278578
1259+778502873+769205026+763786571+760809879+759145134+758405350+758795118
1249+760813722+764947858+771371971+779876568+790070557+801526471+813703883
1239+825931978+837617526+848383148+857930571+865999354+872733267+878932981
1230+885479132+892286653+897907114+900059880+896347910+884807987+864830183
1220+838557792+811461078+790607473+781260466+784421342+797109367+814730079
1210+833506181+851392569+867537821+881538588+893213668+902524832+909328974
1200+913240300+913709638+909988790+901016842+885862142+864997605+841231375
1190+818512145+799083581+782214247+766295449+751690651+740847977+736116170
1180+738140273+745983795+758183402+773773651+792526432+814094777+836957909
1170+858516647+876360036+889400794+897821846+902086501+902033829+896625909
1160+884245431+863372678+833486902+796010690+755240036+718770277+695955510
1150+693738345+712331919+744702524+780458404+810595214+829932813+837482237
1140+836156973+831505996+828659955+829094775+830125941+827300638+816757031
1130+795814646+763065935+719189859+667708308+614567909+566632165+529894247
1120+508166066+502574723+511737645+532297914+559738648+589644235+619113875
1111+647299063+674230542+698832623+718872439+734009052+748150873+766562118
1101+790144694+814053501+832011641+840436270+838591714+826965993+806728675
1091+780476822+753252571+732108777+722670075+724677946+731511371+735172724
1081+731875433+723074352+712588319+703806916+698553034+696566828+695613577
1071+693255955+689031052+684067293+678124841+667919656+649733671+624250290
1061+598354018+581302355+578532904+588951226+607489943+629257975+651432868
1051+672787414+692797814+711256232+728145375+743602389+757860020+770970675
1041+782574069+792162967+799590286+805204453+809658592+813773117+818364533
1031+823888132+830234132+836920211+843369434+849060256+853665651+857071995
1021+859183486+859968521+859899816+860030136+861345992+864206939+868477557
1011+873927151+880331852+887320442+894281206+900514179+905570162+909521572
1001+912905257+916328827+920029270+923737927+926917751+929115769+930162570
992+930103009+928922575+926415353+922469045+917424457+911895558+906137356
982+899875365+893137609+887166205+883943250+884628573+888881501+895692599
972+904157113+913314901+922026739+929470754+935514176+940512386+944888015
962+948847177+952404843+955666424+958879839+962088417+964965132+967158380
952+968624696+969493078+969768029+969254434+967418622+962946860+953984917
942+940193046+925024300+914583584+912827079+918067511+924760612+928227578
932+927336273+923699699+919520643+916346252+915348412+917916785+924919421
922+935242537+945707899+952349919+951822610+943664252+932875044+928102227
912+934372235+948377706+962552653+972264252+977562855+980188338+981358503
902+981518173+980291296+976438935+968510675+956023396+940449711+925183440
892+914153270+909921410+912523440+919685945+928289657+936166704+942837213
882+948822928+954710588+960774019+966850037+972406564+977036937+980843914
873+984106025+986767948+988523725+989318565+989596166+990003822+990795880
863+991523738+991458677+990272347+988034246+984623993+979597624+972642757
853+963807887+953525848+942910422+933544864+926121653+919715494+913413751
843+908452973+907726109+913080298+923768006+937422269+951666385+964689386
833+975359007+983541879+989861046+994650162+997485072+998004564+996807235
823+995149778+993798278+992419813+990277647+987350181+984275434+981107006
813+976587011+968800996+955980796+936105950+906388257+865400823+817747848
803+775747534+753214144+755588329+776523160+804241860+830615486+854342759
793+877306000+900143094+921397796+939201699+952796267+962697152+969830108
783+974904377+978667296+981917813+984629227+985576781+983312179+977329577
773+968386185+957980186+947410674+937599894+930228426+928118724+933151254
764+944015195+956889856+968264279+976727137+982440551+985655622+985821123
754+981462587+970289640+948713146+910915341+851215341+773104758+697255597
744+653416358+657877718+700685461+757217629+808726608+849558215+880163038
734+898492594+896179362+863134895+802530340+741210978+714611760+736202962
724+787842526+841306772+881203678+906844080+922022035+928368697+925250555
714+912887766+895649005+881552236+877447583+884920154+900546444+919015794
704+935792307+948186566+955433743+958115409+957429953+955053846+953184445
694+953719241+957073709+962172293+967463542+971731443+974530113+976327961
684+977894320+979379850+980354236+980673643+980729826+980698820+980049472
674+977930494+973493250+965934616+955888637+948584880+949741463+953127467
664+950040861+940784621+930980533+925543593+925421753+929605513+937022497
654+945352981+950992324+951840962+949516136+947912476+949743185+954924918
645+961583368+967607908+971612453+973167019+972288434+968879175+962575246
635+952856425+939771543+925053650+911739730+902011701+896045066+893015902
625+891999246+891743244+890903616+889211773+888091232+889578816+894204021
615+900046232+904010097+903482456+897092530+885051202+868581376+848307553
605+823961011+796613263+770716395+752751233+746847870+751619693+762056566
595+774073844+786369253+798909402+811229788+822374047+831562907+838529369
585+843619010+847616929+851175125+854422462+857077560+858725345+859192033
575+859080992+859633080+861543493+864092056+865692403+865428318+864099145
565+863554875+865089300+868654387+873330077+877988607+881463722+882960648
555+882927057+882980921+884303535+886235877+887020050+886068918+884600813
545+883543610+882130627+879257820+874632814+867627329+856447956+839736967
535+818883031+798798295+786315588+786328706+798378647+817579697+838399778
526+856685408+870179139+878822338+883704473+885996504+887363308+889830380
516+893811736+897371655+898342530+896414495+893180409+890994913+892021573
506+897220929+905084394+911764840+914256161+914118884+915421887+919368195
496+923474239+925293951+925410689+926265621+928948943+931746619+931301066
486+925094396+914193552+903696521+898811205+900642445+906216065+911511885
476+914462341+915416520+915391609+915264602+916412969+920183043+926360495
466+933225855+939148563+943066780+943753230+940467400+934333410+928015435
456+923492591+920979341+920538359+922173556+924313800+925241279+926122448
446+930133353+938387844+948325830+956332998+960860479+962589490+962884516
436+963305688+964941546+966679965+965898641+962300096+959397409+960328996
426+963800864+965755202+963975243+959822887+956434365+957922479+966100713
416+975670596+980831260+980254459+975848420+970591093+965126260+958193124
407+951312128+948890374+952333157+957796466+960445469+958333912+954206534
397+954148430+959340762+964945853+967978330+969695349+971041482+969721055
387+964500167+960145806+962861923+970432350+975146930+973684655+967651834
377+959685809+952955010+950699418
##END=
