##TITLE=LIS-P298
##JCAMP-DX=4.24
##DATA TYPE=INFRARED SPECTRUM
##DATE=10/6/2021
##SAMPLING PROCEDURE=Diamant-ATR
##ORIGIN=Angelika Moesle
##XUNITS=1/CM
##YUNITS=TRANSMITTANCE
##RESOLUTION=4
##FIRSTX=3997.453
##LASTX=373.96442
##DELTAX=-1.4165319
##MAXY=0.94104272
##MINY=0.3105292
##XFACTOR=1
##YFACTOR=8.7641433e-010
##NPOINTS=2559
##FIRSTY=0.85962093
##XYDATA=(X++(Y..Y))
3997+980838513+980687871+980502885+980581368+980889452+981232085+981403945
3988+981354366+981177065+980859800+980335377+979823945+979682756+979851216
3978+979911133+979706492+979523546+979606994+979801229+979785247+979474647
3968+979104130+978997695+979315776+979938201+980529681+980841981+980970111
3958+981135783+981333623+981417411+981339880+981101710+980722624+980450042
3948+980635232+981225488+981814043+982114782+982044120+981651500+981209914
3938+981043086+981113952+981072398+980849462+980939983+981708016+982601391
3928+982722584+981824109+980445145+979408678+979106035+979309383+979679152
3918+980172426+980960114+982000390+982921377+983419071+983467766+983144516
3908+982480130+981520786+980409508+979367260+978631803+978387852+978708790
3898+979475463+980386861+981202840+981865799+982354992+982591326+982646822
3888+982695245+982581328+981904224+980815729+980093807+980042256+980283418
3878+980424878+980446913+980419777+980392165+980571371+981183186+982013856
3869+982461631+982308950+981848592+981393540+981169040+981288873+981659321
3859+982130220+982687491+983395812+984043536+983956212+983187499+982674026
3849+982669197+983001832+983526255+984148883+984784433+985248735+985135703
3839+984074957+982541611+981770109+982211288+983199400+983827674+983688798
3829+983027744+982315547+982005967+982411440+983356571+984058566+983874600
3819+983412883+983350382+983327734+982923757+982440072+982241892+982317179
3809+982556165+982874518+983198856+983520270+983782583+983754903+983365412
3799+982966603+982795151+982791750+982889480+983104255+983421860+983722599
3789+983855693+983818628+983737833+983610315+983291485+982828952+982549976
3779+982752237+983331271+983841071+984001438+983906497+983819240+983935401
3769+984275653+984660044+984776612+984478594+984078221+984084750+984674122
3759+985569605+986269220+986488416+986351376+986137418+986077501+986203591
3750+986252150+986037035+985561444+984757162+983913298+983817540+984535042
3740+985456029+986009492+985863543+985152774+984486007+984271437+984404055
3730+984714928+985119381+985442563+985383871+984843942+984213016+984031294
3720+984446493+985157534+985823689+986348044+986719444+986690676+985967802
3710+985091905+984985470+985618640+986451486+987139608+987414775+986938912
3700+985823009+984788922+984407592+984679291+985187391+985468475+985313277
3690+984841630+984437856+984436224+984817078+985353674+985744390+985700592
3680+985210786+984713499+984799940+985632378+986562954+986989579+986962511
3670+986541735+986004119+985885170+986131841+986402111+986688296+987145049
3660+987685182+988051074+988053658+987694839+987331259+987301947+987372201
3650+987037186+986590430+986989443+987844528+988312299+988330457+988107386
3640+987769922+987462518+987375942+987616288+988153564+988845563+989465199
3631+989609447+988736407+987339965+987020727+987900228+988826928+988856308
3621+988019313+987403962+987955384+989199145+990142371+990345992+989993090
3611+989547762+989238318+988886640+988229259+987403282+986878927+986951765
3601+987406206+987763529+987911382+988103169+988454167+988849099+989176090
3591+989355907+989249200+988784422+988315563+988359225+988786938+989056121
3581+988906159+988634937+988716752+989139296+989395897+989202205+988883988
3571+988830872+988902351+988740896+988514560+988644662+988873651+988860797
3561+988782790+988791087+988664521+988268161+987827050+987565893+987477412
3551+987454017+987374718+987099142+986569687+985970794+985721267+986153400
3541+987203197+988434308+989292046+989423441+988981378+988626163+988933499
3531+989794773+990513636+990487656+989795998+989028441+988558086+988242385
3521+987889823+987678517+987813652+988077665+988086303+987828818+987657774
3512+987895468+988570804+989350942+989804091+989878017+989871896+989895700
3502+989709489+989219344+988693561+988405472+988430568+988741236+989199213
3492+989489002+989343189+988933227+988817611+989292862+989962349+990182769
3482+989802935+989264570+988967844+988811286+988478174+987877309+987102883
3472+986114907+984787426+983276999+982035551+981384086+981282208+981508816
3462+981872124+982290655+982797735+983465386+984371139+985582323+986936531
3452+987937906+988213345+987952732+987644784+987614248+987927364+988395135
3442+988577673+988163630+987363428+986628924+986140138+985851981+985774042
3432+985868576+985856198+985510301+985047427+984841358+984875362+984946432
3422+985194192+985830966+986574108+986975433+987035961+987006513+986966456
3412+986924562+987024672+987439327+988159141+988869774+989065166+988470557
3403+987369413+986430267+986241132+986912592+987938382+988554549+988411797
3393+987856974+987545694+987802158+988323248+988567607+988393230+988088275
3383+987800526+987366148+986753653+986261195+986193594+986566627+987135936
3373+987631998+987969122+988168798+988153768+987874317+987615812+987820453
3363+988516260+989186835+989330744+988990831+988595559+988393230+988304886
3353+988280402+988410301+988656360+988876847+989103523+989418748+989693031
3343+989790829+989797562+989776003+989643384+989472612+989536949+989926032
3333+990438757+990866470+991132388+991211143+991101987+990831513+990454875
3323+990155497+990212081+990613270+990885853+990667337+990280294+990285667
3313+990613542+990640338+990034508+989081488+988240277+987752715+987648729
3303+987855546+988237420+988615962+988794079+988620315+988106706+987458914
3293+986931499+986654359+986608249+986718560+986929322+987255225+987768766
3284+988413769+988894121+988978385+988773336+988465797+988075625+987708713
3274+987680965+988136494+988849711+989474108+989767026+989728056+989681061
3264+989970034+990571308+991259634+991912118+992365743+992342620+991825746
3254+991202914+990877487+990961887+991317238+991677621+991841864+991871313
3244+991983937+992241965+992491153+992545832+992368599+992212857+992540052
3234+993520071+994710716+995550023+996016026+996424356+996761139+996683744
3224+996130690+995545195+995397614+995655982+995872797+995824442+995823626
3214+996205500+996776850+997058274+996904980+996649876+996737472+997268628
3204+997817534+997838277+997359284+996979927+997063510+997336977+997410156
3194+997254346+997024269+996775898+996496446+996209921+996009769+996041257
3184+996403885+997033790+997685323+998058084+998066177+998005172+998211174
3174+998578834+998753415+998658065+998425064+998025099+997396758+996763248
3165+996482028+996701359+997283454+997943147+998456960+998773273+998886918
3155+998745389+998446079+998347533+998742805+999485811+1000103066+1000277579
3145+1000079059+999665764+999001650+998133506+997511422+997633907+998440094
3135+999290827+999499753+998883109+997961170+997550596+997974364+998719478
3125+998974582+998479676+997743471+997375539+997326980+997107173+996768553
3115+997093979+998406429+999765126+1000005132+999255462+998721722+999101760
3105+999908287+1000365788+1000330967+1000181958+1000251191+1000567572
3097+1000913538+1000980867+1000554787+999669573+998649088+997926485+997645061
3087+997509790+997196265+996725978+996240729+995720252+995223577+995111361
3077+995650542+996546705+997198986+997359012+997263119+997162601+997072624
3067+996999241+997054873+997266655+997530057+997775096+998001228+998175196
3057+998170980+997809916+997087790+996381305+996115864+996142864+995796762
3047+994689089+993103240+991489846+989917871+988156965+986054106+983732664
3037+981607702+980235199+979937045+980506694+981366472+981921635+981757935
3027+980821714+979570064+978671793+978438860+978782377+979603661+980836132
3017+982179119+983175461+983595829+983525167+983079159+982301605+981438834
3007+980992147+981224536+981865255+982560994+983357523+984486279+985973174
2997+987660562+989364136+990913260+992251555+993537345+994967861+996472030
2987+997675529+998251435+998275103+998144932+998174516+998355762+998474371
2978+998340052+997916488+997264955+996346212+994929095+992713068+989363864
2968+984335502+976914559+966804922+954789043+942661627+932188819+923874366
2958+916885420+910560522+905929404+905212106+909638447+918175088+928475424
2948+938553640+947413803+954771428+960746145+965627675+969611409+972724960
2938+975006548+976677273+978110781+979578158+981033632+982300721+983398601
2928+984479546+985591300+986709787+987801614+988713148+989303676+989762741
2918+990413457+991160680+991556972+991497259+991469375+991957141+992814539
2908+993421797+993368341+992796108+992086155+991444212+990919789+990630408
2898+990706783+991086413+991586080+992109142+992589971+992852692+992761899
2888+992404304+991942859+991434418+990882452+990311715+989772602+989450849
2878+989651749+990452019+991506237+992403760+993099295+993834956+994740232
2868+995647957+996312616+996710132+996992372+997197081+997225509+997097379
2859+996992304+997030254+997203610+997487619+997842017+998149625+998307407
2849+998377729+998564824+998977370+999379171+999294703+998513408+997391181
2839+996440406+995751196+995098031+994513624+994402700+995048588+996261744
2829+997629011+998944930+1000265473+1001609957+1002811143+1003730226+1004456297
2819+1005124968+1005659456+1005888989+1005847979+1005757730+1005762287
2810+1005848931+1005986378+1006198977+1006490670+1006790457+1006993466
2802+1007072901+1007150704+1007382549+1007721033+1007912888+1007820055
2793+1007591066+1007419342+1007348340+1007440901+1007863309+1008590877
2785+1009287364+1009724598+1010096134+1010643340+1011145184+1011113899
2776+1010491951+1009888977+1009988475+1010801531+1011659745+1011975854
2768+1011867786+1011891318+1012300328+1012835496+1013181665+1013312720
2759+1013325709+1013232264+1013064212+1012976548+1013075162+1013268445
2751+1013417386+1013540348+1013735944+1013969421+1014106664+1014155019
2742+1014285258+1014550836+1014746499+1014674409+1014430186+1014281041
2734+1014341094+1014494592+1014597762+1014624286+1014621430+1014639248
2725+1014722356+1014864972+1014955561+1014895713+1014793902+1014886871
2717+1015235285+1015634093+1015848936+1015833158+1015713053+1015624300
2708+1015565200+1015444414+1015279423+1015221275+1015329546+1015485696
2700+1015579142+1015605393+1015551938+1015372460+1015104502+1014864972
2691+1014699777+1014580284+1014546483+1014668900+1014838856+1014817705
2683+1014594022+1014492755+1014794718+1015407757+1015989240+1016289027
2674+1016314054+1016236523+1016173138+1016077720+1015883689+1015668846
2666+1015559419+1015515825+1015357974+1015014185+1014633671+1014420937
2657+1014433179+1014580012+1014763842+1014968687+1015235761+1015601313
2649+1016054869+1016559569+1017086100+1017583590+1017960160+1018176023
2640+1018314762+1018492676+1018768251+1019175833+1019692570+1020126540
2632+1020269292+1020219373+1020270992+1020430135+1020409052+1020181084
2623+1020128376+1020490800+1021036577+1021434434+1021688518+1022052574
2615+1022676086+1023457721+1024194810+1024751197+1025056492+1025138648
2606+1025261202+1025766581+1026616022+1027355355+1027683910+1027732809
2598+1027692615+1027584072+1027515722+1027753076+1028365435+1029080828
2589+1029592397+1029799418+1029733789+1029457806+1029076680+1028746357
2581+1028604829+1028651959+1028675083+1028444326+1028051978+1027870596
2572+1028103938+1028604149+1029115649+1029402718+1029227253+1028598368
2564+1027964450+1027767562+1027900113+1027899024+1027500148+1026778429
2555+1026025222+1025676469+1026062627+1027070191+1028225743+1029019008
2547+1028999489+1027985125+1026528562+1025711085+1026077386+1027142621
2538+1028189630+1029066070+1029940538+1030784674+1031447361+1031948116
2530+1032435133+1032980775+1033512610+1033890880+1034110551+1034419791
2521+1035040379+1035808684+1036408530+1036855693+1037369166+1037947860
2513+1038493366+1039113818+1039910347+1040702388+1041239800+1041455799
2504+1041434512+1041368338+1041466476+1041693289+1041792651+1041671730
2496+1041428323+1040998978+1040239514+1039315467+1038507512+1037704590
2487+1036586919+1035234411+1034125173+1033598030+1033631559+1034057095
2479+1034725222+1035471833+1036098406+1036535300+1036967909+1037545583
2470+1037980505+1037817894+1037109097+1036328414+1035649406+1034814451
2462+1033638700+1032180573+1030574865+1029080828+1028068164+1027671464
2453+1027722471+1028152700+1029080352+1030407357+1031768434+1033004374
2445+1034295741+1035743327+1037157248+1038352382+1039372255+1040368596
2436+1041431996+1042515117+1043393326+1043802064+1043757178+1043643330
2428+1043854296+1044382187+1044867300+1045034535+1044965642+1044922796
2419+1044996586+1045034740+1044877025+1044503448+1043897890+1042930180
2411+1041549516+1039980941+1038540769+1037365358+1036510204+1036131934
2402+1036279039+1036649012+1036845628+1036798837+1036721442+1036800129
2394+1037128276+1037745192+1038496834+1039045400+1039256842+1039418093
2385+1039908443+1040850717+1042174865+1043747453+1045296237+1046443492
2377+1047003551+1047199079+1047512876+1048275672+1049305134+1050054601
2368+1050304876+1050501696+1051152141+1052219348+1053341440+1054144022
2360+1054199110+1053373404+1052265799+1051483960+1050584328+1048679241
2351+1045881664+1043110610+1040860170+1038990653+1037392493+1036430157
2343+1036454504+1037090939+1037640729+1037835644+1037814153+1037760834
2334+1037858564+1038269818+1038870139+1039200122+1038837291+1037680310
2326+1035939535+1034152921+1033120942+1033398626+1034748006+1036370104
2317+1037675754+1038648292+1039577712+1040638323+1041749805+1042769134
2309+1043720113+1044793577+1046150370+1047744789+1049365799+1050836508
2300+1052090810+1053083955+1053771329+1054195641+1054456390+1054582140
2292+1054501753+1054099884+1053266017+1052045652+1050848886+1050289234
2283+1050556920+1051154249+1051574141+1052000833+1052915495+1054217200
2275+1055117988+1054752777+1052818854+1049853292+1046760077+1043847903
2266+1040729660+1037300408+1034104158+1031505373+1029331376+1027617260
2258+1026989803+1027934185+1030187142+1033145630+1036396424+1039547108
2249+1042098082+1043967804+1045650363+1047510495+1049455368+1051365963
2241+1053161010+1054573367+1055536588+1056550612+1058260919+1060975593
2232+1064442045+1067618981+1069295827+1069569226+1069872549+1071062582
2224+1072461881+1073109265+1073024933+1072952503+1073353488+1073741823
2215+1072989500+1070543737+1067020836+1063265138+1059486453+1055887110
2207+1053329470+1052615029+1053465966+1054625802+1054904234+1054277729
2198+1053942441+1054794943+1055984840+1055630849+1052745403+1047838166
2190+1041849643+1035001954+1026926146+1017965941+1009660261+1003143710
2181+997715043+992003863+985862319+980154540+975458064+971727734+968733677
2172+966220651+963450414+959088682+952560366+945322982+939505979+935565295
2162+932251252+927609524+919080500+905028139+886784819+866650422+845093330
2152+821604900+796619510+771329368+746548278+722676206+700145012+679079358
2142+658767864+638172701+617132755+596702108+578231363+562543234+549961208
2132+540313595+532594736+525375068+517998026+511010543+505410491+502053330
2122+501753781+505172491+512223359+521923543+533032854+544611261+555930178
2112+566354835+575586467+583587056+589999619+594070746+595491468+595174679
2102+595019753+596855062+601467341+608459415+616874047+625799159+634556559
2092+642766890+650338610+657256349+663551732+669541343+675740152+682416321
2082+689461034+696629184+703643089+710258049+716506369+722624995+728613722
2072+734220914+739455890+744749627+750499912+756669409+762827412+768517712
2062+773710794+778890750+784563028+790703077+796753625+802027434+806056735
2053+808853360+810985123+813157556+815619234+818301059+821561510+826034846
2043+831603613+837214139+841715834+844565031+846347429+848910985+853669825
2033+859438065+863748789+866310713+868914735+872316443+875466175+877595489
2023+879326675+881579495+884244862+886279983+887157172+887875558+889783229
2013+892753279+895396815+896772446+897366375+898468403+900752712+903617687
2003+905925323+907121545+907640935+908471197+910271345+912875367+915748843
1993+918590015+921143574+922949298+923808804+924094309+924430413+925399958
1983+927348299+930088817+933000719+935735387+938602335+941784235+944404919
1973+945279115+944565490+943801061+944147367+945154862+945412006+944300864
1963+942750244+942270776+943615667+946383456+949665807+952579477+954238165
1953+954054539+952446586+950798576+950407316+951612311+953946607+956697054
1943+959105276+960635766+961529617+962444279+963589834+964868279+966293490
1934+967791335+969166422+970476764+971804041+972876009+973505439+973890237
1924+974118954+974082841+974024760+974427242+975353125+976375651+977151573
1914+977676267+978020736+978283186+978787477+979849856+981237729+982319287
1904+982764410+982780529+982800796+983172196+983967365+984913176+985527915
1894+985437190+984638893+983485721+982414705+981645515+981110891+980658015
1884+980215612+979940717+980162769+980974736+982129064+983436618+984869037
1874+986286291+987510805+988550333+989489138+990276690+990709163+990651695
1864+990262544+989856050+989541165+989218256+989025584+989430378+990743508
1854+992778493+994974934+996795212+998058696+998950507+999818650+1000876132
1844+1001850371+1002301955+1002553727+1003226614+1004232817+1004877889
1836+1004698819+1003998116+1003491920+1003747908+1004824161+1006133007
1827+1006998566+1007220482+1006955584+1006507400+1006058537+1005656464
1819+1005403196+1005255207+1004895911+1004189155+1003319039+1002404649
1810+1001419121+1000417407+999595918+999273757+999711875+1000808463+1002211502
1800+1003646506+1004875305+1005760722+1006554803+1007586714+1008683642
1792+1009238125+1009067692+1008713974+1008679765+1008995806+1009313547
1783+1009418486+1009479015+1009539815+1009395227+1009015461+1008473968
1775+1007633436+1006092814+1003396774+999743091+995725488+991275412+986197266
1765+980534850+973545292+963996123+952358922+939609694+924042758+904124767
1755+881764073+858201921+830199622+793198760+747855220+700327346+653492218
1745+606151847+559771704+521246745+500501587+503809135+526520283+561187223
1735+609582594+668978699+710210306+713044949+685625765+640373222+589466288
1725+544318752+514254229+503997114+510388662+527665157+553071392+583240683
1715+611317249+634896540+656187713+676616388+696173928+714879714+733552175
1706+751896626+767351891+778664618+787293548+795267546+804585618+817704886
1696+834552580+850220103+861712240+871100974+880496713+889484531+897081142
1686+903508259+908501393+911016662+912640189+915528288+920163962+926206009
1676+932957941+939227071+944180419+948444693+953199997+958314936+962504263
1666+965730234+968941038+972724824+976871373+980885031+984609377+988046721
1656+991359540+995294783+1000459369+1004740917+1007093236+1009109110+1011982383
1646+1015354166+1017852365+1019478204+1020799904+1021857046+1022568971
1638+1023079247+1023397057+1023116585+1022173631+1020824251+1019031312
1629+1016594322+1013535179+1010226781+1006961025+1003890797+1001513043
1621+1000286012+1000137819+1001061187+1003260143+1006210198+1009083403
1612+1011708508+1014011179+1015751138+1017046110+1018386989+1019931488
1604+1021353094+1022197366+1022131737+1021139544+1019462357+1017254220
1595+1014553964+1011466189+1007941860+1003672622+998373241+991671432+982839085
1585+970877001+954406897+932261590+905074590+873555987+833187354+776984576
1575+715666858+671138142+643255880+621050520+599113187+578472593+559043320
1565+538646848+519119913+505209760+500256956+508999225+533657761+559336170
1555+580705827+602165392+624007512+644944084+664443815+681436641+695197377
1545+706827234+717674231+728030403+738960712+751447082+762054006+769609403
1536+776835226+785871262+796210772+805385411+812965225+820505592+829005576
1526+837813576+846063352+854437178+863464849+871631314+878154393+884162570
1516+890237602+896021892+901490957+906927377+912483155+918831517+927306337
1506+935982194+941577485+945344609+948969524+952976109+957332808+961808388
1496+965816062+968840452+971188349+973638125+976827235+980634688+984203971
1486+987070782+989412491+991590093+993788777+995800775+997279713+998148469
1476+998596720+998858490+998954247+998580058+997524888+995714947+992581197
1466+986855056+977746385+966837227+956269953+945766813+932820221+915479593
1456+899358650+891553249+889737255+890347029+891967087+894329403+897902563
1446+903375165+911271631+921962886+934882614+948081046+959543395+967727950
1436+971009144+969741920+966503368+962577714+958214758+954135674+950396843
1426+944399819+931673510+909369400+877222320+831357758+764748753+686827972
1417+622295165+577430005+545021054+521869000+508720895+506052468+513026553
1407+528372832+550408677+575239278+598306252+618560618+637250626+654101041
1397+667293556+675464781+677608445+673914228+666483969+657724868+650252238
1387+647656717+652070544+662101562+675260140+689712669+704116776+717826709
1377+731314589+745864645+762270957+779616209+796730978+813933954+831489357
1367+848183621+863063320+876817254+890112464+902094747+911822169+919592749
1357+926012862+931161125+934721771+936554224+936935894+936308641+935070593
1347+933366883+930746334+926184586+918251803+904761746+882966688+851820098
1337+813600435+771706209+729015999+688924846+655560528+632306052+620398511
1327+618733975+624797717+635859557+649644912+664558479+679635813+694074537
1317+706800506+716608452+722352956+722934031+717614791+706342189+689629630
1307+668608114+645169128+621457762+599253423+580045861+565311499+556345241
1298+553780256+557210324+565313335+576514731+589607816+603899299+619003837
1288+634517726+649832958+664303851+677517720+689365616+699986277+709649771
1278+718583724+726950885+734973237+742916834+750949320+759119117+767400382
1268+775638256+783449914+790178110+794829087+795915542+791334003+778679920
1258+756214696+724144875+685623588+646643509+614135161+593095011+584731319
1248+586778138+595483919+607638334+621238499+634843492+646699889+654474074
1238+655675193+648429307+632247359+608538442+580533762+552220523+526614068
1228+504591450+485173025+466831532+448662478+430649065+413236346+396947351
1218+382362815+370188575+361153933+355799872+354317805+356515232+361902073
1208+369818058+379524975+390273869+401364069+412119763+421751768+429277616
1198+433758500+434903001+433679269+432312887+433347790+438207897+446247149
1188+454971463+461273170+463102222+460819614+457182219+455606843+458087190
1179+464564464+473803339+484412711+495306091+505864761+515913971+525461984
1169+534453304+542694273+549745243+554621876+555647054+551327148+542459538
1159+533441388+530147170+535495348+547410913+561305084+573764148+583741982
1149+591608048+598215323+604519819+611241078+618609449+626422876+634277720
1139+641797956+648763982+655059161+660539040+664999522+668192983+669755777
1129+669052966+665017408+656175676+641235040+620404428+596728836+575916518
1119+563889485+563616154+573911117+590926931+610553160+629916396+647630941
1109+663288738+676831299+688313371+698025899+706479772+714098963+721039417
1099+727364588+733219880+738696767+743706358+748182074+752285914+756254958
1089+760186256+764089467+767961937+771696076+775112541+778213238+781227086
1079+784309080+787360878+790254213+793054715+795878885+798687412+801371957
1069+803887703+806171195+808107974+809709602+811190648+812832130+814895135
1060+817586209+820885154+824438863+827834586+831023627+834346103+838115539
1050+842302010+846670950+851103140+855694881+860612660+865892930+871357779
1040+876783386+882198791+887881339+893990171+900391377+906880315+913293490
1030+919310917+924347577+927590210+927794919+922969293+910388049+887055293
1020+850741397+801748731+744308788+685634742+632636579+589170990+556129208
1010+533371712+521095594+519618118+528289622+544868406+566107620+588972674
1000+611361047+632074615+650599427+666932968+681308919+693946067+705090675
990+715150936+724566534+733556188+742089769+750055265+757414182+764266700
980+770791343+777086930+783095176+788681150+793753174+798357021+802717256
970+807091502+811507369+815660108+819020873+820921403+820469547+816407330
960+807377891+793117148+776007141+760957962+752293463+749676315+747500890
950+739686511+725858786+712330644+706518742+710805595+721745698+733577815
941+741150283+740216919+726938304+698940493+658158429+612816930+575128082
931+555055506+555265009+571416387+596327307+623740710+649724143+672509761
921+691833687+708123498+721825949+733205802+742537816+750254873+756808760
911+762488588+767495119+772100869+776565704+780945798+785139002+789102402
901+792919852+796674598+800327057+803714890+806679499+809183751+811218396
891+812584098+812930608+812043014+809831135+805915071+799447420+789547525
881+776009045+759985152+744506424+734044973+732438721+740389323+754995555
871+771816861+787232272+799232849+806804365+808718225+803147757+789937560
861+773874630+763475748+764359533+774642391+787858641+798885864+806154601
851+810371064+813160820+816182150+820150650+824608615+828785429+832374843
841+835424056+837931369+839896372+841573966+843323243+845242543+847175514
832+849005518+850752823+852436062+853968864+855236088+856246643+857125328
822+857977965+858883990+859921545+861045813+862135260+863271294+864724524
812+866538070+868305437+869511452+869941953+869191399+865786903+858363444
802+848584266+840847827+837056560+832407692+817578252+785879083+740581178
792+696819611+673533918+679870719+709342979+747363306+782293342+809513190
782+829164175+843100443+853310190+861278474+867744289+872867797+876803925
772+880081854+883264027+886467146+889516903+892346309+894936185+897072437
762+898495131+899272482+899779290+900138925+899739980+897303262+890988360
752+878012184+855207048+822282685+785299573+754789825+738407793+735754872
742+740919458+748576599+756546787+764322128+771554752+778050763+783992359
732+789623628+794970683+800127788+805625078+812073890+819430903+826952160
722+833809643+839457369+843639692+846570296+849128888+852517945+857467009
713+863706011+870302745+876513931+882173968+887317607+891696409+894918299
703+896936690+897946973+897640114+894731136+887038563+871747814+846111503
693+809150631+763928964+718605963+684059094+668191487+671310478+687245619
683+708458105+729676033+748461662+764371843+777936167+789778962+799933145
673+807829611+813297996+817290435+821186301+824818969+826691275+826635031
663+825165546+822537449+819038828+815373311+812815195+812876880+816318373
653+822443460+829580462+836268396+841949924+846729031+850825117+854450848
643+858014486+861863425+865713589+868960098+871630361+874311438+877217695
633+880096749+882856241+885541194+887873654+889324844+889420329+887477361
623+882038765+870835328+851259154+821236492+781515923+738539596+703204631
613+684503333+684458651+698593916+719887062+742381462+762568499+779243653
603+792766626+803915927+812940333+819558150+823581737+825108350+823897166
594+818566841+806600880+785926894+757165743+724452414+694706891+675484232
584+671035107+679969129+697112733+717081527+736741149+755123413+771742255
574+786053324+798171830+808739988+818094786+826084085+832383684+836699781
564+838528833+836183860+826657338+808905524+788033698+773634011+772077406
554+781521636+795258160+808100765+818558407+827021666+833849428+838967156
544+842322481+844230152+845150322+845004034+842606761+835902164+822758412
534+801614548+772703775+739689504+707883288+679373296+653270847+632515249
524+625456934+637537899+666335911+704260821+742391664+773925637+796723020
514+812648776+824512994+833853169+840880608+845828923+849802796+853987838
504+858567813+862812092+865809822+867331539+868246473+869707728+871967009
494+874171543+875166864+874213641+871100430+865861170+858598417+850152365
484+842874583+839523951+841110208+846779766+854934533+863438733+870159108
475+874127336+875653677+875961353+876500874+877194640+876033035+871290245
465+863548773+855242004+849433639+848892350+854601557+864025045+872306105
455+877234562+880112459+882817815+886154369+889079533+889173318+885182375
445+879537573+877116497+880692853+888243354+895709999+900764546+903208677
435+903830421+903188954+900821198+895465845+885826087+870690332+848844947
425+821458680+795081063+778212830+775879759+788094022+805842028+819047941
415+828680830+838546312+849311834+859592107+868093451+874110810+877283529
405+878146571+878587886+881040247+886594324+893242473+896667099+896889831
395+899066004+903159302+904271668+900118318+894072395+891279986+893224110
385+897485392+902026873+907244030+913260369+919450813+926121473+932581099
375+931946229+917434054
##END=
