##TITLE=JPK- X13590
##JCAMP-DX=4.24
##DATA TYPE=INFRARED SPECTRUM
##DATE=10/10/2019
##SAMPLING PROCEDURE=Diamant-ATR
##ORIGIN=Fabienne
##XUNITS=1/CM
##YUNITS=TRANSMITTANCE
##RESOLUTION=4
##FIRSTX=3997.453
##LASTX=373.96442
##DELTAX=-1.4165319
##MAXY=0.78013355
##MINY=0.38456786
##XFACTOR=1
##YFACTOR=7.2655598e-010
##NPOINTS=2559
##FIRSTY=0.72146672
##XYDATA=(X++(Y..Y))
3997+992995361+993176745+993592674+993821886+993560433+992888958+992217402
3988+991842163+991749625+991890565+992309775+992943349+993507765+993661749
3978+993270185+992663684+992518806+993126620+993896130+993993836+993341722
3968+992612821+992380656+992626275+992991423+993201438+993198895+993011768
3958+992666309+992316995+992210100+992306330+992205014+991677761+991026385
3948+990713823+990842375+991146405+991258386+991005630+990664601+990658694
3938+990986269+991308511+991461921+991537067+991541169+991398014+991259207
3928+991346084+991559053+991627718+991568487+991601712+991650770+991479313
3918+991241569+991312449+991614428+991818783+992021743+992548258+993311696
3908+993825331+993809580+993467321+993118417+992686983+991951191+991269297
3898+991309003+992093936+992941872+993208247+992834486+992492554+992817176
3888+993426877+993497839+992924727+992577299+992992653+993576759+993627786
3878+993302344+993123011+993209478+993590869+994465796+995652301+996223034
3869+995523010+994205738+993276010+993135644+993582009+994141421+994590411
3859+995058351+995707840+996466192+996885895+996299328+994983533+993966189
3849+993599401+993772910+994200816+994537989+994590739+994366941+993974229
3839+993654284+993671019+993884808+993986124+994062993+994298522+994437985
3829+994135760+993630165+993565027+994146999+994831354+994930619+994469816
3819+994113938+993921397+993447304+992845397+992747034+993236140+993945106
3809+994602224+995121438+995480925+995595613+995250810+994421004+993743294
3799+993776683+994083503+994145851+994152332+994450619+994883366+995148428
3789+995285184+995436461+995421448+995002238+994453573+994317063+994668428
3779+995056874+995102815+994918642+994831354+995024716+995434574+995783642
3769+995826138+995612020+995320460+995038006+994858180+994830452+994748907
3759+994337408+993846907+994010161+995121274+996718046+997897332+997818330
3750+996766612+996027949+996051412+996068476+995044323+993371583+992257354
3740+991868005+991781374+991695235+991399326+990864936+990790364+991936424
3730+993937969+995649840+996207775+995672236+994896245+994594266+994758751
3720+995019383+995191990+995392817+995786185+996316884+996607624+996193664
3710+995194041+994301640+993939117+994130674+994703212+995266972+995342856
3700+994910930+994532574+994670315+995259178+995866172+996157404+996240179
3690+996504421+997032167+997441943+997645723+997896429+998166660+998061324
3680+997338494+996230499+995019958+993802689+993041055+993275928+994284084
3670+995380675+995938364+995981024+995986274+996239851+996696389+997087296
3660+997248417+997296901+997346452+997320036+997266958+997441287+997821775
3650+997878053+997080569+996006866+995687905+996121061+996688021+996816409
3640+996341988+995659848+995229563+995006750+994822494+995079189+996323775
3631+998129579+998939943+997985686+996722805+996216635+996278655+996682524
3621+997349487+997887569+997814228+997274669+996694994+996171678+995613087
3611+995072543+994695418+994474410+994311320+994292944+994601075+995172957
3601+995663950+995850913+995911456+996037219+996044275+995723755+995349419
3591+995359018+995716864+995951326+995839756+995725396+995796686+995785611
3581+995367303+994487126+993454523+992758437+992679025+993123093+993816882
3571+994454147+994653579+994139698+993207755+992603879+992579924+992847283
3561+993199551+993550671+993742638+993629426+993276584+992898393+992672544
3551+992712742+993108900+993808842+994497955+994762361+994458413+993855111
3541+993407106+993428189+993885957+994501892+994992065+995166312+995020204
3531+994836768+994890257+994999858+994774830+994199093+993495706+992735303
3521+991999183+991536246+991551587+992096807+993076578+994120747+994672366
3512+994427977+993653709+993030062+993094544+993731317+994300081+994297210
3502+993842559+993445581+993394472+993512934+993416212+993028668+992761144
3492+992981086+993526224+993955771+994028456+993787594+993417606+993101189
3482+992855323+992589769+992434882+992681814+993253122+993631231+993518020
3472+993166244+992835060+992381312+991686949+991082006+990964201+991249198
3462+991581039+991872189+992221832+992451454+992253334+991807379+991708935
3452+992190165+992870828+993300539+993342214+993110295+992844576+992699288
3442+992525944+992108456+991619842+991479313+991784245+992198451+992330531
3432+992057511+991588832+991249608+991147144+991169212+991293744+991623288
3422+992144552+992753679+993424169+994028456+994186049+993657483+992754007
3412+992064566+991839292+991892534+992013211+992152674+992208624+991989256
3403+991527222+991164125+991174134+991497115+991876291+992100909+992074165
3393+991814024+991484727+991361671+991638055+992205424+992672380+992714219
3383+992414783+992147424+992132739+992283770+992490832+992802737+993186918
3373+993375931+993216615+992941954+992822836+992773040+992515115+991908613
3363+991005876+990070897+989575967+989840455+990681582+991660287+992487140
3353+992989126+993018905+992662207+992218632+991832729+991490223+991415980
3343+991939213+992863773+993485369+993429420+993055822+992838423+992732513
3333+992457278+992085240+991923626+991992620+992041678+991996229+992001808
3323+992082943+992141845+992224867+992457689+992757945+992878704+992745803
3313+992582549+992616595+992747280+992691823+992483448+992471061+992696171
3303+992734564+992372288+991964235+991857094+991888514+991754876+991547403
3293+991621893+992088685+992670165+993055166+993241144+993471013+993930831
3284+994569409+995155237+995485109+995527522+995352044+995027259+994681472
3274+994514690+994537168+994443482+993987437+993403988+993188804+993472161
3264+993880542+994089737+994226658+994584832+995177879+995703820+995867156
3254+995729498+995682080+995918758+996109822+995888568+995387895+994935951
3244+994591477+994357671+994434376+994925697+995626705+996235831+996507293
3234+996271190+995591675+994842429+994435278+994537415+995024552+995582077
3224+995907847+995914246+995718505+995499547+995424319+995562224+995768055
3214+995782166+995497086+995025946+994568261+994357343+994561780+995082470
3204+995620716+996038204+996414262+996728711+996817147+996695404+996582275
3194+996529935+996392277+996188086+996124343+996214092+996236652+996101947
3184+995920973+995765184+995702179+995899315+996300477+996434115+996012362
3174+995468701+995435640+995911292+996352653+996398757+996140586+995808664
3165+995542617+995443106+995556645+995769040+995877575+995791108+995587901
3155+995407666+995334406+995344497+995381496+995505208+995877083+996530673
3145+997208957+997477957+997103785+996419513+996117944+996492690+997117322
3135+997441451+997365812+997082456+996758655+996540518+996491542+996428209
3125+996052970+995263280+994226822+993247707+992578612+992254728+992146111
3115+992209362+992505844+992905284+993028668+992625701+991847085+991080283
3105+990623336+990514473+990627110+990940492+991646012+992783212+993900313
3095+994431669+994380149+994268579+994423219+994671135+994720850+994473261
3085+993923448+993137449+992437261+992249068+992595593+993088145+993564617
3075+994284658+995334406+996363563+997111661+997709056+998214898+998227614
3065+997150957+994614694+990440065+984162822+974855123+962136480+947890714
3055+936425928+931808544+934665901+941895351+949345480+954507755+957166992
3046+958397387+959336713+960612228+962349203+964310959+965966963+966678964
3036+966036694+963887237+959908185+953247910+942647878+927179675+907840299
3026+889071820+877550757+877583818+887376767+900524465+911099475+917039791
3016+919650380+921355688+924052252+928480786+934216501+940121952+945139021
3006+948918476+951752535+954000847+955793115+957223844+958505512+959844196
2996+961271890+962623699+963763114+964874719+966349256+968324139+970567693
2986+972754067+974592686+975848758+976480937+976514490+975513062+972200562
2976+964607195+950851766+930681599+906951426+885307624+871451124+867850592
2966+872726803+882004312+892128610+901384215+909404667+916217039+921838723
2956+926355283+930024399+933179058+936047901+938742249+941340205+943829050
2946+946032571+947782261+949101502+950094562+950772846+951144639+951371226
2936+951623818+951808484+951632842+950972361+950000137+948931848+947851664
2927+946809217+945867594+945013340+944193542+943447167+942886278+942617196
2917+942766504+943432236+944522839+945825509+947294139+949034641+950960957
2907+952742396+954182068+955430018+956732359+958090568+959252953+960043874
2897+960612638+961244817+962013260+962792696+963500103+964073215+964308006
2887+964013984+963341935+962767839+962665784+962961775+963292631+963442841
2877+963480086+963491981+963411995+963185244+962916736+962699091+962362000
2867+961556477+960130177+958307966+956479520+954925735+953771225+953062587
2857+952841087+953147004+953903879+954808012+955498109+955875480+956150387
2847+956558850+957153292+957889822+958761058+959731805+960658989+961452043
2837+962260028+963326184+964654695+965938250+966879381+967539945+968259903
2827+969192093+970108120+970782384+971338187+971996453+972694918+973222008
2817+973594703+974041396+974601792+974983101+974961361+974734610+974675543
2808+974902705+975312234+975813728+976269773+976431058+976215875+975912255
2798+975893222+976213085+976585698+976720239+976627373+976552719+976627373
2788+976713184+976668064+976599399+976713594+977035919+977428467+977782129
2778+978038578+978103141+977953505+977832500+978091492+978745657+979402939
2768+979747003+979863414+979980809+980144802+980274667+980353915+980482139
2758+980798557+981303578+981766104+981955938+981927307+981888339+981888011
2748+981822381+981646576+981411047+981179620+981021042+981010705+981138765
2738+981248941+981148774+980794127+980361462+980124211+980194270+980365564
2728+980318557+979986798+979586538+979335915+979338540+979605571+979935033
2718+980001237+979824529+979863824+980425779+981283807+982043144+982579421
2708+982978778+983234898+983187563+982796327+982348240+982193354+982336016
2698+982514365+982566869+982487375+982296803+982100077+982078255+982243807
2689+982384993+982360135+982255948+982198932+982204347+982253897+982350455
2679+982463174+982547016+982606575+982657931+982684100+982673107+982600340
2669+982374656+981956594+981486849+981151153+981015709+981130561+981593497
2659+982333473+983017090+983362712+983416283+983408489+983482323+983654601
2649+983905717+984204168+984518207+984851032+985209781+985546626+985792163
2639+985935564+986020965+986102264+986264041+986592929+987004345+987177444
2629+986862503+986225238+985667631+985347357+985142592+985027904+985110598
2619+985279677+985180494+984637735+983918597+983550742+983941731+985092139
2609+986602773+988005774+989059542+989690080+989830200+989528139+989106221
2599+988914254+988898913+988725158+988393154+988379782+989002854+989948334
2589+990600284+990629735+990189769+989695659+989460294+989504512+989647175
2580+989626666+989155690+988179611+987120674+986543788+986546003+986747815
2570+986842486+986914597+987219037+987818237+988552552+989315991+990142106
2560+990939015+991407448+991353714+990892254+990337846+990081644+990392401
2550+991125814+991852336+992388859+992887892+993348695+993437870+992948107
2540+992193693+991784737+992026255+992563271+992710199+992194267+991421476
2530+990927940+990829824+990980854+991342556+991885889+992351204+992453587
2520+992222406+991902214+991657333+991568487+991744047+992177778+992616677
2510+992808398+992814879+992884282+993054592+993056889+992696253+992215515
2500+992081302+992384593+992720044+992791744+992796913+992944334+992950814
2490+992399852+991389236+990488467+990104533+990073851+989945544+989610586
2480+989447742+989744389+990256794+990588634+990729410+990907923+991129752
2470+991178318+990955013+990558116+990101087+989687865+989486628+989564071
2461+989718465+989733970+989717809+989941360+990465086+991083073+991491126
2451+991467007+991062071+990526778+989903213+988956175+987665073+986423276
2441+985582148+985147843+985033729+985270899+985911363+986934450+988206437
2431+989419932+990271806+990794220+991254695+991667916+991737976+991372418
2421+990954274+990976670+991562826+992373026+992902412+992895521+992523400
2411+992123305+991798848+991438376+991091440+991054278+991433864+991865298
2401+991908367+991568241+991211215+991123763+991356667+991806477+992227820
2391+992333976+992048733+991526648+990906282+990257860+989784177+989768836
2381+990223569+990784621+991104074+991189557+991261258+991478738+991958328
2371+992753515+993544436+993720898+993238683+992933505+993325643+993623192
2361+992878786+991640352+991264375+992043319+993135972+993748545+993523845
2351+992549160+991424019+990758369+990642697+990756975+990870022+990972158
2342+990866084+990300355+989586385+989373663+989831266+990489123+990803080
2332+990558527+989808296+988696938+987410758+986189716+985285091+984805829
2322+984607545+984492447+984503932+984778183+985258019+985860090+986662906
2312+987566957+988110782+988022510+987628074+987440291+987631110+988024889
2302+988382407+988646813+988970532+989434206+989885001+990206423+990500936
2292+990832695+991066337+991040495+990712839+990231362+989996079+990353023
2282+991116216+991758075+992114855+992471553+992939083+993237863+993224819
2272+993237288+993629919+994227314+994681062+995132841+995915148+996743068
2262+996952427+996490229+996010147+996063061+996654960+997413886+997860333
2252+997736785+997221755+996619520+995967816+995346548+995363448+996570297
2242+998345091+999214111+998632385+997699622+997710041+998744940+1000023491
2232+1000782417+1000492990+999148646+997719639+997503307+998720493+1000311934
2223+1001145514+1000895300+999974268+999208041+999293195+1000029643+1000506936
2213+1000402749+1000311031+1000467968+1000309637+999756459+999662609+1000408738
2203+1001175129+1001044854+999972792+998558798+997503963+997234635+997651958
2193+998326550+998952413+999395332+999514614+999338152+999322318+1000037765
2183+1001481538+1002956568+1003811232+1004013618+1003915419+1003810001
2174+1003683172+1003148699+1002006577+1001031728+1001426409+1003174295
2166+1004615361+1004090569+1001826833+1000177393+1001692620+1006038379
2157+1009675910+1010092741+1008103338+1005583482+1003623531+1002638756
2149+1002559016+1002833676+1002966577+1002970022+1003119330+1003581938
2140+1004222895+1004477456+1003809673+1002554586+1001792049+1002124464
2132+1003124088+1004053898+1004551700+1004545957+1004019771+1003029171
2123+1001735608+1000351065+999084082+998043030+997157438+996319181+995628920
2113+995330715+995466158+995756242+995900217+995897838+996084883+996858658
2104+998211944+999542917+1000177639+1000126858+1000040636+1000348850+1000773147
2094+1000844930+1000556405+1000184776+999746533+999107135+998582425+998831982
2084+999922503+1001002359+1001241169+1000729175+1000221529+1000301597
2075+1000871346+1001223613+1000814001+1000133339+1000268536+1001396220
2067+1002502410+1002882324+1003005954+1003519179+1004315597+1005051717
2058+1005813761+1006906907+1008331402+1009557612+1009794126+1008692037
2050+1006910189+1005741650+1005886446+1006740289+1007221602+1007063270
2041+1006975408+1007505943+1008183981+1008184801+1007420706+1006368251
2033+1005525564+1005684142+1007491258+1009942449+1010781690+1009316587
2024+1007314140+1006341917+1006102942+1006093836+1006804525+1008323772
2016+1009531442+1009501253+1008482514+1007396341+1007214465+1008377671
2007+1010189053+1011284824+1010970211+1009632676+1007952308+1006221732
1999+1004545793+1003499408+1004048402+1006409105+1009361953+1011197126
1990+1011206068+1010051148+1009046602+1009026175+1009385252+1008784411
1982+1007254417+1006559479+1007924415+1010361659+1011864417+1011700917
1973+1010801379+1010072560+1008901971+1005765277+1000316692+994375473+990432928
1963+989613376+991369301+994312633+997158176+999382862+1001102691+1002405524
1953+1003117361+1003237546+1003165271+1003167732+1002897501+1001640445
1945+998741085+993869714+987662940+982016645+978925647+979282344+982639472
1935+987367278+991512045+994108852+995505864+996535103+997808567+999453250
1925+1000924998+1001439043+1001021556+1000401190+999590662+997909555+995728595
1915+994573347+995080993+996456512+997796918+998932231+999936285+1000605627
1905+1000855758+1001085381+1001774493+1002931957+1004109437+1004885181
1897+1005218909+1005325639+1005297090+1005006186+1004435453+1003924853
1888+1003920341+1004446774+1005091669+1005476260+1005536311+1005394140
1880+1005115460+1004696086+1004152261+1003572504+1003208997+1003452975
1871+1004486234+1005904002+1006897883+1007135135+1006953504+1006504432
1863+1005586846+1004159972+1002363193+1000174357+997721034+995771665+995196584
1853+996033035+997588790+999286304+1000972826+1002607582+1004002543+1004837272
1843+1004964758+1004539148+1003570207+1001760383+998831408+994810599+990104533
1833+985459584+981938710+980765496+982350373+985581820+988998753+991861196
1823+994145523+996129675+997956070+999579669+1000915235+1001872446+1002393546
1813+1002541542+1002503969+1002543264+1002829328+1003262567+1003650521
1805+1004005824+1004457111+1004982560+1005464528+1005847150+1006026401
1796+1005892845+1005622450+1005621302+1005984973+1006279404+1006238632
1788+1005987598+1005510961+1004482379+1002647944+1000224646+997926865+996641916
1778+996769402+997921451+999372853+1000514319+1001026888+1001033615+1000913185
1768+1000906457+1001090057+1001424030+1001661036+1001359959+1000266239
1759+998540011+996379643+994066357+992209608+991229181+990955259+990850169
1749+990349496+989206635+987422817+985002473+982084654+978984139+975999706
1740+973479194+971805963+970959913+970491316+969992940+969569874+969489970
1730+969666186+969848801+969772014+969152469+967836919+966095351+964509407
1720+963554822+963591739+964876524+967044358+969308339+971294461+973083119
1710+974877437+976751660+978565503+980070968+981222033+982296064+983563129
1700+984894348+985927361+986713852+987466297+988194870+988916551+989695167
1690+990456636+991047304+991493833+991979412+992517740+992872633+993089539
1680+993456164+994072099+994779753+995256635+995314389+995164917+995164015
1670+995541961+996295555+997144886+997891425+998569627+999261693+999976155
1660+1000668796+1001318366+1001913793+1002404211+1002607582+1002245879
1652+1001568744+1000909657+999795099+997439482+993918362+990661565+988304389
1642+986378565+984553073+982913066+981793258+981848469+983662477+986664629
1632+989953502+993152298+996019007+998323597+1000113075+1001641019+1002985035
1622+1003995734+1004603301+1004780666+1004154230+1002069171+998549692+994404186
1612+990477556+987722992+986862257+987626516+989089158+990632032+992148244
1602+993717042+995397165+997211828+999210338+1001449298+1003850610+1006160942
1592+1008164210+1009808318+1011031083+1011649644+1011586967+1011110249
1584+1010708266+1010754207+1011332652+1012442534+1014335051+1017216280
1575+1020015473+1020961362+1019282716+1014260725+1005188309+992756550+977620024
1565+960025744+942863472+930466579+925259102+928952910+940247469+950605736
1555+957322945+962528946+966997843+970720200+973826130+976498329+978939101
1545+981378232+983828602+986091107+988183385+990217088+991824853+992784115
1536+993236468+993322115+993254844+993304805+993551081+993985550+994682292
1526+995690038+996932410+998395052+1000144742+1001975485+1003526070+1004745062
1516+1005856502+1007156957+1008919773+1011252255+1014004276+1017136950
1507+1021049962+1025354784+1028865158+1031766405+1034724421+1038058825
1499+1041700786+1044500963+1043798724+1037223604+1022815404+997053497+958130356
1489+914890005+882844948+867452876+865072893+871282456+882221137+893899466
1479+903395768+910213883+915851153+922704626+932276567+941684761+944979212
1469+940089219+929533652+918958970+915698646+921629118+931084566+939444324
1459+946177448+951955823+955988610+957120395+955825684+952894329+948760883
1449+943548237+937324646+930714414+924925866+921262247+920750007+923441649
1439+928305390+933821492+937689220+937664362+933778504+927139477+918820983
1429+910802746+905417986+903664194+905389929+909847258+915933191+923186431
1419+931823065+940998930+948996658+955433546+960662107+964640421+967227793
1409+968604788+969283154+970035271+971625481+974131637+976435242+976297091
1400+970731193+957538047+937431212+914927496+897904195+892478253+897941850
1390+910084182+925083542+939373362+950275783+957751262+963327825+967776786
1380+969755934+965507554+950002845+920633678+883583037+853929447+842567700
1370+848635010+865201856+885154871+904193170+920613579+931364477+930630326
1360+915715710+891525308+867712770+853176592+851040834+857902593+868442245
1350+879433019+889679060+898575096+905692482+911118343+915623664+920274683
1340+925659279+931337404+936239047+939477057+940544772+939431362+936972788
1330+934542107+932829006+930649440+925031694+913520229+897476617+882463229
1320+874218815+874323166+880087020+888042171+896379533+904513361+912079738
1310+918800884+924630532+929674674+934023222+937689712+940683661+943054045
1300+944830397+945957260+946230937+945365362+943429693+941305995+940394069
1290+941657607+944996112+949445155+953836363+957347064+959689063+961021430
1281+961729411+962090949+962025648+961291579+959994324+958738005+958152670
1271+958342422+958864917+959146879+958613473+956134144+949858213+939071383
1261+926871790+919356112+920459759+928511632+938729124+947677335+954626791
1251+960192444+965070788+969699165+974269213+978875030+983629826+988643942
1241+994035019+999909951+1006152411+1012246793+1017161480+1019022084+1014789537
1231+1000682250+974225487+937618914+898882571+867355580+847354163+837362520
1221+833628759+831152383+823473534+807560197+789059241+777912678+778695559
1211+788143624+800625753+812865299+824050994+834205809+843380361+851648812
1201+859179502+866020834+871966975+876911605+881179920+885232068+889159518
1191+892588593+894804993+894632304+890406402+881055388+867906049+854814711
1181+845666493+842021825+843471094+849203200+858246083+868879749+879015696
1171+887341901+893839086+899280124+904388911+909344944+913863309+917653758
1162+920786349+923595304+926335922+929115918+932093952+935474132+939266221
1152+943205567+946946876+950286858+953183346+955557176+957260679+958527908
1142+960417472+964285363+969991053+973895697+969135487+950189315+919185803
1132+886455571+861474330+842625619+819711470+789102311+762610600+756724265
1122+775222185+806831214+837808146+861797967+878832261+890617156+898470498
1112+902159467+897404507+875867681+832808387+777522263+732161250+715300793
1102+727544522+754873915+782844757+805014171+821369361+833845666+843989078
1092+852543674+859691989+865416055+869838519+873363084+876419874+879132025
1082+881457862+883582381+885918637+888713072+891765513+894564952+896654686
1072+897826834+898122086+897916009+897920849+898766653+900534801+902790743
1062+904983024+906787023+908240149+909601721+911038193+912491236+913848871
1052+915126518+916441493+917854667+919252335+920396016+921108838+921411965
1043+921490557+921556925+921739376+922051938+922387716+922467703+921817886
1033+919899609+916425496+911752573+907002535+903566077+902320588+903287561
1023+905754749+908376331+909542654+908561325+906562897+905487143+905978218
1013+906772503+906083390+902979921+897624777+891087557+885137315+881601510
1003+881467953+884505300+889641159+895656539+901653297+907106230+911754378
993+915555983+918607030+920967488+922511921+922961895+922345057+921595893
983+922237342+925057126+929412811+933972769+937701525+940191109+941642676
973+942620232+943553815+944489450+945301701+945854222+945516967+942226781
963+933020480+917678287+902007862+894706876+899471025+911874726+924655636
953+933930109+939737197+943255528+945316221+946544647+947558627+948885826
943+950822233+953339381+956213802+959256399+962309579+965092528+967089314
933+967263889+963388614+951529722+927352856+890484255+848992857+817401220
924+806966903+817456759+839290969+862407258+881720136+896293148+906786941
914+914257990+919773846+924183757+928072405+931748903+935176747+937935003
904+939373444+939238165+938341005+937838773+937094121+933142306+924020749
894+912624137+905380905+906365024+913858961+922977892+930221288+935058860
884+938662591+942214229+946015179+949516364+951842284+952351571+951312159
874+950287104+951173188+954495778+959101430+963502072+966918923+969195210
864+970529956+971462145+972584824+974068550+975656873+977126242+978508487
854+979915672+981426962+983145642+985186400+987681235+990808166+994512065
844+998239591+1001393102+1004041921+1006776878+1009924729+1013327305+1016872462
834+1020908120+1026026259+1032570287+1040448651+1049327049+1058696194
826+1067491242+1073656094+1073741823+1062024773+1030648073+974500968+899519755
816+824528943+770469932+746560015+747631257+762709045+783128113+804034564
806+823028646+839360045+852854514+862798247+868755709+872459608+877410063
796+885784178+896482490+906837804+915542447+923268468+931163321+939692569
786+948694761+957665943+965625770+971073699+972362257+967407701+952164690
776+920600453+868951368+800870224+726896674+658277120+602063196+561385976
766+537397632+529302443+534068478+547716562+566784477+588599409+611043935
756+632665300+652884525+671792837+689604926+706260207+721485170+735161597
747+747582035+759332885+771021468+783139434+795881540+808868116+820804124
737+828447533+825987893+808980261+782030783+759736754+755198782+768330975
727+788521159+806782320+822099574+837057177+849440862+849594190+829624932
717+795834451+766659220+756361086+763870774+778369625+791479422+801611267
707+810665388+820301646+830580009+840593803+849884848+858738470+867259432
697+875116302+882246979+888986338+895264401+900040281+901744440+899780879
687+896058440+894065673+895247337+896134570+887605159+856463824+794424641
677+713071431+644782856+618295904+633441085+668370818+706781882+745394594
667+779371136+801505356+814664703+824369708+832869094+840741962+848204889
657+854780748+859511753+861812406+861958760+861259064+861469326+863589332
647+867451481+872319653+877439268+882210226+886285590+889651495+892648152
637+895746780+899117444+902617070+906306695+910547118+915312169+919823971
628+923256244+925553123+927336284+929337255+931998543+935051640+937462058
618+937821382+933416802+919402299+893381565+862184608+839118035+831578567
608+834546346+837369985+833063687+820298611+800674237+776779333+751928122
598+729998748+714581900+707911535+710133924+719207980+732068219+746554273
588+761817628+776939716+790429755+801480253+810666619+818974530+826799487
578+833950017+840233167+845885779+851311639+856632246+861772699+866335857
568+869257285+869866657+869470992+870559790+874485026+880610418+887125897
558+892281691+895634799+898285094+901264194+904214089+906456331+908383796
548+910735804+913493321+916534770+920475264+925976681+932930568+940656424
538+948035428+952730090+949572149+929824228+886056460+822938979+761062886
528+723555051+718743321+736837782+761023426+779369823+786656453+782799144
518+774143805+770866746+778139101+792450250+807358303+819292260+828482891
509+836991465+846126886+855138512+862444256+867747307+872214891+876871325
499+881968134+887311383+890780492+887120729+872578234+852684614+840799634
489+845196584+861817410+880499093+891863301+886724817+857146374+806109696
479+752988781+721968205+722649852+745738576+775901863+802645100+822380716
469+836004640+845142603+850169189+851571041+851738151+853735183+858720504
459+865247551+870444692+872663799+873469815+875365777+878671878+881690192
449+883618559+886017738+890787957+897472844+903457296+906956922+908564032
439+908977828+907128544+901639187+892694749+881228486+866475730+844740128
429+811151541+764060691+708472423+656518611+622721690+614921302+633379188
419+672936313+716389345+747194081+767093853+782259995+793536670+800288416
409+804673799+809947480+816597009+822396385+826366495+830213385+835265566
399+840415946+845133743+852542362+863487032+873026321+876510853+873483761
390+867204057+862546803+863713865+871890926+882911480+889704245+889450750
380+885586468+884496358+890112217+897397123+897382110
##END=
