##TITLE=LSH-R164A
##JCAMP-DX=5.0
##DATA TYPE=LINK
##BLOCKS=1


$$ === CHEMSPECTRA SPECTRUM ORIG ===
##TITLE=LSH-R164A
##JCAMP-DX=5.00
##DATA TYPE=INFRARED SPECTRUM
##DATA CLASS=XYDATA
##$CSCATEGORY=SPECTRUM
##ORIGIN=Angelika Moesle
##OWNER=
##XUNITS=1/CM
##YUNITS=TRANSMITTANCE
##XFACTOR=1.0
##YFACTOR=8.6472074e-10
##FIRSTX=3997.453
##LASTX=373.96442
##MAXX=3997.453
##MAXY=0.928486823753509
##MINX=373.96442
##MINY=0.551522492992765
##NPOINTS=2559
##XYDATA= (X++(Y..Y))
2559I48524477I48365733I48589960I48799092I48723474I48487807I48292874I48232768
2551I48356703I48588306I48675363I48440659I47996892I47636940I47591587I47860618
2543I48216222I48492218I48793026I49206119I49517335I49504377I49276770I49089008
2535I49066055I49242790I49619282I50083452I50447193I50586292I50492686I50233167
2527I49931049I49769686I49858674I50009905I49913886I49676149I49819591I50542591
2519I51286683I51384080I50778743I49881351I49119958I48736228I48762214I48978928
2511I49012152I48697076I48318378I48342572I48792061I49103346I48871743I48441486
2503I48546948I49359970I50168580I50371508I50227031I50221656I50217520I49712612
2495I48781032I48198648I48495665I49195091I49584679I49732257I49944491I50025069
2487I49684627I49152699I49051856I49530087I49743493I49166554I48625459I49077222
2479I49824898I49592468I48903588I49020493I49560072I49398363I48765109I48547017
2471I48878774I49545803I50691271I51853489I52027398I51368502I51076173I51626640
2463I52021125I51240363I49255955I46676343I44633415I45068428I48792681I52292018
2455I52851724I51554198I49863154I48561975I48055482I48240626I48433904I48235453
2447I48156670I48724993I49511408I50035615I50616483I51554887I52347713I52354881
2439I51686956I50788117I49799946I49063505I49408910I50590772I50964852I50551138
2431I50929353I52077648I52251418I50968987I49254921I48295700I48752840I49850540
2423I49880317I48869813I48767315I50437542I52175734I52917759I53257373I53377724
2415I52815881I51667380I50567199I49927396I49796017I50151279I50853049I51460937
2407I51674204I51851215I52510593I53326992I53404744I52485089I51108708I50166305
2399I50448364I51731829I52671612I52669544I52487157I52495980I52173321I51555990
2391I51493954I51999137I51832466I50340007I48164735I46714116I47347715I49203845
2383I49602946I48288394I47752124I49794569I52112112I52030431I50188501I48359184
2375I47710835I48416396I49947248I51592867I52586139I52486605I51638154I50817550
2367I50388671I50118193I50011766I50482691I51415305I51986936I51553784I50261704
2359I49007672I48964660I50411901I51973564I52458413I52078061I51348168I50757650
2351I50963542I52026847I52836491I52523965I51573981I50896543I50700715I50552172
2343I50323740I50776606I52465306I54132363I54215492I52880192I51366434I50608901
2335I50391084I49881145I49260780I49876595I51448322I51829709I51270140I52064206
2327I54602323I56442737I56399863I55460976I54611904I53943289I53121169I52266652
2319I52063310I52537062I52355571I50787287I49019872I48961696I51142965I53653993
2311I54857982I54988327I54691311I54312544I53900415I53393716I52929270I52852551
2303I53201265I53297352I52477162I51432469I52047801I54306271I55401490I54416903
2295I52790239I51875064I52113077I53128476I53928608I53833482I53255788I52963390
2287I52997165I52831249I52498668I52598478I53094493I53264335I52984000I52989583
2279I53793782I54854673I55318154I55192634I55164097I55529837I55731248I55064425
2271I53565074I52183730I51936136I52598547I53237108I53459612I53368005I53181344
2263I53157357I53445551I53837828I53835415I53114621I51908840I50914878I50873452
2255I51948198I53335195I54035862I53769519I52917827I52124657I51739273I51561918
2247I51342171I51249737I51558127I52067791I52263136I51994036I51663037I51707152
2239I52061173I52362808I52483917I52514866I52520381I52554570I52624809I52538923
2231I52144854I51691781I51560746I51741410I51975632I52255485I52719104I53228423
2223I53477741I53410672I53237866I53068162I52755843I52179456I51496918I51016549
2215I50958924I51357198I51990659I52466961I52572974I52474956I52448625I52571526
2207I52832631I53227389I53601951I53691766I53438244I53049551I52720827I52504527
2199I52441457I52559671I52709316I52623154I52204615I51603551I51011586I50558444
2191I50348003I50416864I50698716I51122149I51649389I52221917I52746952I53102489
2183I53140400I52799476I52221572I51671033I51371604I51414823I51698605I51955229
2175I51969084I51767534I51577565I51647873I52002928I52305321I52254176I52142372
2167I52504665I53220014I53591888I53338228I52840971I52440492I52148783I52010509
2159I52133136I52410438I52640318I52790791I52906730I53007849I53198232I53541087
2151I53796332I53658473I53192028I52679745I52216333I51800069I51632364I51962742
2143I52657412I53172590I53067818I52482883I51959296I51751405I51556542I51073002
2135I50568646I50605799I51314183I52214886I52811604I53123719I53427629I53704794
2127I53714720I53488425I53325062I53350015I53424527I53454649I53522614I53725955
2119I53982717I54035793I53737949I53334919I53283222I53687975I54064398I53822456
2111I52992064I52282092I52322416I52988687I53609878I53732504I53522062I53453753
2103I53737329I54124574I54237894I54002155I53716788I53720923I53985336I54102447
2095I53791369I53323408I53234213I53682599I54298414I54634858I54590260I54398499
2087I54333430I54474528I54711025I54910437I55048710I55184363I55316293I55338626
2079I55186362I54907060I54528844I54062813I53690112I53703415I54166965I54785951
2071I55152655I55079590I54723225I54364655I54084043I53793506I53523716I53425285
2063I53568176I53950318I54551109I55221033I55714153I55947824I56039983I56066520
2055I55979532I55773019I55552032I55428993I55482413I55770469I56229676I56618645
2047I56760088I56748921I56694398I56434328I55831471I55199182I55058153I55519290
2039I56185424I56612234I56672823I56499604I56209549I55768470I55188981I54795739
2031I55024309I55870761I56785729I57239629I57174491I56843216I56478098I56219475
2023I56133727I56200106I56411719I56851350I57517001I58146602I58391094I58153426
2015I57662649I57210265I56876165I56541375I56164469I55918253I55935072I56049012
2007I56010067I55834435I55721943I55742966I55817823I55920666I56112979I56376840
1999I56520214I56314942I55774329I55261495I55187533I55572642I56022130I56240016
1991I56422954I56931857I57691599I58261162I58431900I58365452I58203537I57976070
1983I57805470I57806573I57849103I57675056I57209921I56664345I56403723I56679578
1975I57337095I57848482I57783068I57269613I56899394I57103701I57676779I58032041
1967I57896043I57538507I57348672I57434010I57639626I57728063I57526100I57085641
1959I56668618I56446735I56325557I56193626I56151924I56321352I56589281I56715904
1951I56622711I56495123I56602515I56985969I57343092I57319863I56908906I56439497
1943I56159782I55972156I55706434I55502609I55639503I56052045I56382975I56506428
1935I56616852I56822882I57069580I57434699I58054099I58738705I59036273I58738843
1927I58035143I57091845I55731317I53668606I50959475I48111657I45722843I43934885
1919I42192902I39621286I35804185I31295998I27344002I25041761I24678711I25783993
1911I27694163I30032454I32633434I35173343I37192146I38559567I39611911I40673423
1903I41708260I42545269I43141577I43560943I43921719I44352734I44880389I45499788
1895I46294061I47212407I47891292I48013573I47627844I46858317I45604905I43821634
1887I41882927I40397361I39683322I39582892I39806154I40254608I40937492I41812067
1879I42784040I43621049I43897732I43313211I41986665I40279009I38556809I37236123
1871I36724529I37112395I38067204I39158287I40226554I41362096I42609718I43873193
1863I45043613I46022962I46701364I47090884I47374253I47702908I48063409I48367732
1855I48604021I48930333I49536360I50284381I50726081I50695407I50580502I50798181
1847I51332590I51928553I52394654I52597513I52462894I52131964I51905117I51917800
1839I52013888I51993485I51812476I51521457I51224854I51075897I51098989I51087615
1831I50860975I50486620I50108543I49739081I49339911I48973552I48788132I48880635
1823I49182339I49517335I49783816I50003150I50182018I50260876I50241921I50236613
1815I50292239I50262738I50001564I49640443I49484870I49626175I49858812I49962343
1807I49836065I49381545I48567006I47684021I47258520I47543337I48251310I48904829
1799I49269190I49350320I49210117I48986304I48944670I49308204I50041474I50894199
1791I51650630I52272166I52802164I53250687I53615117I53900553I54067018I54055438
1783I53883803I53644616I53441553I53388408I53582031I53995124I54433170I54666910
1775I54648437I54562136I54605701I54764583I54871492I54817245I54610870I54303308
1767I53921784I53467815I52997234I52684571I52712900I53104350I53708723I54249474
1759I54352661I53790542I52806369I51953988I51514426I51292542I51068866I50981602
1751I51292197I51975218I52754327I53443138I54032967I54494311I54701443I54601424
1743I54360243I54268360I54500377I54982744I55481793I55806795I55936244I55963333
1735I55950237I55897161I55812102I55664111I55315259I54707096I54078115I53763453
1727I53834312I54129950I54508097I54883555I55192910I55486894I55889786I56369879
1719I56715008I56783248I56631948I56381183I56080237I55751513I55476761I55383431
1711I55523978I55766126I55871313I55757924I55606141I55613103I55764403I55962368
1703I56202791I56475341I56643735I56579562I56331967I56109395I56123180I56393659
1695I56675373I56701980I56546545I56572807I56981558I57564769I57955598I57987513
1687I57768869I57518242I57383416I57362323I57353914I57261893I57050418I56772564
1679I56592314I56691917I57066065I57471783I57628460I57438559I57019262I56584525
1671I56285923I56147926I56140068I56217820I56278203I56246564I56229952I56382079
1663I56621609I56724244I56663518I56641460I56817575I57165323I57522033I57697044
1655I57621774I57434699I57338336I57415054I57639006I57955598I58248548I58381582
1647I58368623I58340017I58253787I57848620I57006510I56001796I55252672I54930358
1639I54909059I54990878I55060565I55083450I55092411I55203249I55521979I55987321
1631I56382424I56558676I56613058I56785936I57181591I57639419I57943260I58078155
1623I58142052I58120133I57985927I57890460I57953941I58010604I57831043I57440214
1615I57023605I56709425I56533586I56428606I56264486I56054527I55994351I56193695
1607I56571773I57054899I57634729I58218633I58628694I58775996I58753456I58769723
1599I58988091I59409388I59932286I60443673I60768812I60702364I60234541I59646987
1591I59285866I59317229I59660428I60029269I60096200I59767613I59299445I59084799
1583I59334806I59949725I60629575I61074238I61132897I60878824I60593111I60629920
1575I61177839I62062341I62804779I63015220I62766178I62466060I62356049I62300492
1567I62086259I61719003I61377114I61205618I61178459I61122006I60920870I60709051
1559I60751580I61147372I61730170I62217914I62388239I62197372I61836046
1552I61623674I61724725I61950330I61948125I61631463I61279303I61119801
1545I61010341I60704984I60255358I59972954I60108331I60663488I61379871
1538I61876852I61914349I61591897I61256488I61198104I61446043I61875542
1531I62402576I62904106I63126541I63029075I63025697I63426246I63863051
1524I63789021I63280598I62831041I62648929I62633076I62775691I63178238
1517I63803427I64450260I64885411I64945725I64606592I64001392I63325609
1510I62728888I62317310I62196822I62426563I62903279I63387508I63778475
1503I64282348I65047326I65680787I65549408I64651258I63725606I63351940
1496I63394332I63476426I63526331I63669911I63979473I64472180I65074278
1489I65545755I65690851I65626057I65595177I65572017I65307673I64753481
1482I64175646I63829069I63734774I63818176I64066393I64434613I64707780
1475I64617000I64140009I63591469I63324299I63389090I63542392I63515923
1468I63201743I62647068I62005129I61513801I61420608I61810404I62521617
1461I63293143I63968927I64523188I64979914I65356268I65602415I65622059
1454I65426714I65191320I65085858I65138244I65280032I65413066I65402864
1447I65096197I64465356I63779164I63515578I63952315I64889271I65866759
1440I66553295I66849691I66765391I66349333I65769499I65393076I65588629
1433I66292949I66918621I66914002I66362016I65881510I65976150I66584589
1426I67251136I67611430I67617289I67357425I66880503I66270271I65723730
1419I65439741I65483994I65749303I65992555I65988488I65783009I65732760
1412I66153298I66923305I67510586I67411052I66674611I66010545I66130758
1405I66973144I67897073I68529500I68867185I68728223I67924300I66920413
1398I66461964I66503046I66329412I65618337I64773884I64414279I64675177
1391I65099506I65246946I64968471I64393325I64079283I64533665I65357164
1384I65568846I64898853I64085969I63720023I63499584I62994541I62500318
1377I62632180I63331537I63848369I63796741I63604704I63868772I64730665
1370I65787697I66385038I66191071I65545341I65034781I64836334I64705368
1363I64441368I64080799I63766688I63672737I63960793I64614726I65431263
1356I66322864I67471158I68953415I70369017I71096705I70902324I70164297
1349I69516982I69282346I69190739I68674113I67510310I66177837I65471928
1342I65730416I66592171I67519202I68195606I68387778I68009566I67484600
1335I67429387I67908860I68505168I68872837I68788881I68115165I67124237
1328I66418883I66276268I66478024I66826669I67365628I67965244I68023007
1321I66961839I65086203I63616420I63629036I65096197I67109486I68952312
1314I70703876I72575929I74009590I74183913I73339115I72715235I73050852
1307I73740146I73637648I72519544I71540679I71803368I72637552I72368038
1300I70764603I69286065I68809904I68696378I68373513I68522814I70080341
1293I72728538I75064554I76190171I76443831I76359461I75915005I75281682
1286I75163054I75718005I76222912I76262684I76142885I75923965I75272721
1279I74341968I73746211I73619381I73399769I72565176I71278127I70357231
1272I70536585I71661922I72897346I73468771I72891694I71250279I69752444
1265I69925733I71721067I73622690I74645533I74689303I73616142I71925787
1258I71071545I71729338I73139150I74462318I75557882I76386826I76707623
1251I76361046I75318214I73795496I72542567I72413118I73389640I74484996
1244I74745480I74093202I73177682I72684148I72810495I73197534I73305270
1237I72920507I72258371I71616432I71126965I70814301I70604549I70241912
1230I69525046I68755726I68603047I69339282I70467242I71225603I71201339
1223I70435327I69324531I68573683I68878282I70366191I72348944I73680728
1216I73543145I72154908I70591521I69698611I69368784I69037716I68543630
1209I68215595I68422315I69221344I70178083I70603377I70297745I69821718
1202I69774846I70195247I70781904I71185486I71129101I70832912I71071477
1195I72237554I73662117I74405245I74368161I74068387I73705473I73081939
1188I72345015I72067299I72398367I72827521I73033826I73258536I73501167
1181I73182990I72127474I71122415I70997446I71583963I72134919I72675325
1174I74174400I77006708I79898294I81049277I79793522I76833144I73580298
1167I71416744I70942923I71759874I73071117I74370229I75622675I76922200
1160I77828690I77282701I74828954I71625048I69394287I68508269I67972826
1153I67302212I67350877I69008766I71915447I74713773I76187758I75998616
1146I74570055I72736186I71488913I71446039I72269262I73052299I73200015
1139I72552493I71128757I69164339I67043314I65094336I63702032I63210428
1132I63244134I62853374I61789105I60864555I60983045I62388032I64800008
1125I67818287I70992690I73714228I75579801I76995817I78855945I81312863
1118I83301819I83549276I81989956I80110597I79576946I80473648I81371866
1111I81142745I79941031I78361928I76630698I74973016I73937904I73929081
1104I74881616I76465750I78161481I79220926I79267453I78911088I79049016
1097I79785457I80621432I81091599I80812711I79793453I78869593I78912811
1090I79575567I79850526I79607206I79419097I79459008I79375324I79030198
1083I78764820I78895441I79408207I80197792I81133715I81807637I81769313
1076I81118895I80334066I79552476I78605386I77556764I76621735I75800099
1069I75019337I74383394I74040609I74039575I74345483I74858731I75471858
1062I76172525I76919857I77490523I77755832I78024863I78706713I79546892
1055I79803861I79412342I78989392I78871798I78841261I78553827I77847922
1048I76671780I75016373I72922161I70444357I67728885I65170917I63350906
1041I62770659I63747801I66200239I69182120I71570867I73195190I74459217
1034I75538237I76246003I76494149I76619325I77046066I77657401I77839788
1027I77462813I77095006I77113066I77290352I77356869I77456334I77817248
1020I78322845I78626754I78582433I78332495I78073731I77939460I77995775
1013I78163756I78242746I78160792I78123777I78386329I78869455I79141174
1006I78912467I78390465I78103443I78484277I79392353I80092262I80194346
999I80029605I80024711I80213715I80327724I80265205I80180422I80122866
992I79918766I79491611I79149170I79432952I80385142I81168456I81225115
985I80821603I80223365I79499538I78937350I78851533I78978501I78819481
978I78433614I78046438I77441856I76354291I75062900I74251532I74224305
971I74466385I74475415I74326114I74296681I74594525I75332965I76218569
964I76566938I76256343I76151501I77144015I78574092I79334590I79612582
957I79875617I80181870I80487296I80710558I80569459I79952680I79360507
950I79681026I81136472I82596051I83146452I82922018I82293383I81541846
943I80957807I80768459I80806576I80611782I80242390I80437253I81495043
936I82455160I82834823I83104888I83167683I82686831I82030348I81718925
929I81704657I81778894I82410011I84114979I85765837I86136125I85698424
922I85157191I84824951I84749405I84578253I83780671I82271050I80281679
915I77889486I75091092I72236107I70083098I69479346I70532242I72325508
908I73937215I74955784I75581662I77149736I81150465I85062275I86293767
901I86333332I87039789I88689680I90019192I90487084I90486395I90238594
894I89833565I89703633I90445589I91592022I91826244I90994542I89805511
887I88873655I88356202I88018310I87714125I87483763I87200050I86723059
880I86480910I87368307I89075204I88603176I83473384I74465420I65148446
873I60218891I61744714I67404504I73597255I78525635I82141256I84884506
866I87093210I88992144I90759976I92560548I94498359I96487040I97935866
859I97440954I93563057I86802256I80199722I76917375I77425729I79706119
852I81880151I83794526I86223528I88873862I90512106I91263091I92267047
845I94080923I96043824I97567784I98816577I99767457A000290424A001218696
838A004502973A009220222A009919373A005805945I99108906I90907484I80993720
831I69864937I60670037I57282228I61049631I69906295I79967086I89360224
824I98322009A005083703A008894738A011968367A016459390A022399929A027942539
817A032444867A037034183A042623871A048785742A054935344A061619768A068601209
810A073233676A073741823A071062677A066073846A055901458A033383202I92395807
803I33403030H63635975H01541377G74949465G79760182G92505152H04976471
796H17188754H30274510H45474054H61735110H75801524H87117036H98049990
789I10160465I21797463I30368137I35758415I38897872I39825041I38197963
782I34786787I31772300I31270080I34183104I40624346I50496684I62099149
775I72174002I79498987I84803445I87654501I84593417I71551914I48109247
768I16076465H77955704H42902644H27521954H32588538H44624982H55398020
761H61430097H62636637H63321105H68199029H77330101H87711276H96795200
754I03503474I08347208I12811074I17585742I21470463I23575772I24727857
747I26080320I27872483I29564286I31069220I32926797I35292660I37759710
740I40227243I42347648I41472312I34520306I22629027I10993200I05623810
733I08847498I17251709I25634899I31593566I35566103I38557361I41029581
726I43287431I45616554I47847453I49548354I50721600I51621473I52265825
719I52734269I53423080I54649678I56235325I57725374I58936670I59984465
712I61000136I61987208I62893215I63792674I64836747I65933344I66732167
705I67096803I67157047I66777384I65499089I63348907I61382697I60953819
698I62241350I64160137I65867724I67240383I68344149I69248846I70143067
691I71315693I72961795I74998865I77158283I79247808I81190858I82887692
684I83850773I82613008I77441790I68808388I59322674I50069322I39298351
677I26083146I13867692I07673769I07251370I05656345H96828631H83518786
670H75167718H77795650H87805364H96484260H99245294H98602183H99472347
663I03944829I10548123I17093793I22798524I27865315I32382600I36189637
656I39167455I41166475I42013272I42008792I42178082I43526685I45959960
649I48164114I48655305I47045529I44550286I43243730I44478048I47920794
642I52158157I55994765I59032826I61321833I62938364I64004287I64827855
635I65748269I66849416I67996124I69142902I70384113I71700319I72884181
628I73765512I74344036I74609138I74285308I72883147I70071518I65970015
621I61164949I56677648I53793230I53353530I54992739I57446348I59778573
614I61995821I64458187I67218325I70120803I73114543I76177970I79179981
607I82027522I84797517I87607905I90479913I93207244I94741611I92479970
600I83212969I66245181I45733527I28874716I21053716I22534939I28984659
593I34435523I34949460I31233476I27732212I28368913I33158331I38928821
586I42541960I43092982I41876378I41085138I42401413I46219617I51715217
579I57402785I61802477I64109129I64664490I64802351I65930243I68503582
572I71882637I75137275I77819936I80004859I81917166I83712914I85511488
565I87443577I89548404I91670670I93574499I95036146I95495767I93600003
558I87568064I76743535I63340429I52414367I48962592I54174685I64640643
551I75321523I82592191I83818100I74841637I50577193I11098731H67124421
544H35659410H27406291H39585006H61712363H85498437I07791983I27716703
537I44703171I58633105I69908087I79169711I87207150I94700116A001577611
530A006370200A006267771I98567466I82644922I60048707I32508327I01454480
523H70930631H49325689H45157530H60489281H88719988I16277187I25493869
516I02647027H51045200G94314685G59714629G57137499G76558690H02507353
509H26003165H44974041H60020768H72152404H82276265H90973771H98500030
502I04914596I10185348I14405893I17951067I21286421I24658583I27992972
495I30998705I33399446I35147012I36360789I37145826I37726693I38606025
488I40166103I42179668I44139812I45956031I47876196I49897894I51766156
481I53430731I55065873I56749538I58243310I58651785I56472928I51245463
474I45369305I42770668I45077182I50198564I54961238I58008743I60009418
467I62191307I65147343I68630343I72006365I74479413I75112736I73662393
460I71522275I70785213I72184961I74792832I77609771I80552365I83909707
453I87545938I90852134I93225854I94409578I94595136I94691568I96077048
446I98664450I99071133I92838678I80026985I67417531I63315614I70366743
439I84343135I99037633A010874665A019162869A023718272A023260233A015416007
432I97108094I65144241I18558266H62223336H07274025G65798334G44395562
425G42430386G54467313G73205138G91617686H04194054H07268648H00023690
418G86408005G74293740G70328854G75596505G86814137H00487792H14886790
411H29258285H42886308H55095765H65499135H74017425H80843775H86381560
404H91048560H95126007H98805732I02213186I05263723I07641924I09073587
397I09595726I09567328I09515906I09979043I11321786I13551100I16300278
390I19045941I21348113I22982014I24035600I24888945I25882010I26970956
383I27897643I28673098I29637488I31013525I32637639I34199854I35577752
376I36840882I38063000I39255753I40421073I41553927I42620609I43605196
369I44504310I45201737I45490689I45366685I45138116I45045543I44863087
362I43943983I41569987I37514322I32709670I29120725I28284336I29990889
355I32814718I35717058I38667369I41920011I45298928I48347880I50841055
348I52833458I54322056I55226065I55790734I56695708I58490628I60987040
341I63401293I65019065I65463177I64460048I61771321I57075164I49501275
334I38295223I25139710I14721796I11188132I14513836I21451093I28987758
327I35781231I41426959I45756757I48657028I50107095I50526944I50891856
320I52050765I54042823I56355472I58618354I60738139I62612604I64137181
313I65435399I66764839I68217457I69700403I71141368I72568415I74054808
306I75699394I77606600I79729624I81674811I82839234I82866599I81791922
299I79721284I76657443I72294559I64916705I50394048I23768292H83298763
292H33040646G80805772G33470466F94457621F64906710F45677694F37804169
285F41540485F54829996F72802775F90283053G05717646G21663763G40733966
278G62085523G82565952H00163410H15220683H28887927H41528744H52704537
271H62056803H69859606H76803412H83365622H89485931H94909982H99666521
264I04006452I08038130I11632796I14639632I17110198I19305736I21477493
257I23774217I26315025I28926620I30895863I31692893I31957030I33060314
250I35656193I39123891I42386869I44933878I47026022I49131814I51395178
243I53672397I55792937I57664648I59289175I60801485I62473504I63872150
236I62079780I52802922I36926148I24038081I23134762I29810846I29161187
229I13493957H92083534H80750858H85780634I00923655I16781543I28949505
222I37739169I44205295I48775173I52026571I54717573I57221845I59499202
215I61361605I62734402I63826105I64910984I66070169I67468263I69541245
208I72022081I73836095I75065312I76673708I79138831I81938328I84376704
201I86572104I89066588I91979956I95046692I98264725A002035233A006440508
194A010471152A011170992A001965132I73973609I25652407H72675164H40308006
187H40983651H64431213H91753569I12730289I27361510I38061345I45914053
180I51625816I56191834I60341106I64204045I67758732I71241939I74824611
173I78296238I81467126I84503258I87612317I90685325I93363024I95484394
166I97449845I99722857A001655157A000546635I91475118I69121672I32225028
159H86487918H41574858H06126144G86162893G84795817H00240680H25340685
152H51577473H73446208H89415003I00704529I09445874I17044095I23691642
145I29048832I33063622I36248572I39386512I42934099I46704191I50121708
138I52677057I54161864I54738734I54940146I55408797I56524418I58382478
131I60966019I63959345I66480916I67561525I66976314I64978259I61215612
124I55232680I48672055I45305890I47362259I53167214I59636648I65357922
117I70136105I73386262I74597144I74358924I73711609I73187815I73105995
110I73901165I75559881I77434621I78984084I79676686I78123501I73332704
103I67533126I65340759I68488487I74067491I78805764I82086664I84591419
96I86344844I86874841I86214222I85099910I84494504I84917799I86064232
89I87400976I88891508I90619153I92150005I92917602I92991770I92879967
82I92763063I92506577I92223828I92214868I92288829I91508686I88228959
75I79267384I59360999I23553646H72649384H19328046G86578950G90131225
68H24685577H71739310I13406624I39958350I48119862I35603462I02015083
61H55930362H18867805H11384420H32028142H63247696H89501785I05194036
54I13744860I21206601I30908959I42115012I51556197I56768152I58539772
47I59406561I61119180I64543039I69576812I74250292I76202716I75670168
40I75112805I75515076I75295743I73298033I70734826I69527111I70600482
33I74105954I79256217I84162264I86968378I86468503I83176299I80004101
26I79468864I80780590I81631109I81537710I81981822I84383252I88795144
19I93190907I93809824I89581625I84398623I81294458I80488812I81733125
12I84187837I85766595I85152779I84318527I86716924I92356517I98317046
5A003018441A006506060A007203074I98939409I77853022
$$ === CHEMSPECTRA INTEGRALS AND MULTIPLETS ===
##$OBSERVEDINTEGRALS= (X Y Z)

##$OBSERVEDMULTIPLETS=
(1, 8.546923103603786, 8.677943750003212, 8.628765395517147, 1.0, 1, dd, A, 1.1615264110077987 8.252950815053737)
(2, 8.197534554664411, 8.279058476488116, 8.242762047929126, 0.9870511790093323, 2, dd, B, 1.2226593800078263 8.069551908052745)
(3, 7.920935211447143, 8.028663376700184, 7.95543031271023, 1.081661261925638, 3, m, C)
(4, 7.8190301902618335, 7.920935211447143, 7.898442682134203, 0.9810007187564381, 4, m, D)
##$OBSERVEDMULTIPLETSPEAKS=
(1, 8.640758770852853, 240158584.0751016)
(1, 8.637397570121827, 253784646.0751016)
(1, 8.619674875358237, 246253791.0751016)
(1, 8.617230365735674, 260039003.0751016)
(2, 8.254220686784896, 235484253.0751016)
(2, 8.25147061345951, 231450998.0751016)
(2, 8.234359046101561, 281683237.0751016)
(2, 8.230997845370537, 270097296.0751016)
(3, 7.976157717218221, 106450323.07510161)
(3, 7.972796516487197, 115747075.07510161)
(3, 7.957823895048991, 248128416.0751016)
(3, 7.954157130615144, 242713237.0751016)
(3, 7.937656690662836, 214091051.0751016)
(3, 7.933989926228991, 188428234.0751016)
(4, 7.919933995899246, 212566493.0751016)
(4, 7.915961667762579, 222195428.0751016)
(4, 7.899461227810271, 241150159.0751016)
(4, 7.896711154484887, 225739307.0751016)
(4, 7.88112740564104, 110819659.07510161)
(4, 7.877460641207193, 98564929.07510161)
$$ === CHEMSPECTRA SIMULATION ===
##$CSSIMULATIONPEAKS=
##END=


$$ === CHEMSPECTRA PEAK TABLE EDIT ===
##TITLE=LSH-R164A
##JCAMP-DX=5.00
##DATA TYPE=INFRAREDPEAKTABLE
##DATA CLASS=PEAKTABLE
##$CSCATEGORY=EDIT_PEAK
##$CSTHRESHOLD=0.93
##MAXX=3997.453
##MAXY=0.928486823753509
##MINX=373.96442
##MINY=0.551522492992765
##$CSSOLVENTNAME=- - -
##$CSSOLVENTVALUE=0
##$CSSOLVENTX=0
##NPOINTS=25
##PEAKTABLE= (XY..XY)
456.1232697419855, 0.7016209360868708
471.7051205551211, 0.6801711317124229
592.1103313838935, 0.6786292196251446
638.8558838232993, 0.7266317607762445
694.1006276153244, 0.7616035336853949
701.1832870758403, 0.7982537745163638
777.6760092494133, 0.551522492992765
841.4199443940574, 0.7879232757822576
878.2497735887409, 0.8027067179563286
932.0779854886628, 0.7864772672780904
961.8251552228303, 0.666119336674232
974.573942251759, 0.6419949527804056
1097.8122168647378, 0.6547124984170293
1110.5610038936666, 0.7308252447581722
1141.7247055199373, 0.7154753802341753
1208.3017044487879, 0.8022292848824769
1216.800895801407, 0.7964542508792698
1314.5415963565283, 0.7770399446493754
1321.6242558170443, 0.7567756767330713
1412.2822969116496, 0.7831116911448194
1456.194785566849, 0.7155753964291259
1477.442763948397, 0.8052885527174591
1505.7734017904609, 0.6701148748374041
3022.8790582329943, 0.8100051278930315
3082.373397701329, 0.7995888592381661
##END=


$$ === CHEMSPECTRA PEAK TABLE AUTO ===
##TITLE=LSH-R164A
##JCAMP-DX=5.00
##DATA TYPE=INFRAREDPEAKTABLE
##DATA CLASS=PEAKTABLE
##$CSCATEGORY=AUTO_PEAK
##$CSTHRESHOLD=0.93
##MAXX=3997.453
##MAXY=0.928486823753509
##MINX=373.96442
##MINY=0.551522492992765
##NPOINTS=236
##PEAKTABLE= (XY..XY)
3996.036468107897, 0.8200715184304024
3987.5372767552776, 0.8199565408372083
3977.6215535105553, 0.8194020983284144
3963.456234589523, 0.8206771013884807
3950.707447560594, 0.8212855457074876
3945.0413199921813, 0.8212046623236302
3933.709064855356, 0.8203918931409687
3926.62640539484, 0.8200305695797597
3919.543745934324, 0.8201370236206196
3905.3784270132915, 0.8199270365655595
3892.6296399843627, 0.8206648232186934
3886.96351241595, 0.8202961088893196
3881.297384847537, 0.8205366128040151
3874.214725387021, 0.8202282784650325
3864.299002142299, 0.822415292112928
3855.799810789679, 0.8168441056475271
3844.4675556528537, 0.8198032379560967
3838.801428084441, 0.8198907373183357
3823.2195772713058, 0.8206748963505937
3817.553449702893, 0.821961283459202
3809.054258350274, 0.820010959442818
3801.9715988897574, 0.8204187747146131
3787.8062799687254, 0.8213083146692925
3772.2244291555903, 0.8216285103826657
3765.1417696950743, 0.8236353992415362
3759.4756421266616, 0.8227765560084059
3752.392982666145, 0.8186433309559659
3745.310323205629, 0.8195409180018517
3736.81113185301, 0.8195052145472179
3722.645812931978, 0.8214948773042268
3712.7300896872557, 0.8205894230290484
3704.2308983346365, 0.822139858668661
3691.4821113057073, 0.8217646476923676
3677.3167923846754, 0.8208454841345771
3671.6506648162626, 0.8225830194007036
3657.4853458952307, 0.8232688899500494
3650.4026864347147, 0.820586859996775
3636.2373675136823, 0.8239513630116078
3630.5712399452696, 0.8227233886537071
3622.0720485926504, 0.8231061097296274
3613.572857240031, 0.8240472077937085
3609.3232615637216, 0.8236453530419743
3603.657133995309, 0.82406502968816
3595.1579426426897, 0.8259502047792717
3586.6587512900705, 0.8231589199546606
3578.159559937451, 0.8242149350814841
3568.2438366927286, 0.8222399950597945
3554.0785177716966, 0.8225653765034454
3546.9958583111807, 0.8229227655852873
3529.997475605942, 0.822834312436072
3510.166029116497, 0.8223139044708837
3501.666837763878, 0.8236020798219825
3487.501518842846, 0.8235958815037182
3476.1692637060205, 0.8217856284116822
3459.1708810007817, 0.8226707574258669
3450.6716896481626, 0.8228488561741981
3443.5890301876466, 0.8233372565011953
3432.256775050821, 0.8232232318302566
3411.0087966692727, 0.8228962420060293
3396.8434777482407, 0.821976422989918
3382.678158827209, 0.8243599530731859
3368.512839906177, 0.8243237731574242
3361.430180445661, 0.8234580752829881
3352.9309890930413, 0.8244712348499372
3345.8483296325253, 0.8246986866697831
3337.349138279906, 0.8242813940586776
3328.849946927287, 0.8252319097963382
3311.851564222048, 0.8246756193793229
3296.269713408913, 0.8244466179799109
3279.2713307036747, 0.8261792658444148
3263.6894798905396, 0.8258585928051932
3250.9406928616104, 0.8256316779769268
3238.1919058326816, 0.826788663950398
3219.77699123534, 0.8266023391136672
3212.694331774824, 0.8264325857851978
3198.5290128537918, 0.8259704703745344
3181.5306301485534, 0.8282342547944478
3173.0314387959343, 0.827022135091315
3164.532247443315, 0.8274507520852316
3156.033056090696, 0.8278392538192987
3141.8677371696635, 0.8268043992737037
3134.7850777091476, 0.827101170566951
3120.6197587881156, 0.8262429231264107
3082.373397701329, 0.7995888592381661
3041.2939728303363, 0.8124768136615801
3022.8790582329943, 0.8100051278930315
2991.715356606724, 0.8219866751190115
2980.383101469898, 0.8231320971820265
2970.4673782251757, 0.8224150534500038
2957.718591196247, 0.8204367756062576
2944.969804167318, 0.8216893071684536
2937.8871447068022, 0.8210392594052037
2926.5548895699767, 0.8191140883857048
2915.2226344331507, 0.8205721372614557
2893.974656051603, 0.8244147296731819
2885.475464698983, 0.8254296766179006
2871.310145777951, 0.8238061072217026
2854.311763072713, 0.8223335146078254
2840.146444151681, 0.8251756424177864
2820.3149976622362, 0.8247390388631152
2797.6504873885847, 0.8261398674380589
2790.5678279280687, 0.8263324493940644
2777.8190408991395, 0.8267676235653523
2770.7363814386235, 0.8271456362368432
2750.904934949179, 0.8271852136403923
2736.739616028147, 0.8267941471446103
2731.073488459734, 0.8268718717036044
2723.990828999218, 0.8272277112058803
2714.075105754496, 0.8278303143362886
2694.2436592650506, 0.8257296681311836
2667.3295533150895, 0.8283077474101403
2651.7477025019543, 0.8266681426325397
2640.415447365129, 0.8290539979498774
2626.250128444097, 0.8295143839190608
2616.3344051993745, 0.8293405171140312
2606.418681954652, 0.8306447857828221
2582.3376397888974, 0.8307450415054177
2571.005384652072, 0.8315359349827988
2556.8400657310394, 0.830108523162866
2545.507810594214, 0.8311679357774769
2535.5920873494915, 0.8327482933488558
2525.676364104769, 0.8324087858271962
2508.677981399531, 0.8320315479454883
2493.0961305863957, 0.8330304024372356
2469.015088420641, 0.8333614469370128
2457.6828332838154, 0.8330065006912613
2446.3505781469894, 0.8313603396010099
2429.352195441751, 0.8345297572932949
2418.0199403049255, 0.8331719036096877
2405.2711532759968, 0.8347954150695962
2396.7719619233776, 0.8352177740795174
2382.6066430023457, 0.8348357672629283
2374.1074516497265, 0.8350891468694424
2365.608260297107, 0.8353293533202033
2352.859473268178, 0.8357197046919334
2345.776813807662, 0.8339490290034465
2337.2776224550425, 0.8336593510144295
2324.528835426114, 0.8322939872311953
2317.446175965598, 0.8332489727103609
2299.0312613682563, 0.8333078022564654
2274.950219202502, 0.8348636017588281
2263.6179640656765, 0.8365562554243864
2252.2857089288505, 0.8355591295093983
2240.953453792025, 0.8332591046432715
2226.7881348709925, 0.8411270378184739
2219.7054754104765, 0.8401113748849824
2208.373220273651, 0.8373726607577596
2194.207901352619, 0.84324371767554
2175.7929867552775, 0.8390880228546709
2165.877263510555, 0.8385650509924886
2154.5450083737296, 0.8397057049853432
2138.963157560594, 0.8408657909826673
2130.463966207975, 0.8411001562448295
2112.049051610633, 0.8375711435680948
2102.1333283659105, 0.8375457519082854
2085.134945660672, 0.8372361057879403
2075.21922241595, 0.838584422466506
2068.136562955434, 0.8394993540809949
2053.971244034402, 0.8405667541210813
2041.222457005473, 0.83964163004323
2024.2240743002344, 0.839594482874323
2005.8091597028927, 0.8364462845642768
1991.6438407818607, 0.8400295377141488
1977.4785218608286, 0.8329080340758767
1971.8123942924158, 0.8308795090393707
1950.5644159108676, 0.84706050163206
1937.8156288819387, 0.8421766756298399
1929.3164375293195, 0.8464847204095651
1919.4007142845971, 0.8464488388224588
1912.3180548240812, 0.8469240063279717
1906.6519272556684, 0.8463582394363668
1882.5708850899136, 0.8422722220832854
1847.1575877873338, 0.8325277567007676
1825.9096094057854, 0.8449143166386244
1810.3277585926503, 0.8456445335264003
1803.2450991321343, 0.845803916259035
1794.7459077795152, 0.8457863330275078
1786.246716426896, 0.8474476933142061
1774.91446129007, 0.8466905948527857
1762.1656742611412, 0.8464332219658944
1749.4168872322125, 0.8424319619455857
1743.7507596637997, 0.842494546973864
1735.2515683111806, 0.8440984482968307
1719.669717498045, 0.8468733423398151
1706.9209304691162, 0.8480908276351397
1702.6713347928066, 0.8476359248601686
1688.5060158717747, 0.8489003774624861
1663.0084418139168, 0.838328897487836
1637.5108677560593, 0.8558172579084484
1619.0959531587177, 0.8530305024910734
1609.180229913995, 0.8303211917169407
1583.6826558561374, 0.8447607154288574
1546.852826661454, 0.8277817965850087
1505.7734017904609, 0.6701148748374041
1477.442763948397, 0.8052885527174591
1456.194785566849, 0.7155753964291259
1412.2822969116496, 0.7831116911448194
1362.7036806880374, 0.830956697471506
1321.6242558170443, 0.7567756767330713
1314.5415963565283, 0.7770399446493754
1297.54321365129, 0.814574539704746
1286.210958514464, 0.8156424162059602
1247.9645974276777, 0.8243845699432122
1216.800895801407, 0.7964542508792698
1208.3017044487879, 0.8022292848824769
1198.3859812040655, 0.8137758369343621
1157.3065563330724, 0.820587634786558
1141.7247055199373, 0.7154753802341753
1110.5610038936666, 0.7308252447581722
1097.8122168647378, 0.6547124984170293
1042.5674730727128, 0.8152333496832543
1022.7360265832681, 0.8394581077664176
997.2384525254101, 0.8329989905916343
974.573942251759, 0.6419949527804056
961.8251552228303, 0.666119336674232
932.0779854886628, 0.7864772672780904
878.2497735887409, 0.8027067179563286
841.4199443940574, 0.7879232757822576
777.6760092494133, 0.551522492992765
701.1832870758403, 0.7982537745163638
694.1006276153244, 0.7616035336853949
638.8558838232993, 0.7266317607762445
592.1103313838935, 0.6786292196251446
545.3647789444876, 0.8174256087271585
529.7829281313525, 0.8414649360948363
517.0341411024233, 0.8347501754746416
502.86882218139135, 0.8513128160248129
484.45390758404983, 0.8579887748959623
471.7051205551211, 0.6801711317124229
456.1232697419855, 0.7016209360868708
429.2091637920248, 0.8432002663230757
422.12650433150884, 0.8383702026034235
409.37771730257964, 0.8469670408850394
405.12812162627006, 0.8487560149291054
392.3793345973413, 0.8478490110743608
385.29667513682534, 0.8511606450631499
##END=

##END=

