##TITLE=RB- 552
##JCAMP-DX=4.24
##DATA TYPE=INFRARED SPECTRUM
##DATE=18/4/2019
##SAMPLING PROCEDURE=Diamant-ATR
##ORIGIN=Rieke
##XUNITS=1/CM
##YUNITS=TRANSMITTANCE
##RESOLUTION=4
##FIRSTX=3997.453
##LASTX=373.96442
##DELTAX=-1.4165319
##MAXY=1.0001822
##MINY=0.28138775
##XFACTOR=1
##YFACTOR=9.3149222e-010
##NPOINTS=2559
##FIRSTY=0.99893665
##XYDATA=(X++(Y..Y))
3997+1072404723+1071993278+1072027383+1072360699+1072842467+1073357573
3989+1073684106+1073591450+1073123696+1072591696+1072262412+1072199704
3980+1072341438+1072533083+1072549720+1072290503+1071942471+1071829531
3972+1072105513+1072648582+1073194595+1073514664+1073546275+1073408764
3963+1073258839+1073161449+1073130286+1073169127+1073180837+1073008389
3955+1072669506+1072377591+1072268171+1072283977+1072280905+1072127397
3946+1071825500+1071564812+1071472796+1071388844+1071193551+1071179666
3938+1071631743+1072293959+1072657924+1072567893+1072238417+1071895503
3929+1071727918+1071939143+1072485796+1072936786+1072837540+1072211926
3921+1071557837+1071437411+1072003452+1072716474+1072866270+1072423215
3912+1071927178+1071830043+1072208342+1072814952+1073257815+1073264150
3904+1072851873+1072154656+1071198606+1070210306+1069741976+1070050719
3895+1070780506+1071381101+1071530578+1071326391+1071162901+1071239495
3887+1071476444+1071780452+1072058290+1072115175+1071763047+1071084899
3878+1070492047+1070281525+1070404127+1070627958+1070657585+1070358183
3870+1070046880+1070245116+1070949628+1071665593+1071983551+1071878738
3861+1071653307+1071552526+1071578569+1071625856+1071622977+1071587079
3853+1071612163+1071717680+1071816158+1071866261+1071814686+1071584328
3844+1071213260+1070936894+1070976631+1071247685+1071407592+1071214923
3836+1070821075+1070517770+1070312496+1069983724+1069500931+1069165697
3827+1069154627+1069186877+1068915630+1068485500+1068453122+1069045526
3819+1069643498+1069674020+1069306919+1069108363+1069336737+1069778897
3810+1070191110+1070472658+1070586622+1070548229+1070422812+1070228607
3802+1069944371+1069713437+1069792782+1070191814+1070680685+1071089698
3793+1071497624+1071954565+1072217365+1072086573+1071796257+1071659066
3785+1071579721+1071331894+1071039083+1071032812+1071470621+1072157664
3776+1072681984+1072715194+1072183003+1071322808+1070634421+1070545605
3768+1070889287+1071093281+1070942845+1070715494+1070654577+1070697961
3759+1070709031+1070700841+1070788953+1071041771+1071465118+1071974849
3751+1072263564+1071923978+1071005425+1069959728+1069306279+1069505027
3742+1070383395+1071337909+1072163678+1072866526+1073275860+1073089206
3734+1072378487+1071729518+1071496344+1071486554+1071432740+1071327991
3725+1071293373+1071319672+1071336437+1071431844+1071742443+1072221076
3717+1072650694+1072872541+1072982857+1073244186+1073546275+1073177766
3708+1071956868+1070724005+1070321198+1070794072+1071429860+1071530002
3700+1071309754+1071383213+1071640062+1071524243+1071009009+1070698153
3691+1071094049+1072072623+1072900312+1072920533+1072266252+1071458079
3683+1070872906+1070644083+1070677165+1070697897+1070393185+1069735897
3674+1069308007+1069633515+1070545221+1071564940+1072181531+1072321602
3666+1072295750+1072211222+1071972161+1071570890+1071157974+1070888647
3657+1070804118+1070772892+1070547269+1069998889+1069245234+1068579243
3649+1068295263+1068445700+1069000543+1069880510+1070614713+1070612857
3640+1069919543+1069255984+1069088143+1069227957+1069408660+1069614639
3632+1069800589+1069695776+1068965989+1067790843+1066976143+1066980687
3623+1067683151+1068663580+1069386072+1069500100+1069088271+1068462913
3615+1067920995+1067838578+1068381135+1069019739+1069023770+1068383119
3606+1067671569+1067148912+1066748281+1066660873+1067223394+1068206127
3598+1068726353+1068151417+1066783602+1065502620+1064835413+1064705645
3589+1064908872+1065287491+1065628997+1065826977+1065949962+1065967175
3581+1065733490+1065231245+1064671667+1064328754+1064315316+1064532173
3572+1064773985+1064805659+1064455898+1063884930+1063653037+1063965748
3564+1064305910+1064331761+1064146067+1063740317+1062907125+1061740489
3555+1060733313+1060313549+1060529190+1061103741+1061672981+1062010776
3547+1062110342+1062130626+1062206516+1062252268+1062046225+1061538350
3538+1060939035+1060478511+1060223261+1060186724+1060360452+1060502891
3530+1060229148+1059496226+1058701107+1058109406+1057620664+1057250043
3521+1057302897+1057852301+1058458079+1058582280+1058108895+1057389282
3513+1056874431+1056742359+1056822025+1056831175+1056663590+1056451085
3504+1056432208+1056724187+1057113108+1057235710+1057055007+1056893436
3496+1056950834+1057024740+1056836230+1056406869+1055984162+1055823935
3488+1056094222+1056768275+1057562242+1058108255+1058189456+1057812501
3479+1057149965+1056431824+1055822591+1055386830+1055146426+1055059466
3471+1054953053+1054649045+1054203110+1053880801+1053886048+1054256284
3462+1054964955+1055868471+1056573686+1056706590+1056424337+1056310630
3454+1056592563+1056807884+1056454092+1055608934+1054701131+1054014920
3445+1053607890+1053441713+1053393466+1053335364+1053353601+1053712383
3437+1054444154+1055084166+1055037006+1054281240+1053506725+1053348930
3428+1053664200+1053835881+1053594133+1053196445+1052990915+1053062518
3420+1053180000+1053042553+1052695033+1052494493+1052554194+1052604809
3411+1052534934+1052581325+1052890069+1053324806+1053661961+1053655882
3403+1053155109+1052398447+1051880141+1051805531+1051958399+1052086376
3394+1052140318+1052179223+1052259848+1052403246+1052559889+1052618439
3386+1052527063+1052409389+1052466850+1052736049+1053061494+1053315784
3377+1053516003+1053723837+1053955475+1054192168+1054372871+1054392068
3369+1054150128+1053614353+1052911889+1052377970+1052302400+1052522968
3360+1052528535+1052119458+1051686768+1051645432+1051873614+1051948225
3352+1051711276+1051372330+1051204680+1051302006+1051566086+1051848787
3343+1052113443+1052436456+1052834079+1053145639+1053198685+1053104942
3335+1053226264+1053711296+1054248670+1054431996+1054178602+1053680965
3326+1053179552+1052837855+1052629061+1052373683+1052025331+1051739303
3318+1051575237+1051434398+1051327218+1051400357+1051714283+1052214032
3309+1052771691+1053122603+1053065333+1052820706+1052808804+1053023229
3301+1053030140+1052654784+1052222223+1052009910+1051924997+1051907848
3292+1052195220+1052889685+1053626511+1053976463+1053909595+1053662473
3284+1053426100+1053297675+1053289037+1053341251+1053462765+1053702593
3275+1053901341+1053783346+1053393146+1053076531+1052954633+1052798822
3267+1052487199+1052249290+1052323132+1052617671+1052835295+1052790503
3258+1052532566+1052269574+1052221263+1052479776+1052988419+1053612498
3250+1054153327+1054363913+1054094202+1053422004+1052622534+1052049006
3241+1051970749+1052362997+1052886422+1053185311+1053209371+1053213594
3233+1053442353+1053837481+1054156335+1054351307+1054594463+1054907302
3224+1055051787+1054835315+1054356810+1053935127+1053813613+1053907740
3216+1053953491+1053881505+1053822891+1053806062+1053737979+1053609938
3207+1053538655+1053698818+1054199719+1054875628+1055350933+1055440325
3199+1055277986+1055021201+1054718088+1054477748+1054482035+1054748611
3190+1055048460+1055163703+1055131773+1055097027+1055058762+1054990615
3182+1055039758+1055347158+1055843387+1056368604+1056776977+1056906490
3173+1056692385+1056282795+1055898481+1055688983+1055683672+1055733519
3165+1055645599+1055510648+1055624931+1056052309+1056585268+1057062173
3156+1057365606+1057264376+1056645737+1055819584+1055305181+1055333144
3148+1055669979+1055932267+1056003358+1056080080+1056327907+1056599474
3139+1056594099+1056274221+1056006366+1056178366+1056716060+1057166922
3131+1057309168+1057395041+1057666031+1057937726+1057858956+1057372453
3122+1056743831+1056297641+1056221430+1056463178+1056748758+1056836358
3114+1056790031+1056877439+1057176520+1057397728+1057197445+1056654567
3105+1056290794+1056519680+1057189126+1057811669+1058098912+1058098273
3097+1057994675+1057990516+1058229193+1058678135+1059142370+1059379895
3088+1059165598+1058429668+1057429018+1056605936+1056205817+1056184445
3080+1056437647+1056916792+1057515339+1057997299+1058113886+1057794648
3071+1057221440+1056712925+1056525887+1056706206+1057053279+1057279990
3063+1057282869+1057177608+1057055454+1056854339+1056503363+1056062995
3054+1055695510+1055566382+1055749772+1056166592+1056625709+1056931061
3046+1056943091+1056614895+1056045015+1055440325+1054949534+1054551207
3037+1054151343+1053726333+1053302346+1052880151+1052486943+1052210257
3029+1052063340+1051917254+1051660789+1051319027+1050974066+1050685287
3020+1050441043+1050071191+1049309729+1048068483+1046496866+1044700969
3012+1042583019+1039999873+1036845056+1032924362+1027969361+1021890468
3003+1014942933+1007686335+1000952842+995781688+992950395+992291635+992585342
2993+992241724+989958044+984713560+975496679+961276869+941295868+915689461
2983+886229675+856434718+830637881+812619467+804647799+807033605+817830678
2973+832790513+846229537+852844204+849285748+834330264+808082566+771852429
2963+729488178+688756717+660004130+651415359+664567459+694490777+733547726
2953+775034377+814505076+849635829+879501428+903770800+922460323+936171234
2944+946116878+953775195+960417057+966681900+972407449+976880107+979321902
2934+979378276+977453186+974655616+972268019+971111749+971284902+972374815
2924+973814745+975021693+975443120+974799846+973278779+971277287+968894041
2914+965577461+960124503+951114368+937645333+920039452+900438095+883085224
2904+873359635+875258105+889019311+910942229+935469026+957838775+975657225
2894+988750648+997949229+1004097229+1007819751+1009467131+1008947417+1005789273
2884+999373097+988950676+973581507+952404949+925502905+895134101+866031818
2874+843723305+832457518+834901872+852210272+882279226+918550699+952844229
2864+980002034+999341871+1012548681+1021474800+1027547613+1031858764+1035194988
2854+1038077599+1040746297+1043097677+1044864523+1045986815+1046728887
2846+1047417978+1048185070+1048982173+1049738643+1050418007+1050966964
2837+1051310133+1051471192+1051646200+1052038320+1052637315+1053276879
2829+1053867107+1054408705+1054836019+1055045261+1055079494+1055135484
2820+1055347222+1055643296+1055869750+1055991008+1056078416+1056149891
2812+1056181950+1056253617+1056481031+1056784464+1056936436+1056890876
2803+1056889469+1057174601+1057712871+1058259075+1058602693+1058684470
2795+1058541968+1058262723+1058019503+1058031469+1058384044+1058918923
2786+1059397556+1059728440+1059954894+1060078584+1060024770+1059788461
2778+1059496098+1059297414+1059250511+1059314435+1059409074+1059484644
2769+1059562646+1059705148+1059945616+1060256535+1060547874+1060701638
2761+1060692104+1060680778+1060856426+1061156339+1061302681+1061159411
2752+1060909216+1060808051+1060890596+1061001616+1061044232+1061064132
2744+1061117243+1061180271+1061200363+1061121530+1060907361+1060663053
2735+1060613334+1060828143+1061095487+1061159283+1060944602+1060553377
2727+1060217311+1060194019+1060524711+1060970069+1061285852+1061447294
2718+1061555115+1061655257+1061697745+1061600930+1061361998+1061102717
2710+1060943066+1060864105+1060774777+1060671052+1060643345+1060760188
2701+1060989522+1061212265+1061312919+1061281053+1061205674+1061162674
2693+1061175920+1061263520+1061394056+1061449086+1061386186+1061372428
2684+1061577767+1061922152+1062175738+1062211891+1062058319+1061817083
2676+1061623454+1061605730+1061805949+1062124995+1062366743+1062399889
2667+1062266217+1062071245+1061837047+1061542189+1061199788+1060837614
2659+1060507242+1060322059+1060361604+1060566879+1060815410+1061018125
2650+1061116795+1061107708+1061083969+1061127737+1061183279+1061145589
2642+1061043336+1061021900+1061144630+1061314391+1061408901+1061419140
2633+1061439040+1061570984+1061801022+1061955106+1061923240+1061892589
2625+1062091081+1062376213+1062415566+1062150398+1061758598+1061377483
2616+1061138999+1061181423+1061406982+1061515698+1061386825+1061186094
2608+1061128441+1061331156+1061781058+1062269993+1062522235+1062512189
2599+1062519099+1062776588+1063198208+1063535874+1063684839+1063714018
2591+1063684519+1063593080+1063460880+1063338918+1063222203+1063055194
2582+1062836737+1062663457+1062643749+1062773197+1062878266+1062695643
2574+1062130242+1061514098+1061428162+1062077068+1062999908+1063601782
2565+1063766872+1063741980+1063669802+1063508487+1063247287+1062994341
2557+1062880058+1062895095+1062846912+1062617065+1062400017+1062433995
2548+1062583983+1062526906+1062287078+1062211699+1062463749+1062860221
2540+1063189441+1063425942+1063620403+1063772183+1063869893+1063924987
2531+1063886018+1063648558+1063322473+1063338022+1063947959+1064726825
2523+1064990201+1064685489+1064424992+1064643704+1065120865+1065375795
2514+1065234253+1064941954+1064895050+1065265095+1065795942+1066027900
2506+1065793511+1065390384+1065160154+1065034033+1064697966+1064098652
2497+1063555135+1063412569+1063754522+1064409315+1065097446+1065578190
2489+1065711670+1065443239+1064861649+1064275003+1064001645+1063979825
2480+1063829453+1063438420+1063228730+1063624050+1064478422+1065263367
2472+1065607177+1065425450+1064783647+1063932282+1063299245+1063141834
2463+1063305068+1063496905+1063673321+1063977906+1064417889+1064750565
2455+1064692975+1064227332+1063719329+1063607733+1063882755+1064057507
2446+1063812240+1063407897+1063264691+1063434836+1063689062+1063837643
2438+1063820494+1063700452+1063634224+1063727455+1063952502+1064212359
2429+1064348270+1064189259+1063810960+1063620851+1063947127+1064603392
2421+1065066091+1065099621+1065039216+1065340665+1065984068+1066575832
2412+1066937942+1067234464+1067555622+1067764800+1067745923+1067446522
2404+1066759671+1065729906+1064763810+1064258622+1064154129+1064159504
2395+1064214278+1064355757+1064341295+1063842890+1062986406+1062368151
2387+1062441161+1063038237+1063573307+1063624434+1063265971+1062907572
2378+1062869179+1063047003+1063010018+1062510077+1061781826+1061190189
2370+1060800948+1060393470+1059560598+1057875913+1055497466+1053386171
2361+1052369204+1052334778+1052747247+1053479850+1054706570+1056272941
2353+1057611321+1058350579+1058691764+1059039285+1059581970+1060262102
2344+1060932380+1061496885+1061919912+1062141824+1062039315+1061562601
2336+1060961495+1060729665+1061176368+1062076556+1062805191+1062822916
2327+1062023382+1060745662+1059644935+1059322817+1059717114+1060126895
2319+1060168103+1060099380+1060041279+1059784237+1059461800+1059468007
2310+1059648262+1059457833+1058874003+1058368303+1058193359+1058298492
2302+1058682294+1059302405+1059854113+1060012676+1059770736+1059331648
2293+1058819613+1058273025+1057774172+1057415645+1057259577+1057444312
2285+1058116957+1059059825+1059589777+1059147745+1057976119+1056983596
2276+1056891452+1057652146+1058639678+1059206679+1059166174+1059009275
2268+1059424879+1060341576+1060852971+1060374466+1059283593+1058209804
2259+1057434841+1057124754+1057467603+1058483482+1059984969+1061547244
2251+1062524154+1062535544+1061884079+1061213481+1060916127+1060884581
2242+1060583836+1059601295+1058346291+1057780378+1058329398+1059540058
2234+1060799221+1061909994+1062946541+1063905215+1064660469+1065081896
2225+1064947905+1063966772+1062357849+1061065284+1060704006+1060811634
2217+1060833966+1061013901+1061530607+1061704912+1060834030+1059150113
2208+1057575488+1056933493+1057397472+1058463454+1059519454+1060326219
2200+1060828911+1060940891+1060692744+1060305486+1060248217+1061250594
2191+1063546432+1065908754+1066376701+1064345135+1061307416+1059305029
2183+1058994045+1059258829+1058758632+1057836112+1058095649+1059912470
2174+1061602018+1061745160+1060960919+1060513641+1060619797+1060907361
2166+1061265824+1061481272+1061125305+1060481646+1060655951+1061986972
2157+1063159815+1063022879+1062253100+1062322015+1063659500+1065329979
2149+1066302986+1066489576+1066352577+1066092016+1065582029+1064821848
2140+1064156753+1064031272+1064521487+1065182230+1065435304+1065010549
2132+1064087837+1063287087+1063228858+1063675689+1063552191+1062322463
2123+1060769594+1059894361+1059693118+1059551384+1059232530+1058900110
2115+1058626624+1058418918+1058411112+1058531986+1058247301+1057257082
2106+1056211064+1055917934+1056037016+1055555440+1054409856+1053505765
2098+1053266129+1053292364+1053314440+1053431475+1053576920+1053569945
2089+1053473131+1053456046+1053658185+1054353355+1055738830+1057445016
2081+1058711089+1059147361+1059018361+1058824284+1058908429+1059387702
2072+1060097588+1060546914+1060232924+1059248527+1058386796+1058340020
2064+1058969922+1059766193+1060729857+1062138433+1063681256+1064492372
2055+1063949431+1062124099+1059681856+1057616568+1056888509+1057987253
2047+1060570462+1063424534+1065158746+1065507099+1065624838+1066511908
2038+1067869421+1069089166+1070093272+1070560514+1069963247+1068796868
2030+1068088069+1067867501+1067705930+1067887465+1068612901+1069085839
2021+1068532788+1067288087+1066167651+1065414764+1064727401+1064028712
2013+1063719265+1063965620+1064052900+1063026143+1060945050+1058865813
2004+1057646323+1057582015+1058937032+1061657880+1064626427+1066341891
1996+1066547485+1066236886+1066061302+1065823265+1065521112+1065585165
1987+1065987012+1066258066+1066350785+1066810670+1068178868+1070254522
1979+1071638014+1070602107+1067211748+1063565437+1061379147+1060753533
1970+1061245731+1062595245+1064239426+1065388657+1066007744+1066809774
1962+1068060234+1069265774+1070150989+1070965113+1071547471+1071183249
1953+1069799885+1068416649+1068038350+1068747341+1070049376+1071506070
1945+1072808809+1073546275+1073337161+1072093803+1070380387+1068827966
1936+1067780989+1067338509+1067306259+1067107256+1066224152+1064895306
1928+1063967347+1063984688+1064786398+1065860123+1066716287+1067068862
1919+1066879329+1066245460+1065382962+1064698606+1064579908+1065019060
1911+1065544532+1065649217+1065312126+1064967741+1064990777+1065323772
1902+1065656576+1065886166+1066140328+1066345986+1066214170+1065761069
1894+1065398703+1065328955+1065280388+1064966014+1064505681+1064233731
1885+1064289913+1064604031+1065075050+1065632132+1066198429+1066648651
1877+1066780211+1066407223+1065669117+1065130720+1065284484+1065971270
1868+1066492839+1066470571+1066169250+1065842142+1065480096+1065100069
1860+1064877646+1064971517+1065322557+1065673661+1065830944+1065878103
1851+1066024957+1066280462+1066455790+1066479466+1066518883+1066729212
1843+1066989389+1067076733+1066947477+1066661193+1066293132+1065984260
1834+1065920144+1066175137+1066606163+1066910875+1066904029+1066748217
1826+1066706177+1066802415+1066845735+1066745977+1066653322+1066731772
1817+1066907676+1066962578+1066841768+1066697922+1066650443+1066651467
1809+1066621648+1066596501+1066616081+1066579672+1066337476+1065915089
1800+1065575822+1065590412+1066007168+1066703169+1067486450+1068064969
1792+1068131773+1067752322+1067356490+1067219875+1067310994+1067422270
1783+1067374535+1067212580+1067115254+1067111223+1067005322+1066627471
1775+1066001921+1065305216+1064795421+1064660853+1064854354+1065202770
1766+1065557778+1065833759+1065988675+1065996354+1065925519+1065961352
1758+1066168291+1066322822+1066149350+1065687546+1065201619+1064829526
1749+1064451547+1063937849+1063331303+1062696987+1062054160+1061409285
1741+1060778232+1060256599+1059975883+1059912662+1059919061+1059937426
1732+1060073721+1060339656+1060578589+1060664525+1060665421+1060827631
1724+1061307352+1061985948+1062708569+1063500297+1064238082+1064350830
1715+1063687846+1062958635+1062628775+1062653859+1062897782+1063318378
1707+1063858759+1064321907+1064524366+1064454619+1064086174+1063389405
1698+1062722646+1062516220+1062693148+1062863932+1062874618+1062854462
1690+1062876666+1062845376+1062620393+1062132994+1061508467+1061119674
1681+1061053894+1061072195+1061014541+1060835502+1060567647+1060287698
1673+1060009540+1059694718+1059393717+1059209238+1059083437+1058889232
1664+1058626880+1058367344+1058103520+1057744737+1057296627+1056902906
1656+1056704862+1056680483+1056460299+1055751436+1054881898+1054004874
1647+1052997058+1051813017+1050652909+1049665377+1048805629+1047961111
1639+1047013380+1045820253+1044285621+1042695894+1041456888+1040474219
1630+1039458532+1038222213+1036717591+1034989778+1033031990+1030843525
1622+1028728262+1027130985+1026192340+1025808090+1025701678+1025479894
1613+1024990191+1024318506+1023584495+1022924392+1022432769+1022036809
1605+1021595098+1021161769+1020962829+1021035200+1021140780+1021156714
1596+1021299216+1021812018+1022620831+1023496703+1024423702+1025565830
1588+1026958025+1028415423+1029711379+1030764243+1031678445+1032629376
1579+1033760754+1035250466+1037238008+1039328827+1040935959+1042242537
1571+1043801677+1045729198+1047484078+1048756294+1049815429+1050851465
1562+1051851026+1053007168+1054771646+1056752726+1057821779+1058321208
1554+1058832603+1059433197+1060115697+1060915359+1061741705+1062469700
1545+1063144649+1063886018+1064726633+1065646786+1066472939+1066875298
1537+1066914523+1066871842+1066928984+1067103608+1067277209+1067422782
1528+1067632280+1067920355+1068164663+1068273187+1068238122+1068046540
1520+1067775678+1067600414+1067574306+1067586080+1067496945+1067264859
1511+1066930520+1066506789+1065761005+1063802513+1059632713+1053964242
1503+1048160371+1043688929+1042586794+1046080622+1052463843+1057984693
1494+1060909984+1062138305+1062693979+1062894455+1062755856+1062383508
1486+1061911722+1061349072+1060652943+1059834660+1058944646+1057997747
1477+1056989674+1055968932+1055034319+1054266842+1053637261+1052993282
1469+1052239052+1051395621+1050477709+1049412623+1048175472+1046911574
1460+1045745067+1044607546+1043264175+1041597470+1039694009+1037338662
1452+1033948687+1028861230+1022112187+1015716744+1013061804+1015561253
1443+1021468593+1027930072+1033032118+1036515964+1038982842+1040770421
1435+1041838770+1042377168+1042742990+1043144452+1043598194+1044022117
1426+1044386274+1044730276+1045080932+1045457439+1045921611+1046479333
1418+1046944976+1047185444+1047341384+1047557153+1047829039+1048147701
1409+1048600866+1049266473+1050125773+1051085150+1051973948+1052660799
1401+1053221081+1053840424+1054549031+1055184627+1055640928+1055932075
1392+1056057684+1056013084+1055845947+1055596072+1055240873+1054788411
1384+1054364425+1054117686+1054104568+1054269722+1054517805+1054833587
1375+1055322138+1056066835+1056939124+1057699689+1058260547+1058717872
1367+1059229714+1059896537+1060716676+1061598243+1062390931+1062961323
1358+1063279281+1063460496+1063710306+1064160784+1064766754+1065377523
1350+1065860507+1066184416+1066419701+1066634830+1066831530+1066987725
1341+1067047298+1066866275+1066358720+1065730930+1065308351+1065165145
1333+1065100965+1064894219+1064491412+1063989551+1063531907+1063236729
1324+1063154312+1063264180+1063531395+1063943672+1064485525+1065108963
1316+1065724723+1066212698+1066525601+1066787954+1067178539+1067706634
1307+1068215854+1068576108+1068790085+1068941097+1069107595+1069325859
1299+1069596914+1069895036+1070159691+1070322094+1070382243+1070409630
1290+1070434265+1070397088+1070274039+1070171721+1070191878+1070255930
1282+1070192709+1069941939+1069568183+1069122696+1068576236+1067830388
1273+1066751224+1065224910+1063116686+1060145644+1055959718+1050519365
1265+1044472019+1039117858+1035838327+1035288667+1037026143+1039965192
1256+1043117577+1045848856+1047750845+1048604386+1048431297+1047446005
1248+1045923530+1044088600+1042089285+1040055671+1038180685+1036702042
1239+1035760453+1035296666+1035133240+1035131320+1035190381+1035152244
1231+1034797941+1033960845+1032642045+1031030627+1029377168+1027832298
1222+1026370164+1024744924+1022476409+1018905924+1013132127+1003557487
1214+987005814+957703696+908111193+834802626+747584593+671631644+634784980
1204+648233155+698955819+760985480+813641041+850497560+873998175+884582999
1194+878118640+855075862+828411727+816687526+828689180+857755182+890645894
1184+918391496+938759818+952995305+963107767+970981597+978113290+985526852
1174+993694580+1002458871+1011236345+1019424933+1026613640+1032532497
1166+1036976232+1039864154+1041300244+1041331983+1039416172+1034211296
1157+1024558142+1011609141+999971516+995362052+1000088615+1011170501+1023151166
1147+1032216267+1037719841+1040909212+1042956775+1043882878+1042482557
1139+1036931312+1026562833+1014259922+1006088226+1006610883+1014706368
1130+1025103515+1033368569+1038408227+1041170988+1042619812+1043096205
1122+1042692119+1041530602+1039513306+1036012376+1030261359+1022504884
1113+1014911771+1010870587+1012594881+1019241030+1027714751+1035214889
1105+1040739770+1044665071+1047652111+1050038173+1051846803+1053061494
1096+1053799024+1054265051+1054620570+1054901543+1055085701+1055204208
1088+1055281122+1055180276+1054702027+1053803695+1052573391+1051030568
1079+1049070093+1046632457+1043929077+1041445754+1039567120+1038133077
1071+1036361112+1033328320+1028983640+1024912509+1023469892+1025537100
1062+1029420488+1032245254+1031979574+1028070462+1020956878+1011524996
1054+1000833184+990061002+980568331+973673971+969945690+968471846+966985845
1044+963028422+955082541+942594128+925296543+902946438+875515147+843175501
1034+806144103+764854152+720273536+673778901+626544561+579019458+530928090
1024+481884703+432562296+385750247+346054213+318211925+305708570+310297303
1014+331104040+363409964+399430123+431511319+454722419+466768129+467024050
1004+456703626+438985318+417618458+395357713+373932943+354695199+338489479
994+325238325+314382958+306091925+302082767+304888592+315801900+333558857
984+355268759+378376614+401629242+424852436+448441995+472837167+497984043
975+523194811+547558053+570383719+591197400+609473623+624715326+637075699
965+647797458+658617183+670581084+683687624+697619231+712350435+727981380
955+744400277+761184356+777588088+792794470+806513251+818909969+828998948
945+833487090+829629105+819966801+809822921+796482503+766852956+714966087
935+658974110+629807071+641813140+682236113+728815916+768921763+801032586
925+826934940+847792964+864625098+878699399+890953678+901667695+910857189
915+918764485+925772104+932094025+937853423+943161705+947839956+951184179
905+951667355+946542529+933264179+913748950+896781161+892756550+904493228
895+925118591+945524090+961494429+973413986+982476783+989030469+993037036
885+994669122+994482340+993243654+991750934+990943785+991845957+995071161
875+1000330555+1006407400+1011824141+1015609884+1016963493+1013950346
867+1001946709+972401690+916589713+838449770+764301228+729467126+748828207
857+805068267+867669792+917111410+950034757+970675349+983838455+993144344
847+1001025916+1008653263+1016012691+1022544877+1027915418+1032111774
839+1035216297+1037506119+1039410349+1041145712+1042699861+1044084633
830+1045325431+1046399028+1047325579+1048180847+1048984413+1049602284
822+1049849471+1049871803+1050198463+1051123799+1052367284+1053542238
813+1054505327+1055249383+1055913518+1056753749+1057817236+1058893520
805+1059787309+1060387775+1060705350+1061018317+1061627102+1062370582
796+1062733076+1062497087+1061986268+1061444095+1060318092+1057288116
788+1050490058+1037563581+1016849146+989651092+960757091+936717694+924286551
778+928414823+948343673+976244638+1002530474+1022331220+1035879216+1044926144
768+1050886722+1054930785+1057854221+1059938897+1061354959+1062423245
759+1063444691+1064506833+1065486495+1066235798+1066785650+1067336782
751+1068084230+1069039128+1069931701+1070418780+1070529544+1070698473
742+1071216779+1071912268+1072471014+1072794412+1072976202+1073149867
734+1073374274+1073546275+1073544931+1073399037+1073365252+1073547170
725+1073741823+1073728385+1073549858+1073340872+1073004741+1072358715
717+1071524691+1070819411+1070349417+1070024228+1069820873+1069774866
708+1069888317+1070166026+1070512907+1070687467+1070629110+1070637109
700+1070954171+1071391915+1071571274+1071406312+1071187536+1071184465
691+1071335861+1071429476+1071346227+1070963577+1070117267+1068777735
683+1066934295+1064311925+1060562656+1055728784+1050095506+1043364124
674+1034547810+1023217266+1009638492+992870538+971575089+950621082+938251111
664+935997314+943282067+959522436+980647420+1000467234+1015762624+1027347202
654+1037082709+1045422437+1051913735+1056708830+1060487917+1063646574
646+1066255635+1068260389+1069406677+1069419730+1068492603+1067418623
637+1066930648+1066939734+1066869603+1066625359+1066491240+1066262545
629+1065415148+1064026217+1062741395+1061891182+1061228198+1060529510
620+1059931155+1059565653+1059302533+1058982591+1058466397+1057427291
612+1055656605+1053504357+1051474327+1049539703+1047234011+1044150989
603+1040162724+1035316630+1029439493+1021725314+1010791370+994898712+971704089
594+937758465+888841231+822112650+738900543+646063886+556891777+490340059
584+463650937+482299572+537295090+611684292+690186025+763291876+825393268
574+874191292+911091898+938653342+958421773+971946797+981739126+990302046
564+999300151+1009433025+1020096107+1029678873+1037158151+1043042199+1048188910
554+1052400046+1054881003+1055358036+1053995596+1050539393+1043620078
545+1031048288+1012626811+993732653+983765956+988361599+1003699029+1020355515
535+1031518154+1035693842+1033516702+1023500159+998575291+948419627+875069532
526+808836092+789894839+826941530+892807293+955182299+998432597+1022983453
516+1035084225+1040925849+1045313913+1050494730+1055822463+1059427182
507+1060541220+1060326795+1060350598+1060777912+1060646608+1059362234
499+1057024036+1053632654+1049009496+1043456140+1037651757+1031380387
490+1022737098+1008750141+985461328+947029480+887727770+808206767+719252986
480+637896605+580690770+557511376+567074626+599941599+645768132+696023169
470+744671524+789231215+828791433+862450774+890675585+914947132+935730162
460+952972973+967328438+979325997+989146032+997836225+1006686517+1015757569
450+1024057689+1030831111+1036127874+1040396089+1044272503+1048764165
442+1054538793+1060528550+1064662389+1066163299+1065979397+1065524056
433+1065734897+1066622864+1067141169+1066353793+1064770849+1063613684
425+1063390301+1063639471+1063301421+1061558250+1059608205+1060663437
416+1064983354+1069498180+1072032310+1072086509+1070392609+1068237418
408+1066310857+1063785237+1058382061+1048116475+1032983679+1013887510+991407828
398+969981715+961219791+971839681+995401021+1020618060+1039280260+1049131650
388+1052401710+1052362613+1052197395+1055019985+1061397640+1068494331
380+1073101684+1073546275+1072653445+1071532881+1073546275
##END=
