##TITLE=SG-X18939
##JCAMP-DX=4.24
##DATA TYPE=INFRARED SPECTRUM
##DATE=1/7/2021
##SAMPLING PROCEDURE=Diamant-ATR
##ORIGIN=Angelika Moesle
##XUNITS=1/CM
##YUNITS=TRANSMITTANCE
##RESOLUTION=4
##FIRSTX=3997.453
##LASTX=373.96442
##DELTAX=-1.4165319
##MAXY=0.97192782
##MINY=0.59520012
##XFACTOR=1
##YFACTOR=9.0517832e-010
##NPOINTS=2559
##FIRSTY=0.95959836
##XYDATA=(X++(Y..Y))
3997+1060120795+1060497910+1061231330+1061914113+1062153407+1061943877
3989+1061710115+1061712288+1061668630+1061295664+1060869361+1060859550
3980+1061202752+1061307188+1060780465+1060008655+1059889535+1060850792
3972+1062276280+1063211593+1063396824+1063250509+1063099452+1062867271
3963+1062377424+1061617663+1060779873+1060162345+1059916665+1059931481
3955+1060081220+1060435288+1061035497+1061683314+1062155777+1062408438
3946+1062427337+1062198447+1061935778+1061951054+1062137340+1061994317
3938+1061326350+1060577455+1060429822+1061090612+1061975813+1062291360
3929+1061967451+1061531995+1061322662+1061333264+1061453371+1061556358
3921+1061514479+1061296389+1061056568+1061063351+1061426308+1061972324
3912+1062435304+1062634299+1062598477+1062624158+1062997519+1063553610
3904+1063712107+1063359093+1063213568+1063623804+1064009808+1063822996
3895+1063129414+1062279112+1061626685+1061313246+1061012121+1060453528
3887+1060053432+1060481842+1061604033+1062562392+1063027875+1063136394
3878+1062956430+1062761255+1063048881+1063930461+1064840751+1065227150
3870+1065075830+1064589407+1064067360+1063907743+1064196225+1064440523
3861+1064246797+1063847426+1063551371+1063494280+1063988934+1065572459
3853+1067664532+1068098869+1066762605+1065035662+1063679512+1062830132
3844+1062236179+1061651971+1061283680+1061542201+1062312694+1062959393
3836+1063293640+1063764391+1064548976+1065282067+1065517410+1065232549
3827+1064767329+1064319757+1063757740+1063126648+1063042494+1063796591
3819+1064363678+1064064462+1063535370+1063511467+1063885289+1064308760
3810+1064797027+1065436745+1066005742+1065925671+1064984827+1063845450
3802+1063511598+1064238961+1064980613+1065099799+1065095255+1065518463
3793+1066168652+1066467736+1066250765+1065904928+1065810897+1065873914
3785+1065769149+1065375111+1064801966+1064310077+1064291771+1064832717
3776+1065446557+1065736817+1065777709+1065755057+1065663923+1065431017
3768+1065229125+1065395722+1065940882+1066379038+1066284479+1065839607
3759+1065645024+1065979205+1066422234+1066605754+1066752135+1067430704
3751+1068873445+1070105537+1070159006+1069504405+1068893331+1068318605
3742+1067390668+1066357834+1065681438+1065482049+1065629155+1065858900
3734+1065776985+1065305378+1064948676+1065064570+1065452615+1065707054
3725+1065763749+1066053746+1066828849+1067605598+1067797349+1067546071
3717+1067343718+1067197205+1066721779+1065948718+1065815045+1067080719
3708+1068856324+1069834109+1069715911+1069172661+1069148494+1069792295
3700+1070102112+1069431248+1068378133+1067783784+1067759815+1067792015
3691+1067475152+1066894829+1066365473+1065933243+1065440170+1064872489
3683+1064407599+1064223552+1064207946+1063945606+1063196579+1062443799
3674+1062640357+1063816148+1065164989+1065848891+1065339026+1064155663
3666+1062972497+1061702081+1060174857+1058684968+1057661551+1057159456
3657+1056979624+1056981467+1057074445+1057240581+1057676301+1058516725
3649+1059008548+1057983221+1056137355+1054895386+1054676901+1055033076
3640+1055154369+1054580367+1053626025+1052897016+1052572119+1052289695
3632+1051559106+1050163710+1048502615+1047613331+1047660281+1047765507
3623+1047392014+1046497726+1045390615+1044621768+1044393273+1044242217
3615+1043891705+1043653136+1043870502+1044383923+1044683994+1044395183
3606+1043636147+1042899368+1042507701+1042446396+1042509282+1042370736
3598+1041780207+1040935897+1040468373+1040704110+1041172228+1041338890
3589+1041275610+1041255789+1041105391+1040534024+1039823321+1039322609
3581+1038984147+1038728458+1038743800+1039041699+1039152983+1038760328
3572+1038184285+1037888099+1037994839+1038406722+1038833420+1038783178
3564+1038189224+1037539826+1037240084+1037281766+1037333128+1037072828
3555+1036564544+1036308064+1036684256+1037272284+1037248051+1036433637
3547+1035332057+1034446856+1033976763+1033909795+1033984336+1033802330
3538+1033330460+1033015046+1033137919+1033406713+1033422385+1033116979
3530+1032682445+1032435513+1032541529+1032664271+1032290580+1031505666
3521+1030961165+1030994616+1031249647+1031241614+1030964194+1030752162
3513+1030654837+1030286415+1029454485+1028636186+1028470050+1029002435
3504+1029723740+1030034149+1029633395+1028736473+1027921005+1027731295
3496+1028251235+1028907416+1028928948+1028149631+1027117060+1026390620
3488+1025995068+1025662203+1025365951+1025337043+1025617229+1025895373
3479+1025936462+1025889447+1025939491+1025941796+1025658516+1025148651
3471+1024631147+1024154536+1023676476+1023343941+1023404258+1023819762
3462+1024191345+1024183773+1023869544+1023526802+1023317075+1023295213
3454+1023502767+1023878104+1024203593+1024258642+1023998936+1023575135
3445+1023168981+1022785545+1022263169+1021494783+1020611623+1019927061
3437+1019639106+1019582937+1019421411+1019113108+1019002022+1019397574
3428+1020179920+1020808378+1020721655+1019906714+1019031522+1018767601
3420+1019048708+1019300974+1019225775+1018968439+1018709588+1018387918
3411+1017804764+1016943334+1016137085+1015760431+1015776432+1015809291
3403+1015609704+1015238779+1014877995+1014626717+1014394535+1013960264
3394+1013272543+1012615111+1012307994+1012332950+1012390107+1012232795
3386+1011881493+1011572466+1011493711+1011588665+1011674992+1011636405
3377+1011403433+1010917800+1010273538+1009723044+1009394592+1009198693
3369+1009096562+1009185062+1009368779+1009311360+1008949720+1008690013
3360+1008814533+1009045529+1008993772+1008711611+1008481866+1008337526
3352+1008128128+1007855515+1007610493+1007302387+1006793115+1006306955
3343+1006317689+1006845267+1007230744+1006923495+1006155504+1005506567
3335+1005194774+1005203993+1005632403+1006402765+1007026811+1007096018
3326+1006746626+1006370960+1006149248+1006028680+1005936821+1005853984
3318+1005759557+1005627991+1005462251+1005208273+1004631769+1003517744
3309+1002076452+1000912382+1000509587+1000915016+1001818721+1002670932
3301+1002863144+1002187407+1001132514+1000435046+1000269174+1000184558
3292+999918465+999783673+999977136+1000089407+999746798+999230809+999027995
3282+999181093+999391611+999416238+999138555+998489486+997490235+996338149
3272+995378539+994913319+994981868+995366950+995842376+996346512+996851834
3262+997144333+996927823+996213827+995433588+995004915+994882963+994714259
3252+994364604+994037929+993842952+993585352+993143772+992728861+992534213
3242+992435308+992238882+991947305+991654213+991406557+991179906+990883654
3233+990523923+990351334+990580290+991027730+991345581+991467664+991506647
3223+991426706+991146653+990784683+990525833+990365097+990147797+989765744
3213+989253179+988781769+988493616+988262620+987784625+987013803+986309816
3203+986005201+986008559+985977215+985748128+985443447+985227398+985091026
3193+984890056+984550146+984215307+984120090+984252643+984279575+983939006
3183+983390225+983006262+982942521+983020222+982932380+982510357+981870573
3173+981322977+981110352+981242971+981509591+981631806+981547586+981517691
3163+981737098+981970794+981914165+981719516+981729657+981870310+981754548
3153+981228879+980460625+979667743+979057195+978831203+978951838+979012945
3143+978611730+977852694+977270528+977184727+977365284+977479202+977546762
3133+977705457+977836101+977737855+977433108+977103668+976924625+976971444
3123+977080555+976930354+976433330+975859921+975480502+975315090+975227907
3114+975059401+974701119+974219700+973856151+973739862+973620874+973029093
3104+971812279+970440457+969601086+969477883+969634998+969624330+969443313
3094+969321493+969344342+969457536+969595620+969585150+969143504+968234993
3084+967269983+966696376+966524512+966480064+966477167+966634544+966909989
3074+967080010+967096143+967141117+967244170+967140656+966659764+966047044
3064+965724847+965807948+966009971+966055868+966029133+966181836+966507325
3054+966698154+966531228+966123823+965758825+965556473+965430109+965339304
3044+965355503+965440513+965457305+965480747+965755006+966268888+966701051
3034+966835053+966761500+966682811+966702237+966751360+966654365+966340531
3024+965981196+965807816+965846338+965943069+965982973+965964602+965884727
3014+965704039+965493126+965456383+965642339+965760010+965522956+965064782
3004+964798886+964957119+965445386+966048295+966616963+967083697+967378698
2995+967420117+967275448+967199459+967317591+967429204+967318974+967080866
2985+966967343+967102859+967416298+967710246+967795520+967666325+967523631
2975+967596525+967950988+968416339+968729844+968820254+968832963+968838297
2965+968748150+968577141+968516561+968683157+968996135+969306282+969502576
2955+969529838+969450754+969477093+969823127+970458697+971068520+971334021
2945+971229058+971017158+971008993+971303204+971699875+971915595+971935086
2935+972027472+972332153+972621425+972638019+972465430+972364155+972411500
2925+972529764+972698139+972909710+973075517+973149530+973200695+973247184
2915+973176857+972905035+972494272+972077253+971722922+971385580+970990950
2905+970570837+970250418+970058074+969841104+969458392+968972693+968533089
2895+968146690+967727959+967306858+966994868+966769402+966454844+965924434
2885+965217880+964492229+963942921+963738659+963903675+964195516+964212373
2876+963770463+963118036+962648537+962490829+962476804+962386525+962129848
2866+961777032+961476565+961321162+961295284+961371010+961593248+962006909
2856+962499982+962816582+962829488+962733547+962838246+963243675+963852511
2846+964575330+965360310+966085302+966608008+966961087+967354335+967893436
2836+968449198+968937662+969521080+970315410+971113692+971631656+971849417
2826+971933638+971992572+972070800+972241874+972547872+972924197+973274642
2816+973537510+973646291+973609153+973662227+974096432+974873049+975648218
2806+976166841+976431552+976571809+976725500+976956167+977214820+977463398
2796+977772030+978211832+978757190+979338171+979895052+980393262+980831220
2786+981209454+981509130+981722348+981853782+981929376+982055871+982336517
2776+982699013+983003562+983306992+983782221+984407650+984964465+985325183
2766+985590026+985916832+986306985+986613773+986731181+986696874+986635569
2757+986678173+986888164+987205422+987527026+987844811+988186235+988480381
2747+988689647+989008091+989683565+990641331+991494530+991968047+992166514
2737+992390992+992819337+993419348+994066046+994656642+995145040+995564759
2727+996044597+996703345+997464093+998068582+998356933+998451491+998595831
2717+998896298+999279668+999632419+999902068+1000053717+1000012035+999771820
2707+999523966+999487420+999637160+999764182+999758650+999658626+999476094
2697+999164894+998748995+998350612+998031839+997671779+997120298+996457796
2687+995946087+995675911+995439251+995021443+994445202+993853948+993337301
2677+992966442+992809986+992765736+992553243+992061684+991558469+991360595
2667+991423941+991433291+991207233+990828868+990427785+990040332+989720440
2657+989608761+989760410+990022619+990203109+990288976+990425019+990749323
2647+991276045+991854656+992251525+992345359+992241648+992169148+992286951
2638+992587221+992952153+993289758+993630656+994087250+994699904+995359311
2628+995951553+996513438+997086123+997485955+997477855+997170409+996991564
2618+997226577+997747768+998268169+998721997+999214742+999673442+999882445
2608+999896339+1000043511+1000461912+1000982906+1001431795+1001717578
2599+1001759589+1001602804+1001462612+1001496458+1001639020+1001701972
2591+1001556380+1001244588+1000946096+1000822104+1000897039+1001071604
2582+1001251831+1001473477+1001798637+1002103779+1002212100+1002172591
2574+1002090148+1001836895+1001294698+1000673286+1000300649+1000277537
2565+1000425169+1000407258+999986815+999247863+998444051+997759753+997380926
2555+997478975+997923518+998298986+998284236+997819017+997056688+996353821
2546+996073768+996257682+996681220+997202740+997775425+998193299+998167355
2536+997695090+997127278+996853348+997008026+997380268+997543967+997281232
2526+996915707+996970558+997539358+998282985+998937519+999537268+1000213466
2516+1000947413+1001504228+1001684127+1001666545+1001859284+1002356901
2507+1002813033+1002890274+1002651441+1002497290+1002770693+1003391644
2499+1003996331+1004477750+1005097187+1005948542+1006706656+1007144878
2490+1007548727+1008300782+1009294173+1010073227+1010415639+1010508881
2482+1010642092+1010962709+1011479224+1012077656+1012501786+1012528125
2473+1012319320+1012432118+1013207814+1014289836+1015066849+1015412948
2465+1015641509+1015964561+1016359455+1016758431+1017120993+1017488164
2456+1018029110+1018809546+1019567792+1019943392+1019858513+1019532563
2448+1019250007+1019235455+1019628307+1020391425+1021224080+1021741583
2439+1021881511+1022028222+1022569826+1023419666+1024119504+1024323964
2431+1024078547+1023744300+1023741007+1024231447+1024956373+1025489483
2422+1025739114+1026066052+1026796312+1027725698+1028281130+1028123094
2414+1027473169+1026894756+1026860251+1027453612+1028345135+1029055904
2405+1029337604+1029338657+1029386398+1029628259+1029932809+1030136873
2397+1030249145+1030353976+1030498974+1030759668+1031189593+1031615699
2388+1031734226+1031510868+1031277435+1031386875+1031903523+1032602373
2380+1033187371+1033549209+1033791795+1033963330+1033936530+1033699080
2371+1033571334+1033992303+1035186730+1036964705+1038708703+1039688595
2363+1039523513+1038398161+1037095810+1036664041+1037441251+1038632977
2354+1039351780+1039495988+1039269403+1038725560+1038001622+1037375337
2346+1036996313+1036820299+1036920653+1037563136+1038796347+1040239022
2337+1041276663+1041516681+1041210222+1040989695+1041095975+1041202715
2329+1040996214+1040500770+1039903261+1039389774+1039058951+1038922842
2320+1039046440+1039434090+1039797772+1039867176+1039774593+1039760567
2312+1039838071+1040017311+1040401800+1040883943+1041194221+1041288384
2303+1041358447+1041585295+1042063290+1042711436+1043188641+1043189497
2295+1042854525+1042608054+1042634328+1042825618+1043181595+1043810712
2286+1044467682+1044595889+1044071077+1043475806+1043354645+1043547252
2278+1043556470+1043342002+1043399290+1044114076+1045311465+1046443072
2269+1046986190+1046733003+1046040408+1045721109+1046334092+1047607339
2261+1048703124+1048917593+1048198395+1047272434+1047130859+1048072032
2252+1049364968+1050037281+1049819849+1049189679+1048679814+1048425902
2244+1048454085+1049027099+1050311803+1051917256+1053085277+1053223954
2235+1052315376+1051200297+1051177645+1052709874+1054808993+1056189639
2227+1056536266+1056237247+1055609909+1054871418+1054322044+1054238021
2218+1054735901+1055590681+1056174033+1056070190+1055674901+1055651986
2210+1056140055+1056961384+1057944963+1058680030+1058806261+1058712295
2201+1059063795+1059707793+1059806566+1058789075+1056684556+1054029413
2193+1051884529+1051400806+1052783756+1054851992+1056147364+1056579528
2184+1057308669+1058654876+1059252385+1057999617+1055634470+1053727695
2176+1053269850+1054370837+1056125634+1056908705+1055854141+1053927940
2167+1052914071+1053559979+1055092010+1056574984+1058314241+1061127290
2159+1064205115+1065308077+1063861847+1061793545+1061182076+1062424637
2150+1064268988+1065226359+1064980020+1064212819+1063442392+1062841985
2142+1062796813+1063504750+1064175878+1063623277+1061792162+1060003190
2133+1059364525+1059514923+1059445914+1058983065+1058699718+1058708015
2125+1058403993+1057507465+1056671848+1056707340+1057490345+1058007124
2116+1057496995+1056235535+1055076470+1054607168+1054883995+1055543468
2108+1056020935+1056046023+1055966742+1056251734+1056784910+1057055744
2099+1056963820+1056924047+1057107172+1057189285+1057071219+1057157349
2091+1057631326+1058117947+1058259916+1058076331+1057681832+1057130812
2082+1056565041+1056251141+1056474368+1057281341+1058184125+1058478797
2074+1058118210+1057818468+1058052954+1058496444+1058732643+1058871254
2065+1059034097+1058811068+1057850009+1056572680+1055806862+1056065910
2057+1057358977+1059162831+1060470714+1060545979+1059735911+1059109033
2048+1059366303+1060372929+1061598567+1062607762+1063045720+1062590641
2040+1061364476+1060333486+1060748463+1062806953+1065198966+1066426975
2031+1066115644+1064605342+1062446367+1060954701+1061639262+1064112137
2023+1066049597+1066052429+1065046659+1064443882+1064615351+1065514315
2014+1067231117+1069252601+1070215504+1069162520+1066769058+1064783199
2006+1064412538+1065711597+1068068842+1070565686+1072380471+1073365960
1997+1073741823+1073198770+1071198424+1068207321+1065787981+1065017685
1989+1065368526+1065639756+1065419098+1065227084+1065337182+1065007347
1980+1063558614+1061950330+1062087427+1064261152+1066753781+1068216145
1972+1068679850+1068385508+1067321461+1065881947+1064817572+1064493465
1963+1064872555+1065880038+1067239941+1068310835+1068493828+1067660450
1955+1066073500+1064244953+1062966636+1062842709+1063410587+1063432580
1946+1062493317+1061481884+1061169894+1061201435+1060857903+1060088068
1938+1059368608+1059078874+1059090529+1058952247+1058602658+1058532331
1929+1059073606+1059950840+1060654761+1060912360+1060757945+1060480394
1921+1060560992+1061411294+1062858184+1063974974+1064093963+1063696435
1912+1063699793+1064338458+1064990161+1065064372+1064727096+1064439009
1904+1064272741+1064158165+1064316465+1064787347+1064993782+1064552795
1895+1064032197+1064118985+1064553453+1064664013+1064374609+1064225396
1887+1064633262+1065509640+1066522851+1067416086+1068056923+1068273763
1878+1067905669+1067106861+1066363563+1066074159+1066222647+1066532860
1870+1066823317+1067146370+1067559504+1067876828+1067851937+1067466921
1861+1066996565+1066778145+1066892656+1067143934+1067284981+1067229208
1853+1067158025+1067344508+1067723532+1067849896+1067489309+1066991956
1844+1066844784+1067001569+1067084143+1066996433+1066823976+1066598708
1836+1066362773+1066242929+1066352435+1066665874+1066959953+1066914123
1827+1066428292+1065669191+1064910550+1064487144+1064607120+1065128969
1819+1065665767+1065964258+1066116236+1066306999+1066570986+1066816667
1810+1066900229+1066807185+1066765239+1066939079+1067192069+1067310201
1802+1067262790+1067159672+1067122665+1067205897+1067329034+1067367555
1793+1067381120+1067646687+1068240575+1068825507+1069080144+1068939820
1785+1068572320+1068247818+1068140024+1068239587+1068333158+1068165376
1776+1067744802+1067315206+1067094745+1067105610+1067126747+1066913332
1768+1066482156+1066007191+1065497721+1064777733+1063824510+1062927324
1759+1062265679+1061602452+1060571067+1059039299+1057108160+1054713118
1751+1051464811+1047175373+1042264984+1036931320+1030791407+1023509352
1742+1014804245+1004148770+991948490+980098721+969017536+956052689+939214500
1732+922611588+909982173+899483879+889534103+880279951+871724386+863595058
1723+856167807+849634317+843056314+834550531+823124892+810561260+798540285
1713+786792581+774800777+762442131+749390034+734683559+718481928+703554137
1703+691569708+680769827+669932875+661886450+658304752+657550128+658226590
1693+659802608+662152675+665379252+669235078+673446288+679256892+688738946
1683+699956306+709478593+718002024+726834483+736866635+748958002+761847255
1673+772807872+782348004+793308686+805370685+815010578+821812729+828032252
1663+835254780+842977494+849616736+854723354+858737676+862322996+867105244
1653+874675782+881036616+883409994+884637081+887369926+891833467+895745527
1643+898303610+900298820+902225021+904285684+907009574+911075522+915472161
1633+918298577+919913906+921564860+923812928+926287911+928410406+930298743
1623+932261358+933775084+933927260+932022131+926693011+916366450+902246290
1613+886614709+869989672+853501271+840568624+834911380+837599712+847177707
1604+861349821+877458803+892827451+905937099+916819487+926164510+934425601
1594+941569309+947464002+952298138+956366523+959728155+962387250+964519161
1584+966267110+967539632+968133257+967867887+966249792+961972206+954472720
1574+945737849+937149886+928704485+921658629+918684515+920476253+925563709
1564+931838347+937417560+942164579+947735034+953271445+954118850+950659103
1554+944723650+936794041+926777099+915145618+903708851+893950102+885837039
1544+879280897+875244318+875682342+881877304+889807704+896186712+902996634
1534+912990792+925512281+936416004+944394671+951439013+958960691+966300034
1524+972359414+977587918+982703886+986851552+989156052+989939518+989615016
1514+988350725+986345045+983829434+981022839+978373819+977546235+980186300
1504+984168488+987873060+991570190+995545136+999817848+1004285735+1008325937
1494+1011169407+1012914788+1014210818+1015657905+1017434366+1019127595
1486+1020336705+1021089617+1021647288+1022249012+1022921852+1023508760
1477+1023915242+1024252189+1024800773+1025805226+1026965543+1027590379
1469+1027596042+1027431092+1027507015+1027837772+1028028206+1027820718
1460+1027252840+1026403921+1025328747+1024069921+1022647724+1021028378
1452+1019086242+1016671643+1013699504+1010187474+1006305112+1002161792
1443+997489971+992005581+985873175+979079189+970648077+959951382+948704390
1434+938324492+927888293+916368425+904322559+893129827+883050659+873525211
1424+864792249+857774708+852618704+848840382+846519288+845823598+846234756
1414+847263112+848641322+850045541+851210270+852213406+853585952+856137977
1404+860224009+865426305+871433335+878176091+885036650+891205931+896532417
1394+900890667+903851743+905528048+906608227+907742665+909081563+910210404
1384+910791846+910950541+910933223+910809955+910589362+910426321+910586860
1374+911271816+912488762+914190815+916488796+919418462+922644512+925856998
1364+929244048+933036132+936818470+940041031+942813187+945549456+948415578
1354+951288022+954006249+956527983+958858033+960948591+962733613+964218102
1344+965474162+966552695+967414323+967934394+967973113+967473981+966516676
1334+965255150+963766776+961917025+959404115+955947792+951384622+945619914
1324+938631872+930566220+921724016+912462094+903283272+894999464+888632176
1315+885189089+885389730+889150799+895318368+902089636+907598918+910368045
1305+909720425+905914908+899876929+892753371+885528077+878876653+873206767
1295+868647943+865029897+862045181+859482555+857271625+855333967+853441217
1285+851253335+848521280+845258947+841723804+838255760+835133553+832521936
1275+830496962+829084051+828249157+827887912+827895485+828204051+828710426
1265+829265134+829784547+830244499+830546678+830570647+830369809+830120177
1255+829887666+829598459+829193491+828695347+828187523+827810343+827686613
1245+827783213+827915371+827923141+827775311+827508427+827151989+826713833
1235+826184938+825580910+825002167+824594565+824414996+824381743+824396756
1225+824491841+824846304+825691140+827164962+829210875+831606510+834142402
1215+836794845+839703440+842980589+846568674+850293790+854028059+857756402
1205+861502721+865248448+868953414+872647845+876489316+880707505+885448927
1196+890593606+895634375+899713888+901838161+901141747+897084293+889606734
1186+879241783+867076534+854552148+843180307+834263826+828728732+827100759
1176+829466894+835387399+843981223+854202887+865035691+875563222+885118236
1166+893436418+900612457+906923773+912669978+918062576+923201525+928140032
1156+932936832+937656195+942330847+946910281+951295924+955461501+959456267
1146+963278509+966858627+970133142+972973451+975061705+975955994+975231924
1136+972564400+967846750+961304964+953460628+945020034+936781398+929429938
1126+923258023+918124144+913673443+909492524+905166935+900465417+895510580
1116+890587614+885765000+880861328+875745491+870450612+865019361+859528517
1106+854374027+850356017+848355342+848910445+851996303+857103514+863579913
1096+870962584+878984711+887398175+895962169+904530048+912949570+920944238
1086+928289508+935029169+941302820+947033286+952016109+956279339+960112645
1077+963724765+967076783+970077763+972734882+975083699+977194407+979262643
1067+981433866+983532194+985224238+986440130+987413701+988375221+989421488
1057+990600242+991910825+993234116+994408393+995392170+996303250+997278400
1047+998310905+999246678+999945726+1000435441+1000895130+1001490466+1002224414
1037+1002928005+1003363988+1003347328+1002806712+1001770783+1000288731
1028+998216346+994796702+988420393+977353036+961486376+943663226+928809184
1018+920887345+920044879+922582681+923765847+920792128+913554389+903477064
1009+892211965+881147571+871424972+863947413+859279676+857604687+858839939
999+862746995+868859514+876379546+884295064+891653503+897776098+902371205
989+905520541+907496458+908584604+909069842+909206346+909077546+908608507
979+907759654+906560750+905002182+903116939+901111918+899195199+897337810
969+895377500+893234855+890875437+888182431+885034872+881497227+877897749
959+874740116+872544792+871742955+872651138+875411441+879849368+885434441
949+891506925+897593698+903482135+909017229+913949809+918042492+921266040
939+923849804+926124870+928263037+930149399+931576929+932554516+933346081
929+934233653+935301255+936404283+937335118+938040092+938619822+939146413
919+939631387+940126634+940681276+941259360+941845412+942499616+943200179
909+943789786+944189026+944536443+945041896+945787828+946728079+947797656
899+948909706+949883934+950575936+951122216+951868872+952977563+954219795
890+955205482+955749851+956004356+956199465+956268474+955837957+954645506
880+952852188+950845388+948685821+945656921+940361779+931462550+918519103
870+902250965+884128204+865753309+848587194+834223461+824690967+821949233
860+826655755+837340532+850840267+863747299+873920302+881057359+885989939
850+889483795+891752474+892866696+893181123+893194622+893178752+893086367
840+892761405+892156981+891383459+890592881+889858144+889213948+888795349
830+888858695+889635839+891162010+893149845+895042331+896402037+897327801
820+898292745+899526549+900778329+901655629+901928505+901554288+900680215
810+899544328+898219522+896652656+895030083+893764343+893063583+892831072
800+892924709+893201931+893465325+893654574+893918956+894342954+894775184
790+894902140+894330640+892799531+890487919+887825268+884846677+881060914
781+876059127+869881286+862711963+854663432+846068028+837706979+830508288
771+825069201+821543408+819895813+820048055+821692950+824192889+826936731
761+829756298+832775386+835943095+839059376+842234986+845883454+850147606
751+854662312+858976311+862948886+866655367+870079556+873005600+875162139
741+876431764+876914829+876772991+876026335+874607629+872675041+870737053
731+869296617+868422610+867861580+867518641+867561706+868090667+869047117
721+870415251+872055604+873349527+873549311+872488887+870476688+867605166
711+863727611+859187224+855180474+853290424+854674099+859404985+866363395
701+873893699+880714024+886375350+891072193+895048192+898206550+900316138
691+901403627+901796413+901925278+902188541+902827798+903759423+904584966
681+904937980+904859093+904725355+904913352+905672190+907030184+908621940
671+910012002+911225920+912401118+912839537+911879005+909834672+906801756
662+902292055+895763899+887088753+876771081+865942755+855791943+846865914
652+839254551+833533632+831062733+832808903+838195904+845672081+854066251
642+862951454+871955975+880367398+887519731+892780106+895119176+894148767
632+891891085+891758137+895049772+899645735+902499741+902411504+900261484
622+897766616+896428706+896762097+898046801+899146932+899601353+899763406
612+900292960+901764542+904336783+907568891+910786381+913634000+916141774
602+918434027+920567848+922538035+924267086+925562128+926158913+926000745
592+925553173+925500823+925946157+926382930+926498297+926332490+925630677
582+923816089+920776917+917013345+912979005+908898965+904958854+901010906
572+896577260+891774401+887751650+885531897+884640044+883572113+881427098
562+878426842+875098858+871689223+868189638+864257164+859488876+854365730
552+850125020+847071625+844057607+840202374+836039036+832523911+830000596
543+828362878+827231864+825982849+824534248+823977828+825490500+828703775
533+832035974+834569034+836776013+839391384+842126665+843769981+843758984
523+843085749+842912567+843071262+842661618+841854382+841825803+842890047
513+844256469+845284694+845912230+846164430+845922437+845265598+844823359
503+845518588+847572074+849941171+851431257+851781901+851372257+850911976
493+851641314+854788346+860193389+866202330+871194173+874566868+876578935
483+877997642+879728140+882146229+884620817+886012130+885947335+885361942
473+885485473+886383910+887086580+887247316+887374865+887599474+887489375
463+887193584+887566550+888759330+889814025+890266339+891034198+892565900
453+893820907+893874179+893226690+892723673+891775126+889094696+885269490
443+883084044+884600667+889059072+894160751+897682198+897924125+895308030
433+892901794+893073790+895223875+897703796+899784609+900750739+899335259
424+895733280+891994467+889168776+886818642+885825318+887548244+890773504
414+893420219+894263936+893541248+892686140+893091240+895262858+898854697
404+902947642+906311909+908012315+907906496+905868419+901340280+896069041
394+893293526+893323685+893300967+890589062+885374321+880444506+879599999
384+884157638+890077617+892997801+892511378+889684633+885298266+881523829
374+881160609
##END=
