##TITLE=LL- 181
##JCAMP-DX=4.24
##DATA TYPE=INFRARED SPECTRUM
##DATE=26/7/2019
##SAMPLING PROCEDURE=Diamant-ATR
##ORIGIN=Rieke
##XUNITS=1/CM
##YUNITS=TRANSMITTANCE
##RESOLUTION=4
##FIRSTX=3997.453
##LASTX=373.96442
##DELTAX=-1.4165319
##MAXY=1.0038307
##MINY=0.44857568
##XFACTOR=1
##YFACTOR=9.3489017e-010
##NPOINTS=2559
##FIRSTY=1.0026563
##XYDATA=(X++(Y..Y))
3997+1072485707+1071973493+1071613783+1071557423+1071667338+1071608555
3989+1071249737+1070900356+1071000580+1071618628+1072319304+1072539007
3980+1072094501+1071291689+1070656171+1070432261+1070522794+1070695700
3972+1070798602+1070805360+1070749892+1070662802+1070547531+1070423845
3963+1070352566+1070381384+1070338922+1070049344+1069461452+1068770913
3955+1068383660+1068592652+1069201137+1069616697+1069428235+1068835753
3946+1068336290+1068126725+1068099565+1068161025+1068280249+1068321435
3938+1068070173+1067485150+1066797799+1066364706+1066544498+1067498348
3929+1068806680+1069716539+1069890719+1069710673+1069477199+1069235437
3921+1068803683+1068219617+1067738579+1067533413+1067536729+1067546930
3912+1067352985+1066844405+1066162282+1065662500+1065587205+1065837637
3904+1066050709+1065997409+1065858996+1065849751+1065851982+1065623482
3895+1065146971+1064753279+1065022902+1066149148+1067260156+1067573261
3887+1067396275+1067320469+1067201883+1066454984+1065199697+1064169723
3878+1063617343+1063110994+1062443408+1061865015+1061797243+1062597760
3870+1064189614+1065645924+1066200854+1066139075+1065999449+1066005953
3861+1066078634+1065926385+1065192493+1063792671+1062243533+1061823638
3853+1063557603+1065616596+1066322819+1066367575+1066299994+1066040891
3844+1065522620+1065130968+1065282707+1065687620+1065624119+1065002756
3836+1064521527+1064600393+1065130968+1065849368+1066419345+1066557185
3827+1066173885+1065334859+1064241129+1063324449+1063318902+1064531983
3819+1065827373+1066262825+1066024952+1065562212+1065237377+1065257715
3810+1065656316+1066362092+1067210172+1067759746+1067493439+1066370062
3802+1064891438+1064027738+1064270584+1065062558+1065736329+1066036938
3793+1066228588+1066651225+1067110075+1066967517+1065959602+1064741421
3785+1064277980+1064696473+1065311078+1065815323+1066517911+1067406922
3776+1067829431+1067317664+1065950804+1064298382+1063346572+1063730445
3768+1064706164+1065223032+1065456633+1066017174+1066776059+1067265830
3759+1067412022+1067422287+1067298091+1066925183+1066451095+1066298464
3751+1066804111+1067449320+1067573580+1067693440+1068801006+1070829459
3742+1072013914+1071652546+1070353586+1068630268+1066792826+1065590711
3734+1065877038+1067155979+1068214963+1068591377+1068386211+1067818402
3725+1067179888+1066854351+1067121169+1067941450+1068971680+1069801461
3717+1070193559+1070106469+1069712841+1069539935+1070286770+1071661727
3708+1072411240+1072239099+1071406704+1070262543+1069156062+1068644485
3700+1069091286+1069999869+1070463884+1070161809+1069500151+1069106077
3691+1069373277+1070305642+1071453756+1072415065+1073170571+1073550811
3683+1073333786+1072660908+1071883087+1071118400+1070357922+1069945422
3674+1070134394+1070368123+1070398725+1070695445+1071564436+1072597917
3666+1073363369+1073741823+1073719126+1073358778+1072793647+1072154177
3657+1071526692+1070873578+1070065793+1069215737+1068799157+1069382458
3649+1070594073+1070799367+1070072678+1069452972+1068977290+1068406039
3640+1067908170+1067748525+1067666535+1067198504+1066463910+1066049944
3632+1066237769+1066904590+1067745720+1067906895+1066918999+1065488447
3623+1064199433+1063120430+1062232822+1061848821+1062088925+1062318637
3615+1062145604+1061802216+1061470749+1061127425+1060915373+1060843711
3606+1060414699+1059404170+1058263260+1057398732+1056730954+1055987052
3598+1055204003+1054640912+1054368293+1054236828+1054163254+1054210115
3589+1054303198+1053993919+1052856324+1051419142+1050539312+1050370168
3581+1050541161+1050538292+1050128916+1049609944+1049415680+1049487278
3572+1049369904+1048942103+1048531643+1048163262+1047127040+1045203337
3564+1043473515+1042661649+1042621738+1042887663+1043020211+1042934651
3555+1042910169+1043075105+1043089514+1042595343+1041726543+1040823761
3547+1040075842+1039615781+1039439496+1039222153+1038638086+1037668998
3538+1036521331+1035471209+1034761926+1034429822+1034235367+1033870493
3530+1033159042+1032087690+1030789942+1029531275+1028612427+1028168304
3521+1028068718+1028119595+1028247425+1028360400+1028210957+1027611525
3513+1026662775+1025622409+1024647392+1023737661+1022818239+1021799613
3504+1020660488+1019580912+1018879343+1018669268+1018757570+1018904208
3496+1018963182+1018833630+1018463082+1017870791+1017033741+1015886583
3488+1014601395+1013578497+1012940557+1012439883+1011950621+1011597669
3479+1011335696+1010901838+1010201481+1009420218+1008778325+1008289956
3471+1007758424+1007028356+1006150886+1005224259+1004232220+1003170622
3462+1002152570+1001272358+1000508819+999796412+999111547+998484190+997900442
3452+997209712+996306739+995383428+994777302+994495310+994110799+993303205
3442+992254996+991334363+990578411+989740979+988753657+987817977+987078091
3432+986425551+985610433+984513197+983355647+982496538+981973358+981475999
3422+980749502+979791189+978769057+977908991+977269202+976608373+975715538
3412+974814095+974338540+974323239+974267325+973676182+972555929+971223051
3403+969833430+968445977+967356837+966829386+966530243+965752742+964280940
3393+962655295+961500487+960826078+960114819+958905244+957130347+955015122
3383+952799992+950553111+948185986+945620773+942883610+940007396+936973195
3373+933804915+930593665+927390893+924220064+921187839+918401776+915764199
3363+913069115+910332335+907782742+905535160+903571036+902007489+901020295
3353+900514010+900167944+899774634+899361561+899084351+899085881+899298060
3343+899346132+898821932+897747647+896649581+896057673+895998125+896106892
3333+896181614+896356114+896725578+897085735+897153124+896906262+896604889
3323+896514865+896673809+896901034+896967340+896762047+896385696+896050787
3313+895818907+895490820+894829545+893859501+892905141+892334399+892222763
3303+892266627+892100798+891702643+891401015+891487531+891942556+892582218
3293+893387262+894570506+896342279+898658845+901194157+903527363+905383740
3284+906761374+907911847+909260983+911144839+913354741+915200662+916391684
3274+917445886+918808920+920243808+921574646+923192448+925262981+927187895
3264+928375920+929006210+929700319+930806800+932164161+933375903+934227552
3254+934816592+935334161+935899356+936615461+937656720+939263111+941524018
3244+944014510+945937958+946917119+947306348+947530768+947563921+947273450
3234+946877527+946773732+947115718+947673517+948074414+948188154+948230424
3224+948432211+948760362+949069960+949325621+949508472+949542518+949546981
3214+949945327+950963762+952093769+952453288+951733421+950434652+949065561
3204+947524393+945450672+942834773+940020147+937259394+934482257+931510281
3194+928435532+925658968+923549736+922219471+921661800+921906239+922922825
3184+924495234+926321773+928286216+930598829+933521138+936909439+940224420
3174+943065186+945499190+947891180+950555725+953443224+956115993+958217256
3165+959910992+961606258+963360179+964900008+966230974+967835515+970064608
3155+972624403+974979541+977000918+978885857+980742935+982590833+984479279
3145+986382771+988208800+989925424+991480300+992802276+994042198+995493152
3135+997166550+998744951+999954398+1000748859+1001255399+1001759643+1002572019
3125+1003703429+1004827826+1005693566+1006366699+1006990485+1007603306
3116+1008319028+1009323437+1010448662+1011123262+1011060909+1010666261
3108+1010479775+1010539196+1010576046+1010488255+1010299793+1009923187
3099+1009289965+1008511379+1007660622+1006595200+1005207173+1003694950
3091+1002381389+1001295182+1000063038+998317979+996187325+994168180+992542216
3081+991207298+990076015+989234694+988650054+988057508+987161866+985801446
3071+984045293+982250058+980818741+979802729+978879545+977756742+976479842
3061+975275942+974217341+973219117+972364024+972003358+972410821+973520171
3051+975127136+977174397+979716404+982730139+986092937+989668106+993245952
3041+996465428+999009538+1000862918+1002189485+1003041644+1003395425+1003371389
3031+1003225771+1003124335+1002943715+1002298379+1000878092+998755535+996209066
3021+993347579+990189883+986944714+983841338+980782273+977447846+973672803
3012+969532630+965178749+960750591+956374395+952173782+948323826+945046907
3002+942477677+940666822+939794133+940123112+941623860+943936281+946894167
2992+950768988+955720006+961222002+966301041+970261869+973033013+974928664
2982+976255230+977043889+977038342+976054017+974374499+972629631+971351582
2972+970847019+971398379+973291671+976572734+980850683+985428666+989757491
2962+993694219+997231134+1000238749+1002679830+1004729515+1006454363+1007702255
2952+1008435319+1008852792+1009165004+1009455985+1009675560+1009623280
2944+1009124327+1008308636+1007532282+1006971486+1006450793+1005679986
2935+1004424252+1002436666+999520795+995760097+991401370+986495172+980955433
2925+974916869+968721083+962733778+957517600+953985913+953029002+955000139
2915+959591065+966068014+973572324+981283074+988484544+994746572+1000119080
2905+1004958270+1009483209+1013608845+1017160934+1020052067+1022233471
2897+1023631125+1024179616+1023814805+1022352248+1019473292+1015021609
2888+1009429080+1003833363+999672024+998001495+999048365+1002322862+1007078915
2878+1012639374+1018403151+1023779867+1028322912+1031974078+1035026066
2870+1037742254+1040116327+1042031997+1043427037+1044211998+1044284488
2861+1043757547+1042929933+1041938467+1040656849+1039064995+1037539446
2853+1036629588+1036643742+1037563546+1039233501+1041456601+1043976612
2844+1046547181+1048993043+1051161250+1052943415+1054418150+1055816888
2836+1057270838+1058716245+1060053586+1061273680+1062417076+1063491361
2827+1064417988+1065034251+1065199315+1064944865+1064511645+1064235965
2819+1064342756+1064779802+1065297817+1065462307+1065528868+1065527593
2810+1065423097+1065226793+1064959147+1064559717+1064011608+1063426011
2802+1062852337+1062226064+1061613690+1061239635+1061176134+1061237403
2793+1061211008+1061007309+1060608963+1060038604+1059361198+1058650322
2785+1057975148+1057416201+1057033220+1056794391+1056556199+1056159639
2776+1055613060+1055154784+1055029695+1055245190+1055631805+1056037865
2768+1056348993+1056451194+1056330632+1056108443+1055914816+1055784181
2759+1055650804+1055379459+1054880570+1054229879+1053523847+1052653262
2751+1051484619+1050236154+1049360022+1049001969+1048837097+1048504292
2742+1047985447+1047440654+1046871124+1046185622+1045511277+1045128041
2734+1045035595+1044852935+1044254778+1043313679+1042331585+1041507606
2725+1040890195+1040544766+1040586207+1040967403+1041325137+1041224339
2717+1040606163+1039843006+1039282976+1038915551+1038566233+1038212835
2708+1037936007+1037707570+1037434058+1037139698+1036930005+1036797712
2700+1036615179+1036325409+1036004717+1035709783+1035390686+1035000054
2691+1034562179+1034066988+1033443839+1032716641+1032039172+1031478823
2683+1030914202+1030221431+1029440614+1028684471+1027989852+1027270240
2674+1026368989+1025215201+1023962973+1022898316+1022205354+1021858842
2666+1021653612+1021312263+1020697084+1019947252+1019327164+1019011190
2657+1019050655+1019355089+1019662647+1019741130+1019617061+1019442243
2649+1019245620+1018944820+1018481507+1017884944+1017288190+1016818055
2640+1016411931+1015889261+1015194833+1014435566+1013770529+1013369251
2632+1013297015+1013388505+1013399216+1013251047+1013048304+1012989840
2623+1013248497+1013674067+1013762369+1013228032+1012398378+1011708030
2615+1011124601+1010410154+1009631760+1009097614+1008978837+1009154739
2606+1009311132+1009193184+1008825504+1008369332+1007830085+1007160586
2598+1006524303+1006114099+1005835358+1005488527+1005128881+1004993463
2589+1005158527+1005362737+1005110583+1004073786+1002532108+1001274589
2581+1000894669+1001243221+1001657889+1001657506+1001319282+1001014019
2572+1000944334+1001043730+1001188901+1001341405+1001552628+1001879121
2564+1002178901+1002073577+1001380169+1000489628+1000008463+1000103523
2555+1000457623+1000725333+1000763140+1000568877+1000268332+1000112449
2547+1000283697+1000655521+1000845513+1000601201+1000139545+999970146
2538+1000325521+1000901108+1001255144+1001313990+1001316796+1001364995
2530+1001277139+1000906272+1000333490+999662461+998909186+998209275+997821959
2520+997796074+997901080+997994929+998161395+998388748+998398949+998000858
2510+997426610+997070597+997004674+997010348+996981275+997016277+997210222
2500+997593841+998148835+998724358+999060415+998965865+998417502+997582429
2490+996833872+996549840+996776364+997178472+997383256+997339137+997291575
2480+997364384+997290236+996779233+996017862+995510111+995526433+995941738
2470+996422775+996578339+996187325+995450882+994790882+994376661+994149053
2461+994197571+994687725+995470327+996127012+996356278+996117449+995582856
2451+995084605+994884093+994922984+994964362+994949188+995030986+995290982
2441+995544603+995551234+995462103+995844319+996998617+998433760+999330102
2431+999446010+999319710+999599279+1000316531+1000911054+1000953515+1000695814
2421+1000763842+1001436146+1002413841+1003262749+1003864604+1004325813
2412+1004634200+1004707328+1004744625+1005168346+1006120410+1007256921
2404+1008124637+1008553968+1008614090+1008370925+1007843028+1007184176
2395+1006744133+1006801832+1007295238+1007942550+1008601020+1009334849
2387+1010143846+1010845160+1011298782+1011581730+1011879979+1012358913
2378+1013102114+1013945029+1014449337+1014405409+1014284975+1014697666
2370+1015454256+1015791779+1015599682+1015675297+1016455221+1017344423
2361+1017867539+1018603727+1020132527+1021828494+1022591714+1022137199
2353+1020899572+1019338130+1017803783+1016660260+1016336189+1017236931
2344+1019240583+1021320424+1022498440+1022981517+1023564372+1024290551
2336+1024461735+1023873843+1023266442+1023423600+1024344743+1025349088
2327+1025680937+1025094001+1024135114+1023785669+1024524981+1025837648
2319+1026970142+1027859216+1028920622+1030227679+1031334543+1031903819
2310+1032175801+1032626937+1033378681+1034146300+1034616627+1034693453
2302+1034474260+1034131509+1033890959+1034078783+1035001903+1036594140
2293+1038274168+1039388491+1039757318+1039657541+1039435543+1039393209
2285+1039844154+1040900587+1042233083+1043344155+1044073712+1044629088
2276+1045172670+1045655365+1046149090+1047076354+1048730561+1050578267
2268+1051509101+1051065552+1050152697+1050167871+1051449043+1052871881
2259+1053162862+1052335695+1051458798+1051290993+1051793197+1052806659
2251+1054315312+1055971304+1057230544+1058135685+1059180068+1060212466
2242+1060352473+1059335760+1058079452+1057528730+1057705461+1058103743
2234+1058245600+1057731728+1056423077+1054709003+1053356871+1053054477
2225+1053831788+1054877829+1055440410+1055809938+1056719542+1058206709
2217+1059776695+1061108298+1062053796+1062524314+1062544843+1062043213
2208+1060970075+1059928561+1059942269+1061285858+1063036464+1063909025
2200+1063351290+1061991889+1061087003+1061460038+1063076247+1065446368
2191+1068004122+1070219444+1071710819+1072267662+1071804795+1070420147
2183+1068365490+1066071430+1064427041+1064505843+1066311279+1068049835
2174+1067555792+1064587387+1061215280+1059739716+1060703512+1062866363
2166+1064606641+1065122425+1064687929+1064282252+1064783436+1065935375
2157+1066393651+1065594855+1064645978+1064550918+1064692329+1063819703
2149+1061818218+1059707329+1058323573+1057642662+1057081037+1056086447
2140+1054584042+1052965984+1051690423+1050946202+1050563986+1050204212
2132+1049729423+1049286065+1048947713+1048536488+1047868710+1046987223
2123+1046047463+1044947293+1043176286+1040379639+1037107947+1034531322
2115+1033350118+1033348078+1033811455+1033934950+1033130288+1031472128
2106+1029669434+1028338596+1027478722+1026740047+1025964458+1025258555
2098+1024596833+1023679452+1022316162+1020604638+1018627189+1016429974
2089+1014350834+1012939218+1012522255+1012988629+1013697657+1013639065
2081+1012304848+1010460457+1009438835+1009641642+1010195552+1010042474
2072+1009012436+1007798654+1007055198+1006676425+1006130803+1005451549
2064+1005367200+1006089298+1006631477+1006046709+1004879723+1004563750
2055+1005421520+1006150758+1005605009+1004315102+1003759662+1004678000
2047+1006485349+1007963080+1008137579+1006952423+1005594872+1005583204
2038+1007230653+1009645786+1012141123+1014937961+1018507073+1022462736
2030+1025266843+1025567898+1024003395+1022732296+1022985406+1024203141
2021+1025397733+1025948392+1025415202+1024003331+1022874535+1023038897
2013+1024273528+1025240639+1024521474+1022357284+1021160015+1022902842
2004+1026495735+1029259739+1030055411+1029855027+1030157739+1031604167
1996+1033698416+1035335409+1035498624+1033950570+1031750996+1030449932
1987+1030309351+1029893217+1027795524+1024346209+1021112453+1019326654
1979+1019270867+1020391120+1021405602+1021102316+1019456205+1017401484
1970+1015843803+1015557986+1017107570+1019644349+1020995652+1020323411
1962+1019129967+1018935129+1019403543+1019468383+1018906949+1018109492
1953+1017562786+1017780767+1018795887+1019855380+1020269538+1020308875
1945+1020825679+1022193942+1023854716+1025108983+1026114731+1027298612
1936+1028424730+1029029453+1029361876+1029981773+1030664534+1030724974
1928+1030272436+1030169024+1030713945+1031190455+1031014171+1030790069
1919+1031564319+1033562170+1035924385+1037537470+1037920706+1037304825
1911+1036450562+1036165828+1036492959+1036701377+1036264076+1035429704
1902+1034900212+1035185392+1036224675+1037584267+1038899230+1039981165
1894+1040663734+1040887963+1040899439+1041081845+1041612930+1042459607
1885+1043564239+1044690868+1045415452+1045582875+1045464735+1045389440
1877+1045525686+1045917529+1046447403+1046914031+1047303834+1047825165
1868+1048551216+1049229322+1049747529+1050269307+1050848018+1051396827
1860+1051979173+1052740672+1053503573+1053932076+1054096884+1054389268
1851+1054916911+1055395972+1055617523+1055772131+1056279691+1057211991
1843+1057931475+1057970558+1057657580+1057474601+1057542055+1057537656
1834+1057058786+1056121831+1055118698+1054377601+1053871763+1053504657
1826+1053378676+1053502553+1053655758+1053727101+1053868320+1054263096
1817+1054831670+1055147133+1054898549+1054385762+1054309382+1055033648
1809+1056206053+1057298508+1058158701+1058941749+1059848803+1060869660
1800+1061702502+1062118572+1062301933+1062604582+1063255592+1064278681
1792+1065320769+1065782807+1065611623+1065314330+1065345889+1065720646
1783+1065999513+1065880162+1065571648+1065431959+1065547421+1065801488
1775+1066126068+1066515234+1066798947+1066743161+1066587214+1066701146
1766+1066969876+1067133601+1067367330+1068014132+1068829760+1069246340
1758+1069243726+1069066357+1068742414+1068250985+1067721238+1067305805
1749+1066943991+1066450585+1065886092+1065392813+1064934027+1064445466
1741+1063956460+1063401721+1062680707+1062031035+1061945411+1062474393
1732+1062669613+1062152235+1061557457+1061261184+1061206035+1061225672
1724+1061168675+1060912631+1060557639+1060495987+1061070873+1061785958
1715+1061649712+1060980531+1060480622+1060276221+1060291331+1060583397
1707+1061341963+1062451632+1063351353+1064062485+1065572477+1068240274
1698+1070342620+1070987956+1071124649+1071186747+1070856747+1070346828
1690+1069859734+1069303592+1068532785+1067560765+1066562796+1065771268
1681+1065040116+1064178457+1063371373+1062675479+1062149557+1061891729
1673+1061954975+1062285612+1062737449+1062765502+1061867183+1060204241
1664+1057809510+1054169566+1049049085+1043131848+1037054137+1031061796
1656+1025004870+1017022775+1004350805+992146101+984431589+976902288+965424017
1646+950422029+936925378+925746823+915057722+904537254+894824827+886280406
1636+879570430+876523605+876903717+878793566+881570959+885220594+888852952
1626+890608913+888546733+880719564+867338949+851546261+834138194+812331998
1616+786470808+764258106+749088631+738367843+731031084+728298766+731438419
1606+740462029+754767995+773672984+795342169+816064963+831801800+839600725
1596+837092636+822702257+797757174+767435183+739323096+721410592+719012738
1587+731752990+754312524+780301927+805288069+827401249+847258622+868200608
1577+893358827+916728123+929548835+934482831+937245049+940386679+943281892
1567+944890387+945584432+945793678+945501932+945123860+946723620+952150384
1557+957101147+960120684+963151124+967149822+972602917+979285733+985772819
1547+991113258+995932047+1001009493+1006281521+1012419353+1020031665+1025702040
1537+1028415613+1030422645+1033585313+1037790007+1040921244+1042361487
1528+1043184829+1044129179+1045170949+1045976248+1045864484+1043730132
1520+1039096554+1031370055+1018894071+1001878038+982946909+963721228+945213883
1510+929222469+916332837+904494347+893659499+885252089+876708688+864970804
1500+847174783+819691518+780398135+736967320+702125236+679118711+666193376
1490+664902449+677826700+699873127+724037713+749732947+779285278+812444974
1480+843858527+867822473+883830973+895102101+905876954+919973483+935781599
1470+947469053+954463635+959494603+964054607+967135668+966505506+962041518
1460+955204604+947173672+940218937+938212352+939320874+938792147+933940396
1451+921589564+897786984+863473373+830074401+810207210+806183519+812424891
1441+821452389+828050410+830209117+828046139+824190253+821730556+821712194
1431+824050246+827659332+830803193+832852814+834328059+835667631+837053363
1421+839342195+844238192+851946456+859928488+867068561+874338631+882501538
1411+891252528+899162388+904213757+904116275+896772311+883295871+868837783
1401+857896273+852504256+853147934+858972342+868430001+878808676+886498387
1391+889639379+887592628+879006446+863842901+846509300+832246050+823396558
1381+820683877+823608928+829895566+836864773+843065022+848025986+851716681
1371+854800611+858053112+860999202+861745336+858455411+850345804+838561761
1361+827625159+822744336+826100440+837716614+856124500+877859480+898803889
1351+916437397+929968986+939141019+943794297+944109442+940686331+934056368
1341+923925448+909491269+891393173+872099784+852945637+833004298+810755573
1332+785561970+758285847+731125825+706811923+687775023+675706119+671277962
1322+674083917+683076988+696997997+714539633+734809824+757416729+781288739
1312+803980247+823158302+838180119+849751536+858936575+866536072+872620158
1302+876470624+877194125+874357503+868049698+858681489+846862507+833241086
1292+818302854+802250617+785059510+766777861+747748421+728328030+708597722
1282+688772036+669854232+653612385+641826111+635477183+634360437+637133176
1272+641602455+645313679+646528099+644898055+641129324+636109577+630243663
1262+623083061+613298909+599349783+580660161+558400790+535382023+515192227
1252+500858049+493734744+493290781+497717057+504898762+513266771+522213236
1242+532086328+543905150+558830504+577484614+599475956+623495115+647885523
1232+671276878+693013963+713152754+731889938+748847124+762917641+772821654
1222+777701648+777150097+770878186+758571665+740034546+715428133+685461199
1213+651436528+615108489+578479714+543773877+513666265+491350469+479816444
1203+480418522+491800936+510244748+531271816+551196897+567735527+580052122
1193+588881149+596467194+605610473+617966278+632900494+648008380+660861672
1183+670413179+677113273+682148449+686656237+691395012+696809280+703156550
1173+710516070+718795713+727823531+737374337+747030212+756085189+763781786
1163+769794593+774461771+778512303+782618748+787178051+792282402+797635400
1153+802415234+805333973+805073085+800808206+792351641+779983531+764434135
1143+746978761+729290487+713247112+700898257+693950599+692522469+694564694
1133+697206861+698863746+699864138+701257457+703432293+705931966+708249616
1123+710482789+713267323+717430256+723849123+733248382+745549612+759269918
1113+771926586+781395594+786937245+788999235+788378891+785698853+781306909
1103+775316863+767798783+759119645+750015385+740894293+730504397+715436230
1094+692207643+661295657+629432945+607030441+601991249+614868640+639283212
1084+666701063+691090196+710219669+724234654+733941152+739968495+742606390
1074+742143396+739696959+737771216+739460489+746608786+758694203+773419236
1064+788193680+801192271+811431002+818307699+821530745+821643083+820194870
1054+818960048+819023996+820629557+823444885+826666591+829172384+829975325
1044+828512576+824357230+816864014+805434835+790267974+772925894+756111138
1034+742231379+731414893+721202749+709208056+696273923+685993049+680038643
1024+674013021+659245399+630200819+590580496+551973761+526648375+521090625
1014+534445801+561112259+594381169+628760576+660658992+688173497+710415463
1004+726228616+732597499+725126916+703079214+675243954+657514366+660977771
994+683023879+711666606+736662121+754821486+767485614+776847576+784778220
984+792675647+801025167+809307935+816701500+822787945+827580913+831267080
975+834138640+836483769+838358699+839598493+839987149+839323323+837522860
965+834738710+831269439+827443009+823588526+819802772+815738278+810954427
955+805412457+799377782+793072910+786821784+781498814+778491837+778886676
945+782511830+787862342+793148651+797480155+801038046+804291885+807354521
935+810120821+812652052+815123672+817607661+820160952+822927825+825945513
925+829071969+832278247+835800307+839783576+843822058+847015075+848701351
915+849220196+849800565+851634499+855177408+860133335+865604856+870172574
905+872352639+871448965+868035608+863528968+859273397+856000558+853901081
895+852804673+852134281+850851578+847506951+840194610+826433819+803427485
885+769369852+725862276+679681037+641069457+618365325+613208694+620608189
875+633115733+644988333+653794854+659861917+664891036+670583981+677768555
866+686350018+695778668+705324565+714071857+721145241+726061512+728568198
856+728200008+724466407+717720345+709806022+703606219+701129626+701125100
846+698982459+690488469+676159805+661218385+651375068+649255061+654244205
836+664228423+677088089+691445571+706725598+722719753+739187359+755767813
826+772120404+788132156+803752639+818347037+830579921+839420615+844989618
816+848071317+849168107+848363573+845822141+841954333+836928147+830351484
806+821900528+812032027+801372126+789752636+777171965+765832873+759804701
796+761986424+772162483+788104359+807419871+828033387+848051935+865976679
786+880514079+889762683+891325464+883925268+868684004+848634854+827347120
776+807918505+792256134+780500271+771276596+762912413+754552628+746226826
766+737988305+729080731+718095802+704059714+687309351+669413042+652508518
756+638580495+629013687+625027485+628698924+642583912+667173748+699043474
747+732524754+763093607+788778831+809265027+824784330+835704163+842388318
737+845029146+843336367+836075477+821028923+796085179+761014276+718549297
727+674251659+635572689+610156961+603481157+616509203+644606245+679488239
717+713512209+742317513+764371846+779701730+789218299+794296638+796235132
707+795579914+791820172+784048790+772095539+757007417+740659608+724701092
697+709081756+691590169+669745401+643649526+617074271+596348034+588298868
687+597496084+623446278+660331224+699861588+734965835+762229652+781762126
677+795316922+804762722+811413341+815949692+818913698+821122389+823348677
667+825512229+827249064+828934830+830763665+832178214+832424056+831269248
657+828901486+825503622+821081841+815502764+808738596+800934379+791927027
647+780767408+766091977+747290846+725476617+703501341+685060558+673053560
637+668021317+668302544+671751731+677125642+684128321+692723300+702710451
628+713493209+723717276+731646964+736348315+737581862+734347850+724991053
618+709514403+691076935+674253317+662054160+655358911+654357308+659027163
608+668215135+679561367+690908875+701027999+708700497+712136742+710331242
598+704916400+699856487+698988516+703841924+713145103+723736531+732344325
588+737263402+738604122+737255878+733844179+728673905+722479203+716841599
578+713630476+713841698+716603280+719735282+721560419+720996371+716128809
568+704569888+685905832+663234916+642374793+629436069+627871438+637100915
558+653827880+674146016+694676394+713057184+727810716+737492221+740837486
548+738849071+735801609+736336839+741556524+748811867+754468407+756260008
538+755010267+755228439+761901629+775282371+790262874+801110217+804886089
528+800501860+787508752+768054316+748110426+733708316+727849798+731156874
518+742484681+758920409+776737724+792996785+806246127+816297671+823837748
509+829697031+834022031+836517942+837302329+836599422+834028152+829178696
499+822350835+814422295+806961085+802062474+800979901+802909278+805491705
489+806410872+804149710+798056443+788734967+777688195+765778745+752979455
479+740181886+729938501+724302554+723230629+725937507+731405011+736822785
469+738440843+734513806+727041247+720938162+720937397+729073718+744713774
459+766065072+789163661+807932659+820874698+831541613+841844163+850197317
449+855127933+857520942+859595364+863264827+868758344+874357120+878066686
439+879622327+880363042+881965288+884975198+887825081+887952529+884079876
429+877781315+872659368+871838066+876830143+887240759+900515986+912743897
419+919549890+921325361+925161290+932879819+940866377+945642386+947551106
409+950023045+953494419+954400708+951273232+946366779+940755761+933474087
399+926875045+929420750+944330611+962810604+979988832+995247565+1006989912
390+1015254445+1022571567+1030177121+1036593566+1041887016+1047895807
381+1051998746+1051297496+1049034931+1052242356+1062816060+1071678686
##END=
