##TITLE=NR-StigTos
##JCAMP-DX=4.24
##DATA TYPE=INFRARED SPECTRUM
##DATE=16/6/2020
##SAMPLING PROCEDURE=Diamant-ATR
##ORIGIN=Angelika Moesle
##XUNITS=1/CM
##YUNITS=TRANSMITTANCE
##RESOLUTION=4
##FIRSTX=3997.453
##LASTX=373.96442
##DELTAX=-1.4165319
##MAXY=0.97466749
##MINY=0.53042346
##XFACTOR=1
##YFACTOR=9.0772984e-010
##NPOINTS=2559
##FIRSTY=0.95965016
##XYDATA=(X++(Y..Y))
3997+1057197990+1057098707+1057018532+1057030286+1057026083+1056836973
3989+1056392497+1055784191+1055289352+1055201822+1055467431+1055733630
3980+1055918735+1056306281+1056888650+1057184004+1056998964+1056888978
3972+1057449481+1058483286+1059249906+1059343608+1058980292+1058507056
3963+1058055948+1057717716+1057583960+1057493804+1057171790+1056702297
3955+1056484688+1056675769+1057033241+1057294515+1057343632+1057059900
3946+1056455928+1055907704+1055829302+1056134374+1056350866+1056293411
3938+1056125707+1055922544+1055651879+1055446747+1055594752+1056216519
3929+1057096737+1057930794+1058513754+1058634574+1058112222+1057124053
3921+1056183490+1055670922+1055617078+1055882555+1056283299+1056576420
3912+1056641821+1056659944+1056891473+1057262275+1057288737+1056511873
3904+1055235573+1054636263+1055332492+1056531769+1057196414+1057099889
3895+1056574056+1055992935+1055675715+1055773028+1056061159+1056201876
3887+1056102462+1055964897+1056071403+1056321646+1056367414+1056192552
3878+1056103972+1056176858+1056309367+1056494801+1056549433+1055996218
3870+1054878496+1054225604+1054658195+1055591929+1056192158+1056188021
3861+1055975075+1055996612+1056328738+1056766450+1056985700+1056810642
3853+1056705515+1057217755+1057860994+1058141771+1057964085+1057386116
3844+1056611944+1056027277+1055994380+1056549564+1057326034+1057725005
3836+1057477651+1056976967+1056784836+1057134165+1057732819+1058018717
3827+1057723363+1057130029+1056731517+1056704661+1056937700+1057275801
3819+1057542264+1057623292+1057492950+1057218215+1056977295+1056927194
3810+1057137974+1057635768+1058406394+1059191006+1059385895+1058522093
3802+1056791271+1055370315+1055211015+1055833373+1056439906+1056659878
3793+1056583052+1056576420+1056915900+1057545612+1058224769+1058827231
3785+1059262448+1059371712+1059231783+1059185162+1059323187+1059265206
3776+1058792167+1058174340+1057734920+1057665185+1058106050+1058899855
3768+1059354246+1058920079+1057888572+1057052743+1056796524+1056882412
3759+1057027397+1057257284+1057634783+1058042947+1058416769+1058886525
3751+1059565485+1060149101+1060193687+1059701342+1059071630+1058860260
3742+1059036960+1059019493+1058612183+1057984704+1057272978+1056455928
3734+1055667901+1055316077+1055469466+1055770861+1055908886+1055875266
3725+1055920443+1056273778+1056907561+1057634521+1058253201+1058640353
3717+1058808386+1058791247+1058492479+1057715878+1056525597+1055596853
3708+1055526200+1056129187+1056866718+1057351643+1057497547+1057377974
3700+1057030220+1056537810+1056132010+1056034894+1056277126+1056781093
3691+1057509891+1058303762+1058644161+1058316304+1057880627+1057812403
3683+1058070197+1058342110+1058432068+1058455182+1058652895+1059055805
3674+1059377359+1059436194+1059317474+1059051734+1058597803+1058058050
3666+1057591380+1057302592+1057282236+1057520463+1057837158+1058048266
3657+1058140786+1058237114+1058439620+1058742722+1058929535+1058400484
3649+1056778664+1055350550+1055358167+1056189466+1056879260+1056971254
3640+1056546609+1056097077+1056118155+1056692645+1057497415+1058107757
3632+1058179593+1057513240+1056513777+1056371747+1057150516+1057639248
3623+1057319336+1056563025+1055964043+1055760093+1055718725+1055552202
3615+1055261773+1055164657+1055669280+1056736442+1057729470+1058034608
3606+1057810564+1057734657+1057973869+1058025349+1057513963+1056916688
3598+1057069487+1058055095+1059081283+1059320363+1058728079+1057851932
3589+1057146641+1056821148+1056938554+1057378171+1057891790+1058270536
3581+1058351499+1058013661+1057332797+1056633941+1056211529+1056083288
3572+1056092678+1056137723+1056227091+1056386193+1056466040+1056180929
3564+1055609723+1055205237+1055306030+1055878155+1056560267+1056967577
3555+1057004480+1056832048+1056546215+1056076722+1055536246+1055339190
3547+1055758254+1056548973+1057133180+1057132589+1056543523+1055598298
3538+1054666403+1054149894+1054249834+1054735875+1055101292+1055019081
3530+1054595815+1054239197+1054347804+1055031557+1056018478+1056810313
3521+1057004152+1056478844+1055408202+1054306173+1053805818+1054051596
3513+1054539935+1054818020+1055005357+1055352454+1055647283+1055531781
3504+1055124799+1054938775+1055216137+1055589893+1055588383+1055187573
3496+1054741784+1054586687+1054832269+1055404328+1056040081+1056387901
3488+1056361307+1056252568+1056317641+1056455009+1056353559+1055788722
3479+1054846714+1053988625+1053755520+1054236898+1054880597+1055039896
3471+1054657998+1054205774+1054014037+1053963738+1053911602+1054013774
3462+1054353648+1054650184+1054664170+1054515968+1054325019+1053938064
3454+1053257660+1052521507+1052074405+1052076769+1052506799+1053175055
3445+1053706732+1053804964+1053598125+1053533643+1053840948+1054252264
3437+1054347935+1054034786+1053598519+1053398048+1053591099+1054070442
3428+1054551360+1054761943+1054653007+1054429226+1054305517+1054277675
3420+1054165916+1053838059+1053360357+1052945955+1052701556+1052473245
3411+1052126804+1051890547+1052134553+1052894935+1053830442+1054526934
3403+1054742835+1054552936+1054274129+1054109117+1053961769+1053703186
3394+1053437249+1053347487+1053441189+1053591558+1053756176+1054000182
3386+1054303218+1054504739+1054506972+1054375776+1054204920+1054075826
3377+1054108198+1054315300+1054469544+1054348066+1054042075+1053842458
3369+1053868133+1053947520+1053881003+1053685129+1053484658+1053319646
3360+1053239405+1053396866+1053793079+1054108658+1054040302+1053665101
3352+1053295285+1053144259+1053259498+1053594053+1053992565+1054189292
3343+1053964920+1053376576+1052783767+1052542913+1052680084+1052967296
3335+1053266327+1053603115+1053895055+1053926245+1053735755+1053737003
3326+1054206233+1054859782+1055221981+1055251332+1055286988+1055420087
3318+1055283639+1054627070+1053832083+1053548877+1053953889+1054677172
3309+1055333215+1055779069+1055976388+1055913285+1055611693+1055069248
3301+1054362381+1053822299+1053778568+1054108329+1054403552+1054567054
3292+1054866217+1055432170+1056062079+1056502089+1056638735+1056432092
3284+1055912563+1055301959+1054982835+1055164328+1055579584+1055729493
3275+1055505647+1055323431+1055519502+1055927534+1056179025+1056138380
3267+1055924186+1055710385+1055581554+1055525346+1055525477+1055592717
3258+1055666719+1055640914+1055556864+1055607622+1055857800+1056128530
3250+1056244098+1056241668+1056238385+1056250598+1056244886+1056233132
3241+1056190845+1056024060+1055715573+1055364471+1055083168+1054987956
3233+1055197685+1055648530+1056046648+1056204043+1056264585+1056445290
3224+1056752924+1057074083+1057338707+1057489339+1057442586+1057168048
3216+1056733422+1056298927+1056099244+1056283036+1056702363+1057031927
3207+1057123791+1057074346+1057050116+1057237651+1057720408+1058199751
3199+1058168102+1057533333+1056698357+1055964175+1055318178+1054822879
3190+1054729571+1055098468+1055600071+1055838626+1055774013+1055718068
3182+1055910856+1056276535+1056643397+1056947419+1057092535+1056917410
3173+1056479829+1056124131+1056114281+1056384880+1056683386+1056756075
3165+1056476481+1056032399+1055884393+1056283430+1056921285+1057233711
3156+1056957925+1056335107+1055852218+1055785307+1055925630+1055825034
3148+1055353570+1054883749+1054856630+1055300646+1055896541+1056396962
3139+1056752595+1056883134+1056676688+1056284218+1056065625+1056131682
3131+1056217570+1056065099+1055734156+1055542418+1055755365+1056291047
3122+1056821476+1057193985+1057507331+1057754553+1057744638+1057420327
3114+1056961405+1056582067+1056427233+1056528289+1056710702+1056728431
3105+1056580491+1056498937+1056628229+1056925750+1057270154+1057424463
3097+1057121624+1056517586+1056270297+1056755156+1057488091+1057700972
3088+1057235681+1056547857+1056033515+1055689833+1055340766+1054916974
3080+1054485106+1054192050+1054182463+1054384838+1054448925+1054131706
3071+1053615919+1053228177+1053088051+1053251225+1053782836+1054458184
3063+1054839885+1054849932+1054823273+1054889724+1054730031+1054086069
3054+1053194951+1052521835+1052260429+1052271395+1052407844+1052707203
3046+1053195345+1053604494+1053451301+1052520588+1051202789+1050153750
3037+1049648995+1049481291+1049417203+1049454369+1049638292+1049892935
3029+1050107786+1050258417+1050383966+1050504984+1050606696+1050699216
3020+1050828113+1050975199+1051000348+1050785169+1050436562+1050223747
3012+1050245613+1050276344+1050016579+1049362900+1048361598+1047105982
3003+1045760079+1044469399+1043162040+1041620066+1039809398+1037946461
2995+1036124629+1033987941+1030929996+1026619258+1021211416+1015031109
2986+1008181824+1000547795+992064343+982861681+973178625+963298184+953659517
2976+944974216+938034053+933226702+930138355+927601646+924188789+918837089
2966+911251848+901984507+892166447+882916770+874810489+867923119+862320913
2956+858232708+855636180+853911990+852212949+850170422+848021390+846030015
2946+844115467+842238347+840895858+840875962+842444267+844937639+847372373
2936+849429411+851550733+854131962+857148080+860683267+865269397+871384500
2927+878859952+886955201+894895484+902216562+908613689+913676207+916984396
2917+918442518+918397932+917461309+916178443+914741990+913008016+910778809
2907+907986012+904768702+901690860+899755037+899787475+901685804+904355482
2897+906380804+906817860+905587262+903413081+901537339+901355583+903921118
2887+909475127+917324729+926122117+934289924+940409033+943526601+943269134
2877+939658828+932856952+923268976+911965413+900707551+891285638+884865725
2867+881976338+882825629+887356864+894928053+903871542+911544576+915351741
2857+914125148+908617366+900990100+894217181+891498190+895041848+904697982
2847+917934874+931450244+942915143+951478835+957234824+960655691+962414618
2837+963314666+964112805+965312541+967081842+969382426+972226505+975803192
2827+980338827+985826187+991885936+997930188+1003512564+1008489522+1012838082
2817+1016470911+1019356621+1021710655+1023898691+1026119494+1028225976
2809+1029901444+1031038406+1031874630+1032701267+1033534798+1034200691
2800+1034662436+1035141976+1035912930+1036994735+1038065377+1038748408
2792+1039025048+1039252703+1039759493+1040539246+1041345987+1041947989
2783+1042271776+1042438561+1042707387+1043268546+1044018291+1044606636
2775+1044788129+1044704277+1044746827+1045140414+1045713786+1046129830
2766+1046300817+1046450793+1046752910+1047089369+1047260817+1047249457
2758+1047193774+1047256286+1047520515+1047848964+1047948707+1047757823
2749+1047563131+1047576132+1047670491+1047661429+1047536406+1047331142
2741+1047058442+1046805572+1046705698+1046793818+1046965069+1047069276
2732+1047050891+1046983192+1046939263+1046925080+1046988904+1047214458
2724+1047553019+1047856778+1048100783+1048396203+1048805614+1049253636
2715+1049574073+1049654183+1049609072+1049697061+1049996158+1050335506
2707+1050565328+1050693635+1050749251+1050713662+1050583320+1050380420
2698+1050139173+1049939162+1049912503+1050143572+1050546548+1050877361
2690+1050926083+1050675577+1050255463+1049814992+1049493570+1049426725
2681+1049683337+1050186976+1050738614+1051171927+1051489672+1051760140
2673+1051922525+1051834733+1051491511+1051026482+1050519298+1049955840
2664+1049384569+1048978637+1048873379+1049019940+1049283184+1049590423
2656+1049866866+1049964639+1049846314+1049678281+1049574402+1049444979
2647+1049214041+1048970758+1048857029+1048968722+1049311288+1049740596
2639+1050094915+1050400841+1050784578+1051226493+1051593880+1051845831
2630+1052062323+1052284462+1052412703+1052326749+1052074799+1051838345
2622+1051738274+1051789688+1051957130+1052123784+1052172440+1052173754
2614+1052265485+1052354853+1052251302+1052024238+1051904337+1051924889
2605+1051972824+1052073814+1052331083+1052678640+1052948976+1053115958
2597+1053241704+1053267509+1053098032+1052844571+1052782191+1053081222
2588+1053660111+1054245632+1054586031+1054672772+1054689516+1054729111
2580+1054751700+1054802917+1054948033+1054973773+1054550441+1053785265
2571+1053258842+1053378415+1053959076+1054521615+1054772777+1054741522
2563+1054621817+1054526737+1054381555+1054128816+1053934912+1054011607
2554+1054375711+1054901018+1055412799+1055687272+1055644000+1055504596
2546+1055537756+1055743808+1055921493+1055906391+1055765083+1055821882
2537+1056269050+1056692251+1056397881+1055353964+1054429489+1054501194
2529+1055527578+1056617132+1056907824+1056330379+1055563890+1055321198
2520+1055705132+1056246856+1056533608+1056624749+1056749312+1056864289
2512+1056832048+1056821082+1057084721+1057428140+1057323867+1056630527
2503+1055866599+1055640848+1056019332+1056554226+1056797969+1056706828
2495+1056576223+1056603736+1056676360+1056731583+1057017022+1057652315
2486+1058250903+1058375992+1058090487+1057749760+1057545809+1057475615
2478+1057532742+1057763681+1058180840+1058647051+1058908982+1058824604
2469+1058528462+1058331012+1058439029+1058736090+1058863805+1058625119
2461+1058245387+1058084709+1058162980+1058160288+1057916217+1057715878
2452+1057902624+1058327598+1058456627+1057987921+1057196874+1056691069
2444+1056894363+1057700118+1058609163+1059228434+1059528976+1059624976
2435+1059549857+1059311499+1059009250+1058797617+1058766624+1058873589
2427+1058976156+1058909573+1058594257+1058137896+1057762696+1057595320
2418+1057637016+1057890411+1058307899+1058710941+1058938793+1058976878
2410+1058890596+1058818432+1058945885+1059246361+1059411635+1059257129
2401+1059012467+1059017983+1059293441+1059572708+1059651241+1059542700
2393+1059392265+1059399619+1059721304+1060254885+1060654907+1060749659
2384+1060775333+1061038512+1061499535+1061792591+1061597177+1061003776
2376+1060507295+1060493243+1060769555+1060833511+1060573221+1060411164
2367+1060622338+1060778813+1060310568+1059540467+1059499099+1060675262
2359+1062565646+1064292857+1065132495+1064722296+1063307971+1061691141
2350+1060676247+1060569544+1061066288+1061449697+1061288624+1061071738
2342+1061422184+1062090046+1062441346+1062264186+1061786156+1061369193
2333+1061264263+1061392044+1061388695+1060970879+1060175498+1059268161
2325+1058562082+1058290170+1058487423+1058950875+1059413343+1059775345
2316+1060040363+1060047454+1059555767+1058684479+1057922323+1057522827
2308+1057266280+1057013213+1057043025+1057519478+1058006832+1057951544
2299+1057404370+1056868229+1056628097+1056575961+1056518045+1056371616
2291+1056180470+1056096946+1056262024+1056637553+1057035670+1057336146
2282+1057621125+1058039795+1058587362+1059121928+1059563187+1059897282
2274+1060063673+1060041545+1059942327+1059859394+1059772653+1059630295
2265+1059416429+1059255028+1059495553+1060407290+1061783332+1063128448
2257+1064121935+1064609092+1064334094+1063068891+1061102074+1059403624
2248+1058964599+1059903783+1061524750+1063185049+1064605612+1065434284
2240+1065255745+1064180901+1062973613+1062434976+1062711551+1063197328
2231+1063228913+1062861132+1062680820+1062892716+1063033695+1062736503
2223+1062391704+1062642276+1063384732+1063796836+1063428529+1062805909
2214+1062832437+1063798083+1065042339+1065739816+1066051126+1066729626
2206+1067471295+1067000816+1065075631+1062882538+1061430720+1060953872
2197+1061393226+1062187228+1062486719+1062432941+1063014456+1064202701
2189+1064682898+1063758160+1062365439+1061957012+1062981887+1064448348
2180+1064836287+1063672469+1061949330+1060679202+1059715197+1058700632
2172+1058332457+1059351685+1060893921+1061381144+1060806852+1060471574
2163+1060590950+1060263093+1059967411+1061476947+1064456031+1066373731
2155+1066490415+1066664029+1068407786+1071175106+1073361238+1073741823
2146+1072041731+1069173750+1066900745+1066471504+1067512597+1068575753
2138+1068644700+1067795935+1066559952+1065275247+1064196069+1063570100
2129+1063322352+1063128842+1062932508+1062943736+1063100081+1063001192
2121+1062436946+1061642747+1061000230+1060711180+1060813681+1061312657
2112+1062052421+1062569652+1062466101+1061951431+1061675250+1061977236
2104+1062494205+1062526183+1061828575+1061043831+1061093276+1062105805
2095+1063297662+1063838991+1063468781+1062456514+1061341286+1060593249
2087+1060395208+1060710917+1061383048+1062145991+1062787457+1063224316
2078+1063370352+1063245460+1063178023+1063459720+1063908069+1064049508
2070+1063573843+1062637679+1061990304+1062465181+1063963358+1065320161
2061+1065529562+1064718290+1063815615+1063500693+1063569049+1063464513
2053+1063248874+1063396223+1063734981+1063642986+1063443501+1064200928
2044+1065779608+1066698830+1066240500+1065281748+1064770690+1064742914
2036+1065047921+1065818678+1066924844+1067830014+1068153735+1067942889
2027+1067608794+1067636110+1067929757+1067734999+1066816762+1066191186
2019+1066908559+1068465045+1069282555+1068801373+1068090435+1068175601
2010+1068767294+1069048005+1068830725+1068177308+1066834754+1064971948
2002+1063542258+1063117613+1063158981+1062995216+1062780760+1062924103
1993+1063233181+1063173755+1062727113+1062450670+1062685022+1063035468
1985+1062743726+1061428947+1059352276+1057292808+1056539846+1058359313
1976+1062379359+1066226185+1067951163+1067903360+1067461511+1066973763
1968+1065878103+1064355697+1063660912+1064563390+1066428625+1068058260
1959+1068880563+1069048202+1068821926+1068404700+1068053401+1067995158
1951+1068266938+1068522303+1068189127+1067324471+1066898053+1067375820
1942+1067615229+1066553452+1065076813+1064654268+1065525425+1067010732
1934+1068488027+1069401077+1069195879+1068022605+1066875728+1066539531
1925+1066863580+1067154272+1066800806+1065554514+1063630050+1061724958
1917+1060628641+1060514059+1060972061+1061558764+1062003108+1062263135
1908+1062557635+1063140398+1064030860+1065034460+1065913233+1066476297
1900+1066634940+1066505780+1066396253+1066530207+1066816762+1067053544
1891+1067254606+1067604789+1068191426+1068858566+1069307113+1069295622
1883+1068773860+1067819114+1066581555+1065414716+1064738449+1064605218
1874+1064723412+1064909436+1065172484+1065420429+1065424829+1065163817
1866+1064871877+1064727089+1064759855+1064881727+1064884681+1064581054
1857+1064057191+1063673979+1063692431+1063993826+1064269612+1064338362
1849+1064165076+1063768272+1063267260+1062960875+1063127463+1063672403
1840+1064270860+1064680008+1064788484+1064551440+1064005448+1063377378
1832+1063026275+1063131402+1063453481+1063629788+1063537137+1063221230
1823+1062823835+1062467874+1062118085+1061721871+1061412334+1061385806
1815+1061578791+1061615759+1061096230+1060009632+1058836096+1058054241
1806+1057763746+1057840704+1058191149+1058794859+1059549726+1060163350
1798+1060393632+1060308138+1060149889+1060049162+1059921774+1059687619
1789+1059468500+1059390163+1059411110+1059383466+1059271378+1059229354
1781+1059362191+1059549988+1059614601+1059497523+1059225020+1058890924
1772+1058642585+1058464047+1058200933+1057899604+1057728419+1057703139
1764+1057766438+1058015040+1058541004+1059123701+1059467449+1059546311
1755+1059535083+1059535345+1059515778+1059454579+1059361009+1059232243
1747+1059125212+1059153381+1059349321+1059623597+1059808111+1059730694
1738+1059389310+1058965781+1058603122+1058316764+1058062318+1057795790
1730+1057483626+1057177503+1057017481+1057062001+1057200288+1057318614
1721+1057497415+1057908337+1058475012+1058687171+1058328911+1057895204
1713+1057686066+1057655073+1057746214+1057992189+1058398252+1058795319
1704+1058955931+1058864528+1058637398+1058349398+1058084315+1057986345
1696+1058103817+1058285376+1058389847+1058428129+1058440867+1058482564
1687+1058677190+1059055740+1059176495+1058512572+1057536945+1056794882
1679+1056312913+1055925367+1055425932+1054693784+1053807919+1052883378
1670+1051998104+1051356966+1051150586+1051332999+1051776030+1052302454
1662+1052702410+1052925469+1053018120+1052984697+1052872215+1052804057
1653+1052846869+1052904456+1052972024+1053156078+1053592937+1054330140
1645+1055071349+1055517860+1055623578+1055484372+1055288564+1055199984
1636+1055137603+1054815853+1054329681+1053991054+1053892691+1054002086
1628+1054268482+1054657538+1055165510+1055737307+1056168650+1056316196
1619+1056280738+1056265964+1056381072+1056473920+1056325717+1055873493
1611+1055169385+1054265725+1052960795+1050639988+1046468325+1039818131
1602+1031020546+1021980860+1015454244+1013410470+1016144761+1022371754
1594+1029933619+1036963611+1042626161+1046879641+1049949668+1052104150
1585+1053630037+1054747431+1055482205+1055760815+1055676175+1055556996
1577+1055771321+1056298533+1056791140+1057269892+1057967171+1058758350
1568+1059146290+1059083581+1058969392+1058985939+1059045693+1059112210
1560+1059350174+1059736013+1059761293+1059374601+1058790000+1058218991
1551+1057915232+1058017732+1058357278+1058589004+1058537524+1058348873
1543+1058371658+1058794925+1059279849+1059374733+1059218454+1059023959
1534+1058838591+1058659921+1058495959+1058343357+1058183138+1058042816
1526+1058020622+1058145710+1058270733+1058183007+1057899801+1057690532
1517+1057693224+1057753503+1057628677+1057285651+1056861728+1056474839
1509+1056171934+1055949597+1055686747+1055224870+1054444854+1053068549
1500+1050503736+1045907231+1039397097+1033741441+1031762542+1033219548
1492+1036550850+1040322951+1043239064+1044768036+1045273316+1045067987
1483+1044161241+1042496542+1040037118+1036520383+1031370466+1024172377
1475+1015010557+1004396196+993624769+983924969+974791253+965109576+954998788
1465+946708913+942511182+941692556+942473622+944425533+948184238+952781006
1455+955888527+957767158+959691030+962392029+966004831+969638644+971419764
1445+970434222+967988523+966407807+967160704+970222523+974824610+979568463
1435+982857872+985012355+987966421+993515505+1001698874+1010398292+1017802828
1425+1023578385+1027771717+1030546390+1032589902+1034613385+1036446445
1417+1037490363+1037830171+1037817826+1037566860+1037016010+1036129357
1408+1035019645+1033871783+1032810990+1031882707+1031034926+1030157729
1400+1029232597+1028298206+1027004046+1024248546+1018746017+1010250944
1391+999436770+986695637+972051512+956327553+941855073+931208669+925763529
1381+924928947+926033406+926230856+924632740+921884791+918939130+916926547
1371+916620095+917148883+915772709+909542564+897262848+879417960+858220429
1361+838175357+823060426+812834990+804856753+796586511+788297621+783244427
1351+783779321+788278710+793195915+797832278+805614509+820168937+841789538
1341+867928175+894406358+916032539+929817129+937552411+943335914+950370699
1332+959922691+971458966+983374841+993998722+1002286693+1007835121+1010472164
1322+1010099458+1007282498+1004030845+1003193899+1006304638+1012390718
1313+1018980436+1023921674+1026483598+1027084287+1026342356+1024500759
1305+1021574535+1017979659+1014748560+1012686925+1011399200+1009673434
1296+1006920692+1003900897+1001961922+1001852133+1003355300+1005773027
1288+1008508434+1011306943+1014274470+1017741301+1021871662+1026282470
1279+1030163047+1032832856+1034155646+1034509966+1034400111+1033889906
1271+1032319631+1028919579+1024067972+1019782449+1018486121+1021002935
1262+1025863144+1030598396+1033517266+1034420072+1034200428+1034074486
1254+1034853582+1036500552+1038324419+1039644648+1040254070+1040314678
1245+1040026415+1039515751+1038971401+1038667905+1038773557+1039222235
1237+1039798760+1040230037+1040218612+1039571039+1038341820+1036824207
1228+1035418747+1034446732+1033932390+1033598360+1033227559+1032952495
1220+1032982240+1033081327+1032566197+1030889416+1028109489+1024848775
1211+1022012181+1020474016+1020611384+1021861549+1022868301+1022200964
1203+1018776485+1011531315+998793990+977299792+941232058+885114065+813037430
1193+745385789+709591083+719267376+764268290+821785505+873193593+910129989
1183+931018573+937150420+931024614+914144322+883782542+834220515+767034952
1173+701079462+664899312+674193247+719599633+777989712+831355949+873438124
1163+904698245+927193153+943282661+955271619+964753614+972539260+979179605
1153+985239682+991033362+996371404+1000794755+1003924996+1005391325+1004619649
1143+1001074284+994899033+987426930+981112473+978604721+981177940+987733710
1133+995579044+1002338436+1007041907+1009663781+1010300717+1008935771
1125+1005451801+999783472+992726165+986719538+984818057+988140101+994706574
1115+1001137912+1005099189+1005989650+1004161844+1000232741+994602629+986628463
1105+974420517+956481140+933923129+910973304+893795753+888597837+898494102
1095+920229220+945145467+965367633+978976311+988854125+998030522+1007165551
1085+1015258370+1021255542+1024914176+1026780987+1027715903+1028412067
1077+1029159382+1029912870+1030498653+1030709761+1030368180+1029533401
1068+1028566901+1027809933+1027316144+1026951252+1026527132+1025779095
1060+1024510609+1022939021+1021726414+1021450037+1022067995+1023024843
1051+1023824229+1024343495+1024647057+1024690395+1024351572+1023712404
1043+1023085450+1022594025+1021915787+1020662141+1018895336+1017182900
1034+1016219420+1016202413+1016237412+1014562863+1010027885+1003640016
1026+998022642+994607685+992076097+989004100+987227839+990007306+996935256
1016+1003453073+1005971527+1005318373+1004642500+1005615435+1007309157
1007+1007943268+1007236796+1006959368+1009050025+1013461360+1018185252
999+1021036423+1020883624+1017410095+1010622599+1001307783+991760847+985198905
989+983847486+987555499+994210552+1001202656+1006565519+1009342162+1009295147
979+1006095434+998425422+983928121+960956758+931553533+902282488+879953117
969+865618464+854460673+842491939+831754591+828195831+835926122+853821440
959+875855785+893952558+901932764+898322721+886034994+868965000+847648684
949+817730986+774041370+717593484+658413014+610725744+585087199+584340672
939+604979210+640454528+683470175+726926751+764069330+789012236+799382394
929+799786290+800739066+811302340+832449376+858291017+882570592+902802082
919+919582763+934279878+947752304+960099654+970871409+979524797+985795654
909+989752006+991649810+991835441+990799272+989120849+986887833+982717418
899+973074417+952712453+917445682+869537848+821480696+791526948+791723413
890+819241048+859567843+897229622+923347378+936166454+938294408+933590412
880+923791394+906464131+877183302+835037696+786383729+743254091+717681079
870+715852353+735685135+769175054+807323662+843736195+875172163+900504782
860+920000514+934965141+946849892+956012237+961208643+960217323+951222550
850+934467478+913250643+893129007+879489402+875053706+878774064+886892493
840+895861656+904901867+915666728+929448429+945037450+959154363+968478043
830+971456142+969040450+963782387+957017216+946267195+926306106+893647288
820+850451265+805534334+772275681+762316182+777211141+806421381+835563266
810+856559013+870062630+880726829+891674431+902382099+910608478+915604020
800+918732159+921844737+926766932+935622629+949454891+966373793+982420291
790+994589562+1002527678+1007422689+1010087573+1010588913+1009136504+1006488561
781+1003627737+1001633014+1001600445+1004066041+1008538310+1013829863
772+1018761908+1022623376+1025308879+1027166563+1028636635+1029949378
764+1031070516+1031881196+1032400134+1032787089+1033129064+1033328287
755+1033260522+1032941004+1032478930+1032023358+1031821246+1032055336
747+1032463237+1032315166+1030739835+1026830366+1019636938+1008457873+993413989
737+976420034+961912030+955231630+958827556+970268619+984299053+996340674
727+1004347211+1008763996+1011484103+1014488073+1018839719+1024292935
718+1029646473+1033775849+1036311507+1037377159+1036988300+1034513314
710+1028769669+1019579746+1009282277+1001495646+998162899+998586100+1001163980
700+1005077323+1010090003+1015402896+1019444742+1020970366+1019900183
691+1017077181+1013722240+1010858396+1008755985+1007146706+1005881174
683+1005064913+1004882434+1005177460+1004852885+1001962841+993883877+977569012
673+951542069+914410259+856926729+769008401+681145361+644922005+661585148
663+709133934+769449462+827868499+876293760+913616651+941397661+961829950
653+977048301+988576959+997235535+1003010238+1005613333+1005624365+1004781444
643+1005288496+1008451635+1013415527+1017859561+1020213595+1020344724
635+1017836513+1010487135+996164236+977602238+963847919+963596756+976861095
625+995307263+1010571578+1019950613+1024770045+1026705080+1026470662+1024408896
615+1021192439+1017845312+1015472696+1015050480+1017095830+1021337949
606+1026657015+1031373815+1034091558+1034594803+1033618388+1031551829
598+1027479974+1019626498+1007232002+992627539+981147406+977656279+982539208
588+991765903+1000466832+1005814001+1007263980+1004851966+997634506+983311541
578+959058101+924892504+887922161+859833517+846908001+844096490+840022010
568+829339950+820126913+824995002+844890886+864389376+861705253+822322369
558+748482607+663073212+602016148+591950077+630263369+689424796+740937880
548+774493529+797531211+821202414+848548864+873936443+890381781+896378952
538+897088183+899748077+907684289+918369369+927004831+931584986+934440162
528+939591983+949163805+961692123+973635708+982659832+988432237+991244404
518+991537395+990384017+989476417+990353023+993536058+998038007+1001794086
509+1003075639+1001598541+998510193+995686994+994841249+996253210+998005373
499+997737006+995283690+993009109+993593382+997622489+1003613948+1009868060
489+1015484318+1020025600+1023403918+1026100517+1028608597+1030681657
480+1031778564+1031973847+1031863730+1031526220+1029983458+1026515641
472+1022645242+1020884149+1021261451+1021904231+1022398742+1024205602
463+1027492385+1029780689+1028805193+1025258121+1022116586+1021566983
455+1022999891+1024351047+1024130155+1022693899+1021530409+1020839039
446+1019267779+1016293095+1013278947+1011876770+1012847538+1016519371
438+1022848930+1030275857+1035729204+1037298428+1036111431+1034706759
429+1034459536+1035102972+1036210779+1037860704+1039889573+1042128235
421+1045259527+1049266440+1051370296+1050228081+1047826179+1045258214
412+1042516372+1040070410+1038531259+1037016601+1033053354+1025055681
404+1014880937+1006847609+1004707047+1010300651+1021544198+1030219977
395+1031153843+1028907300+1029274556+1032824648+1036240065+1037509208
387+1037470860+1035945959+1030517301+1022046720+1014793867+1009959398
378+1005137996+998959068+996029101+1002071711
##END=
