##TITLE=HMS-Q311
##JCAMP-DX=4.24
##DATA TYPE=INFRARED SPECTRUM
##DATE=8/9/2021
##SAMPLING PROCEDURE=Diamant-ATR
##ORIGIN=Angelika Moesle
##XUNITS=1/CM
##YUNITS=TRANSMITTANCE
##RESOLUTION=4
##FIRSTX=3997.453
##LASTX=373.96442
##DELTAX=-1.4165319
##MAXY=1.0000826
##MINY=0.30021057
##XFACTOR=1
##YFACTOR=9.3139951e-010
##NPOINTS=2559
##FIRSTY=0.97854733
##XYDATA=(X++(Y..Y))
3997+1050620405+1049868595+1049797561+1050448643+1051234306+1051650976
3989+1051746072+1051708443+1051435122+1050813157+1050127582+1049870835
3980+1050220630+1050817061+1051054481+1050609718+1049806584+1049378588
3972+1049697601+1050386376+1050861089+1051002070+1051065296+1051202181
3963+1051357432+1051441457+1051393461+1051207109+1050955865+1050697967
3955+1050374793+1049852597+1049087860+1048305908+1047938515+1048159488
3946+1048629274+1048978749+1049177132+1049274468+1049226536+1049108594
3938+1049161774+1049505041+1049936622+1050107040+1049942573+1049771387
3929+1049781882+1049759292+1049624967+1049617928+1049789562+1049846837
3921+1049747325+1049819575+1050181209+1050521021+1050643955+1050762921
3912+1051004693+1051121484+1050837347+1050239189+1049700289+1049625543
3904+1050215127+1051128779+1051739161+1051959047+1052136568+1052265901
3895+1052029569+1051346937+1050467458+1049651269+1048851591+1048029259
3887+1047632620+1048269559+1049726143+1051071056+1051896908+1052192755
3878+1051916490+1051317436+1050700271+1049948653+1048902851+1048141890
3870+1048485925+1049570636+1050403399+1050967704+1051720730+1052551574
3861+1053002608+1052956404+1052454046+1051496237+1050276242+1049424472
3853+1049689986+1050512702+1050944858+1051108493+1051228547+1051293949
3844+1051270015+1051192838+1051087119+1051009493+1051191750+1051758999
3836+1052321001+1052465053+1052264685+1051965958+1051608995+1051153929
3827+1050807526+1050835555+1051078223+1051104909+1050765033+1050289744
3819+1049951596+1049976554+1050652658+1051752088+1052418081+1052263661
3810+1051637089+1051170568+1051291134+1051525290+1050957849+1049835574
3802+1049499986+1050619637+1051983173+1052571988+1052676747+1052768836
3793+1052900985+1052929462+1052772035+1052481307+1052181300+1051935880
3785+1051775958+1051810643+1052169013+1052834622+1053443724+1053370130
3776+1052496346+1051426803+1050659250+1050074210+1049360605+1048719506
3768+1048646232+1049167597+1049995433+1050894942+1051626402+1051958471
3759+1051824978+1051438962+1051080719+1050750122+1050321294+1050056612
3751+1050894111+1052995377+1054617899+1054666343+1053589760+1052645838
3742+1052728071+1053435661+1054142098+1054458296+1054101590+1053248540
3734+1052623056+1052378724+1051975237+1051310908+1050795111+1050792935
3725+1051196422+1051436594+1051198789+1050863905+1050955673+1051485678
3717+1052051071+1052387875+1052630159+1052956788+1053033198+1052488731
3708+1051938376+1051971014+1052282284+1052419041+1052439967+1052592082
3700+1052651277+1052263405+1051583270+1050995670+1050616629+1050303567
3691+1050147228+1050818661+1052627151+1054262216+1054611435+1054094294
3683+1053530501+1053320406+1053362003+1053340116+1053136933+1053023855
3674+1053198880+1053206112+1052704841+1052047103+1051946504+1052465181
3666+1052940661+1052958132+1052605073+1052393507+1052841854+1053877672
3657+1054722850+1054461432+1053123750+1051607204+1050438212+1049691266
3649+1049593290+1050157339+1050595447+1050430917+1049989993+1049757180
3640+1049817783+1049879794+1049748861+1049557965+1049594954+1050047716
3632+1050872608+1051880717+1052736454+1053003312+1052815360+1052631503
3623+1052467805+1052097083+1051589477+1051430578+1051721114+1051802515
3615+1051369591+1050890783+1050947930+1051524010+1052060286+1052176949
3606+1052105402+1052168309+1052210994+1051955783+1051516139+1051228227
3598+1051054545+1050679920+1050167131+1049994089+1050341516+1050848482
3589+1051091086+1050877344+1050361163+1049941421+1049715840+1049437591
3581+1049045111+1048941760+1049527887+1050513342+1051148426+1051147338
3572+1050950746+1051075280+1051568615+1052055423+1052106682+1051705947
3564+1051099790+1050330829+1049596682+1049550861+1050559610+1051937224
3555+1052684171+1052722183+1052798657+1053271706+1053663098+1053563522
3547+1053176098+1052863996+1052627407+1052297067+1051956295+1051829905
3538+1051971590+1052265005+1052627407+1052994097+1053172706+1053019183
3530+1052699913+1052508313+1052415201+1052105338+1051511340+1050992214
3521+1050917341+1051293885+1051855951+1052291691+1052291819+1051667231
3513+1050660850+1049958060+1050053540+1050639796+1051009685+1050940059
3504+1050691823+1050461826+1050294992+1050257875+1050280849+1050108959
3496+1049740990+1049632007+1050083489+1050738731+1051034771+1050858209
3488+1050492992+1050130718+1049708288+1049155694+1048543265+1047943698
3479+1047282505+1046462925+1045601684+1045052993+1045167032+1045996851
3471+1047233357+1048459496+1049496914+1050438852+1051323771+1051938056
3462+1052083004+1051928201+1051900235+1052223601+1052754821+1053283609
3454+1053787056+1054280135+1054614187+1054576366+1054104917+1053372562
3445+1052663308+1052146231+1051813459+1051594533+1051419507+1051221443
3437+1051065616+1051211268+1051786773+1052438815+1052600722+1052151799
3428+1051583078+1051444081+1051790996+1052265517+1052587155+1052835710
3420+1053258011+1053864489+1054313028+1054230987+1053620477+1052823999
3411+1052053247+1051190918+1050190169+1049311265+1048689109+1047963409
3403+1046740150+1045274607+1044278721+1044029270+1044003864+1043523583
3394+1042515539+1041400879+1040409537+1039344793+1038007943+1036512067
3386+1035039548+1033526841+1031753548+1029618108+1027216643+1024759054
3377+1022436174+1020237507+1017890245+1015103531+1011941425+1008896108
3369+1006471348+1004666698+1003025681+1001209959+999259144+997209202+994795705
3359+991661180+987624841+982719327+977165225+971285711+965285503+959154553
3349+952887423+946792759+941535081+937868888+936281499+936735222+938675157
3339+941517994+945222392+950100069+955986495+962058378+967634685+972697819
3329+977474192+981944735+985969042+989644131+993328242+997254126+1001155436
3319+1004481753+1007075586+1009322633+1011542545+1013636388+1015456334
3310+1017101382+1018680260+1020108750+1021304299+1022408400+1023681383
3302+1025197097+1026722219+1027961733+1028852923+1029538627+1030171598
3293+1030857366+1031696592+1032781815+1034135559+1035595726+1036831784
3285+1037673635+1038328301+1039007604+1039520778+1039607555+1039503883
3276+1039740024+1040436414+1041141764+1041382000+1041143172+1040785122
3268+1040664940+1040926934+1041537635+1042319587+1042948591+1043147806
3259+1043017961+1042987052+1043295442+1043713904+1043910367+1043898400
3251+1043965147+1044268226+1044623973+1044688351+1044377657+1044050836
3242+1044078098+1044349883+1044516013+1044546027+1044701086+1045094654
3234+1045576342+1045927545+1046012146+1045879229+1045745416+1045736073
3225+1045767622+1045826625+1046097131+1046604417+1047002272+1046974562
3217+1046688890+1046614976+1046977058+1047553842+1048004301+1048246969
3208+1048409644+1048518051+1048445673+1048148353+1047720741+1047234765
3200+1046749493+1046433935+1046427280+1046625983+1046825903+1046969443
3191+1047134933+1047462010+1048114948+1049037688+1049771323+1049823863
3183+1049220201+1048451752+1047975056+1047941522+1048214268+1048494693
3174+1048600348+1048670486+1048915778+1049220713+1049259942+1048986684
3166+1048714003+1048724178+1049054774+1049619336+1050271442+1050750122
3157+1050804198+1050446787+1049994217+1049785466+1049850677+1049882354
3149+1049583435+1049027449+1048603868+1048597916+1048895108+1049125041
3140+1049049207+1048743056+1048445545+1048342321+1048480038+1048764814
3132+1049044151+1049280868+1049575435+1049934126+1050193752+1050264403
3123+1050198808+1049910448+1049177132+1048073480+1047053532+1046460301
3115+1046239263+1046195811+1046224544+1046240735+1046160550+1046009266
3106+1045911354+1045951735+1046076844+1046087020+1045753351+1045023875
3098+1044098832+1043243479+1042520914+1041775952+1040954580+1040318664
3089+1040124632+1040190675+1040104602+1039805555+1039591428+1039614274
3081+1039793780+1040170388+1040848732+1041586527+1041904133+1041612893
3072+1040876890+1039855662+1038597910+1037111889+1035345379+1033438977
3064+1032109806+1032225829+1033804258+1035888566+1037546669+1038644307
3055+1039559239+1040481531+1041288632+1041942978+1042571534+1043090339
3047+1043180316+1042782589+1042250665+1041932995+1041892230+1041946434
3038+1041760209+1041098504+1040193555+1039649151+1039890092+1040857244
3030+1042162736+1043374924+1044232389+1044744923+1045069312+1045277295
3021+1045325675+1045228531+1045092222+1044957129+1044783063+1044591655
3013+1044446323+1044334716+1044260035+1044350075+1044667361+1045014020
3004+1045097085+1044829268+1044408054+1044144140+1044184393+1044371577
2996+1044459890+1044441268+1044527916+1044815125+1045095806+1045070464
2987+1044689695+1044197832+1043810984+1043486594+1043116449+1042809210
2979+1042798843+1043116769+1043528575+1043831526+1044063891+1044321597
2970+1044524589+1044520941+1044271426+1043776619+1042996971+1041966912
2962+1040801248+1039571078+1038432292+1037816983+1038119358+1039189989
2953+1040452669+1041452011+1042041466+1042218283+1042091766+1041921540
2945+1041971776+1042348001+1042967789+1043570108+1043780650+1043327184
2936+1042244521+1040794721+1039112812+1037062101+1034648733+1032480720
2928+1031440230+1031869570+1033348040+1035209070+1037008602+1038575064
2919+1039876461+1040890841+1041578784+1041983615+1042284774+1042713026
2911+1043417288+1044342908+1045228531+1045835904+1046180644+1046482379
2902+1046932262+1047488376+1047845018+1047745443+1047365826+1047160979
2894+1047313798+1047566641+1047592943+1047355779+1047128150+1047234957
2885+1047726564+1048284534+1048494885+1048219004+1047690215+1047265290
2877+1047113687+1047192848+1047438780+1047788895+1048084999+1048171775
2868+1048065032+1047858777+1047538548+1047056796+1046534215+1046209314
2860+1046163749+1046243103+1046318553+1046475916+1046837870+1047346884
2851+1047834267+1048198525+1048466215+1048780813+1049273764+1049856116
2843+1050234389+1050250260+1050107871+1050162523+1050526781+1050957849
2834+1051148170+1051082831+1051017236+1051118540+1051292222+1051406132
2826+1051485742+1051570151+1051566439+1051415987+1051244930+1051161416
2817+1051058449+1050826404+1050614006+1050659250+1050957593+1051261632
2809+1051341818+1051166728+1050901342+1050767849+1050865697+1051151241
2800+1051566119+1052073405+1052583827+1052950773+1053032366+1052758341
2792+1052240047+1051777494+1051599716+1051654304+1051774038+1051947847
2783+1052282604+1052786306+1053281497+1053502791+1053279961+1052684555
2775+1052019458+1051633569+1051664095+1051912842+1052045311+1051954823
2766+1051823186+1051838800+1051996099+1052151543+1052151031+1051963718
2758+1051781013+1051896844+1052355942+1052788354+1052779971+1052415521
2749+1052206258+1052414881+1052766532+1052932214+1052978290+1053171554
2741+1053580417+1053998174+1054157969+1053986527+1053649787+1053371218
2732+1053283673+1053391824+1053522885+1053432461+1053105960+1052780739
2724+1052609041+1052542230+1052538583+1052615120+1052712712+1052704969
2715+1052535959+1052277228+1052072445+1051997827+1051987716+1051935368
2707+1051813651+1051652000+1051506668+1051467695+1051589733+1051815954
2698+1052055551+1052275820+1052482587+1052688394+1052911608+1053138341
2690+1053310487+1053420046+1053552643+1053729396+1053778160+1053545475
2681+1053199072+1053102440+1053349972+1053638716+1053674937+1053529285
2673+1053463690+1053554435+1053651323+1053642171+1053603455+1053662394
2664+1053800046+1053852330+1053743347+1053670521+1053890663+1054287110
2656+1054412860+1054087511+1053666361+1053553923+1053722293+1053883944
2647+1053907110+1053882088+1053904294+1053942179+1053923556+1053878952
2639+1053933091+1054152465+1054481526+1054832217+1055118402+1055191675
2630+1054917778+1054419963+1054106581+1054305541+1054949328+1055692690
2622+1056220263+1056415254+1056414550+1056481233+1056640452+1056575369
2614+1056098225+1055497634+1055154047+1055040456+1054885333+1054662439
2605+1054653992+1055083204+1055822407+1056473938+1056767993+1056892655
2597+1057249873+1057774182+1057845344+1057147994+1056166123+1055467301
2588+1055032905+1054661543+1054414908+1054326787+1054244426+1054149906
2580+1054143506+1054113621+1053898406+1053685496+1053832812+1054313476
2571+1054666663+1054614379+1054463160+1054647720+1055099203+1055399722
2563+1055364717+1055161982+1055031305+1055106882+1055399978+1055834950
2554+1056269922+1056427925+1056053748+1055352494+1054942160+1055102595
2546+1055450278+1055587675+1055654485+1055987258+1056563594+1057035107
2537+1057183063+1057110621+1056978920+1056776249+1056485777+1056281121
2529+1056331101+1056489680+1056425430+1056125870+1055999161+1056261667
2520+1056528973+1056390040+1056068019+1056036854+1056255588+1056253220
2512+1055790986+1055100227+1054574894+1054435002+1054670375+1055179069
2503+1055836614+1056429461+1056724413+1056741115+1056835700+1057334026
2495+1058105931+1058672604+1058773844+1058596386+1058399091+1058212994
2486+1057975701+1057631922+1057128795+1056613766+1056459795+1056786616
2478+1057219988+1057427011+1057592117+1058055695+1058696922+1058999745
2469+1058700442+1058120010+1057773862+1057873054+1058326393+1058937414
2461+1059395424+1059373346+1058881547+1058309626+1057980245+1057886813
2452+1057907483+1058004435+1058162566+1058336632+1058476780+1058480364
2444+1058232384+1057843168+1057669039+1057873694+1058131977+1057971414
2435+1057292878+1056408407+1055728911+1055528288+1055857348+1056560522
2427+1057399877+1058149255+1058572004+1058478892+1057929689+1057285199
2418+1056954154+1057070624+1057418819+1057689261+1057816099+1057972054
2410+1058251391+1058595682+1059048957+1059721541+1060404429+1060608892
2401+1060143074+1059354276+1058706457+1058364597+1058271869+1058381492
2393+1058631903+1058800465+1058619808+1058098955+1057547129+1057227347
2384+1057158489+1057274959+1057550265+1057914139+1058251967+1058590115
2376+1059183026+1060263896+1061574956+1062303408+1061934030+1061145360
2367+1061222857+1062464675+1063761400+1063828978+1062476834+1060758576
2359+1060061097+1060708084+1061573164+1061453110+1060369232+1059078458
2350+1058026001+1057303885+1057018405+1057223380+1057703404+1058196739
2342+1058664541+1058943494+1058703385+1057987477+1057223252+1056672129
2333+1056327902+1056264419+1056598151+1057003302+1056723261+1055448486
2325+1053943331+1053370386+1053998366+1055071493+1055939966+1056555211
2316+1057047394+1057551289+1058146631+1058572964+1058454766+1057953559
2308+1057631858+1057694125+1057901852+1058125001+1058439151+1058746774
2299+1058780563+1058535655+1058373301+1058603618+1059169459+1059798527
2291+1060279383+1060489094+1060330067+1059833596+1059237165+1058765908
2282+1058422129+1058213634+1058459885+1059445980+1060764271+1061508530
2274+1061339072+1060917474+1060946336+1061180237+1060881381+1060011117
2265+1059370146+1059669770+1060948256+1062743052+1064396291+1065340661
2257+1065402544+1064798818+1063920234+1063230755+1063079408+1063384343
2248+1063722107+1063746809+1063349338+1062628245+1061919952+1061611817
2240+1061775516+1062172219+1062584473+1062898239+1062968313+1062700495
2231+1062259252+1061980171+1062081282+1062656915+1063865967+1065758483
2223+1067904929+1069548825+1070206435+1069916795+1069029316+1068077907
2214+1067669749+1067943262+1068190154+1067638903+1066599757+1066096695
2206+1066378847+1066664072+1066426971+1065973697+1065651099+1065415599
2197+1065395888+1066084024+1067589755+1069154362+1069891325+1069722955
2189+1069027076+1067753966+1065855243+1064073182+1063006454+1062132030
2180+1061185356+1061336512+1063260769+1065296249+1065304120+1063427987
2172+1061501554+1060746417+1061321729+1063050738+1065317879+1066869495
2163+1067049960+1067130721+1069006598+1072135940+1073741823+1073055352
2155+1072136964+1072333491+1072908100+1072789006+1071788256+1070177317
2146+1068274435+1066493782+1065296377+1065028495+1065620318+1066305957
2138+1066065273+1064698346+1063226084+1062833028+1063452177+1063863855
2129+1063380567+1062809990+1063219044+1064358022+1065049741+1064683179
2121+1063648449+1062575513+1061646374+1060704564+1059814526+1059306728
2112+1059104120+1058616737+1057731434+1057233235+1057774054+1059003969
2104+1060057641+1060400973+1060026540+1059252012+1058481708+1057940312
2095+1057599349+1057435010+1057554680+1057950936+1058339255+1058372149
2087+1057896092+1057113181+1056663938+1057250513+1058910664+1060922786
2078+1062498400+1063184999+1062734732+1061235848+1059442716+1058420657
2070+1058604770+1059400672+1059944435+1060120612+1060521091+1061430712
2061+1062333869+1062533341+1061948941+1061180813+1060810347+1060787885
2053+1060726002+1060518979+1060308053+1060258777+1060722419+1061881363
2044+1062984824+1063004022+1062186234+1061847894+1062593560+1063854000
2036+1065113032+1066491350+1067953821+1068824661+1068626534+1067941086
2027+1067905569+1068945163+1070371541+1071219087+1071072348+1069983158
2019+1068173707+1066270440+1065379442+1066187375+1068003673+1069106494
2010+1068263812+1065842124+1063275360+1061655781+1061184076+1061646438
2002+1062802247+1064376709+1065964098+1066943089+1066662280+1065009552
1993+1062701519+1060716147+1059377570+1058397747+1057877982+1058410418
1985+1059922485+1061284292+1061627432+1061349375+1061263750+1061457334
1976+1061685027+1062278130+1063744953+1065715798+1066950512+1066480471
1968+1064493755+1062047685+1060105894+1059007616+1058535463+1058229952
1959+1057859103+1057546681+1057367112+1057192278+1056961129+1056777272
1951+1056671937+1056411351+1055756621+1055074565+1055309810+1056803190
1942+1058446895+1058933382+1058406578+1057786149+1057438658+1057150874
1934+1056770681+1056384345+1056095345+1055998905+1056206056+1056650179
1925+1057027684+1056986919+1056328798+1055223161+1054316420+1054380095
1917+1055557149+1057129307+1058220801+1058357302+1057687853+1056944619
1908+1056685696+1056641540+1056228966+1055366189+1054456440+1053755826
1900+1053117351+1052572052+1052690186+1053771697+1055129793+1055955516
1891+1056301280+1056673281+1057297677+1058016594+1058549542+1058719896
1883+1058562533+1058232960+1057898460+1057719211+1057703468+1057698476
1874+1057650864+1057598517+1057464192+1057136923+1056655235+1056149164
1866+1055641110+1054964046+1053944227+1052770372+1051933769+1051652896
1857+1051782549+1052169653+1052632911+1052886778+1052805761+1052530903
1849+1052356646+1052601042+1053330773+1054197710+1054782941+1054951183
1840+1054695588+1054059097+1053131878+1051997635+1050884895+1050021607
1832+1049197099+1048101253+1047132373+1046849837+1047071514+1047312454
1823+1047316998+1047167762+1047146004+1047321158+1047376833+1047055644
1815+1046434255+1045663567+1044870608+1044111951+1043252182+1042260904
1806+1041356658+1040634798+1040006626+1039341273+1038288496+1036474758
1798+1033970261+1030824025+1026444930+1019830373+1011086071+1003108234
1789+998911845+998649147+1000867395+1003781843+1005510788+1004282025+998255771
1779+984728889+960821744+926310995+885570552+849380326+835048902+851439548
1769+887184435+926215323+957816296+978078430+989739611+997289323+1002674990
1759+1005932449+1007675537+1008812915+1009571060+1009848349+1009607409
1751+1008569863+1006462901+1003687002+1000539486+996612963+991428879+984350232
1741+974169825+960806193+946366106+930776546+908167918+872550636+831612770
1731+796386048+767294436+745916298+736132210+737239766+743809848+749426792
1721+748928849+735747858+697517736+626430297+541661300+466847320+407177722
1711+363086004+334938378+322322012+326961917+349807453+383791910+423655689
1701+476145464+542908813+604075152+650469271+689733035+720283023+740020529
1691+754825706+769598821+784135924+798041847+816413322+845105927+874994146
1681+894537940+907917442+920387516+933479171+947443201+960825967+971151066
1672+978703210+985721319+992286984+996675550+999293701+1001574409+1004034686
1662+1006314241+1007915261+1008747768+1009106203+1009398403+1009910424
1653+1010599967+1010847307+1010502631+1010158148+1010618846+1012152415
1645+1013818069+1015050352+1015887850+1016285450+1016376898+1016708135
1636+1017936769+1019711791+1020679135+1020501549+1019684529+1018837943
1628+1018423513+1018520273+1018701506+1017990205+1015495819+1011285735
1619+1005674230+999307716+994968043+995134493+997963955+1001047860+1003763860
1609+1006444663+1009499194+1012837862+1016004257+1018590539+1020259073
1601+1020722075+1019777577+1017192255+1013095185+1008771446+1006055895
1592+1005334610+1005103141+1003538727+999718946+993602268+985524407+975917393
1582+965480367+955256571+945742413+935858046+924088650+912733300+906366786
1572+905810288+910937993+921572826+934042324+944441337+952717453+959437218
1562+964383881+968107222+972601123+978176470+980652105+979536294+976193018
1553+970555468+961604463+948595234+932133042+912533125+888286424+858889557
1543+826799216+792643317+758960788+736957550+726521100+720355337+715609809
1533+714234755+719050997+730007980+746938037+770102524+796413246+821865927
1523+848259715+878118304+905697722+926417290+943382224+958356091+969967676
1513+978552823+985746469+992296903+998913125+1006743710+1013370298+1016107608
1503+1016990287+1017682774+1018588683+1019684273+1020740762+1021423137
1494+1021638607+1021458014+1020725915+1018678340+1013509807+1003374900
1486+988345294+970544908+953946344+943733363+942901432+949203311+957853797
1476+965119053+966639119+955795023+934969479+920814745+922291295+936064685
1466+955096521+970951467+978565494+980335012+980123701+978526201+971050595
1456+950928225+921004297+888650426+861338058+850332184+864960991+900824588
1446+939514960+967251612+983964920+993997819+999870678+1002713643+1002887133
1436+1000160382+994911791+987431129+975174862+951933070+912036014+858161489
1426+800652896+753393440+731482546+741570417+779467318+836983654+896105618
1417+936930469+959678606+973036799+981140513+985215120+986301751+985082459
1407+981114787+973073659+960447951+943677112+921390825+890912959+852136131
1397+806781605+756496224+709695482+680321141+674502421+691143351+728131591
1387+777719238+825083901+861191382+886399412+902699505+911104059+913351617
1377+911555862+906150612+895953887+880917241+863408735+847066277+836645698
1367+836403862+847198106+867229604+892763750+917243520+935478109+947277391
1357+954373764+957600186+956671815+950453704+936690297+912173475+875185746
1347+829429526+785409099+756157948+749792905+765767522+795770675+826748084
1337+848236165+857478473+855217988+841476531+816643895+783958851+749871171
1327+721722712+704488872+698949426+701739403+706253526+704722773+693328002
1317+678123114+672913881+688088051+722017408+763120956+800180359+829386138
1307+852123652+870305765+884763643+895523586+902187548+904442465+902781867
1298+898969381+895646456+894997934+897566425+902335247+907719379+912435661
1288+915917997+918416927+920752094+923673517+927253317+930890520+933828838
1278+935518042+935651151+934182600+931236796+926805546+920615721+912294297
1268+901539793+888389711+873753545+859552414+847881570+839827963+835000010
1258+832101242+829890992+827624811+824920907+821542818+817262532+811803463
1248+804888642+796181585+785023083+770322857+750836851+725666323+694878082
1238+660020034+624002081+590454197+563254908+545966160+540442904+545440572
1228+556896521+569888088+580561894+586927576+588793982+587201922+583384189
1218+577811721+570070537+559332928+544728566+525851534+503811883+481841762
1208+464100827+453102312+447815485+444320093+438766536+429899845+418820952
1198+407071939+395851554+386776527+381946782+382345853+386659481+392422557
1188+398271162+404944434+414634098+429468424+449666628+472411725+492749628
1179+506117036+510651606+508346484+505121438+509050778+526090330+555620851
1169+589917601+618638236+634599478+636079676+624752803+602483923+570535842
1159+531620593+491797867+459097017+439380341+433101116+435633963+440487514
1149+442726433+440682890+435910900+431910271+432011414+437860659+449968939
1139+468984488+494955782+524490110+548912285+557470298+546337201+525939047
1129+516111954+530767864+567713420+613419660+654301914+681519698+688875570
1119+672880283+637827051+597227333+565432904+547847477+541430407+542503918
1109+550000451+562399555+576098583+587965826+597793622+607819866+620785067
1099+638786716+662900436+691737542+719293921+736375646+737851108+729536595
1089+725457636+736204588+760669895+789664108+815234091+834926352+849413923
1079+858914067+862138376+858109205+849111612+841324992+841278403+851235789
1069+868228625+887183091+904408612+918533973+929531081+937817692+943946402
1060+948417328+951620648+953963366+955902406+957888162+960357462+963578252
1050+967330262+970900143+973496153+974173153+970908526+961152468+945797577
1040+932090229+928877119+937787615+951687138+962273720+966492187+965640034
1030+961711142+955717077+947382214+934757465+914075078+881138727+835136895
1020+782468542+735576032+706146143+698804862+710616110+734969426+765348228
1010+797090502+827732899+856360486+882399230+904995380+923423553+937603246
1000+948032592+955446892+960562821+963808761+965009494+963570189+959700044
990+955619997+954609841+958240261+965128844+972685148+979356660+985011681
980+989977031+994276452+997653581+999976269+1001323934+1001721533+1000896065
970+998008496+991852460+982535342+973140662+968004830+968341186+970526158
960+969249591+961493816+947620530+930620143+915077811+904851520+899450750
950+891611461+868111003+816043624+735876039+651781930+601710803+608665876
941+662564144+732984694+795474955+842857601+878164508+905175909+925714948
931+940763049+951266181+958078482+961680809+961878552+957392075+945550173
921+923255247+890501985+854555835+828964157+825040961+843359576+874465038
911+907122308+934754521+955758610+970912110+981460679+988445830+992762017
901+995517629+998095784+1001516942+1005671287+1009489595+1012048296+1013337341
891+1014003590+1014620051+1015189732+1015208867+1014168761+1011838457
882+1008163177+1003568036+999556144+998250332+1000758668+1006113106+1011951600
873+1016150037+1017818955+1017090503+1014610900+1011595021+1009802017
864+1010533029+1013469938+1017020301+1019980056+1022374867+1024559902
856+1026306190+1027212675+1027276990+1026498238+1024290356+1019433222
847+1010596576+998026926+985563188+979453804+983221365+994182316+1006222089
837+1015182437+1020560552+1023427516+1024668949+1024871172+1024500451
829+1023901012+1023340547+1022940964+1022559363+1021847678+1020497262
820+1018695747+1017287671+1016953042+1017226748+1016589617+1013328062
812+1006722592+998338132+991515720+988538814+989203847+992704998+998930403
802+1006965516+1014290798+1018705730+1019922525+1018201131+1012196571
793+1000451622+986108743+977421396+980371809+992039901+1004066107+1011205933
783+1013787608+1013751835+1012002795+1009203155+1006336512+1003862988
775+1000998713+995496639+983893438+962171200+925869047+871802986+805576777
765+747502663+720024357+721606626+722302888+697464748+661004336+652550827
755+692991006+763514972+827427644+861017189+862798290+846156528+829714559
745+827992461+844284875+871418378+899095003+920036633+931261690+932092917
735+920447287+888845738+825678924+727872028+615908542+527352978+486340654
725+484372305+498339151+520160740+558817514+619084472+690124427+754477574
715+797745360+809617723+788172007+747908709+713508223+697471916+689223957
705+673821838+656151617+657426904+691136183+750106032+814509991+866761930
696+899418816+913483574+913005854+902589882+888595582+879129165+879768536
686+889266183+901140658+909441028+912214687+910664799+907159809+904052738
676+902182812+899870939+894504790+883733008+862121866+820907798+766791757
666+723756208+699461127+691123384+698065851+717086743+740409233+761369869
656+776814033+784012798+778955808+759515302+729390623+697595170+673900295
646+664093873+668337683+682638709+701086657+716941859+723189407+714893389
636+692783535+664560779+641332234+631038428+634590391+647293085+662792541
626+675933599+683847505+686119446+684040257+679455740+673860746+667509207
616+659299709+648306505+635182214+621854931+610779558+604466543+604738009
606+612213039+626580300+647015028+672294988+700734814+730115043+758100955
596+782902490+803190990+817487921+824173193+822962925+816880483+811557979
586+811408295+816484292+823067108+826629374+823924765+814526502+802192033
577+793394743+792556605+798228968+805031734+808647307+807200451+798900336
567+781174825+753327141+718512290+682375179+651083748+630807983+626383517
557+637284888+655455867+671559368+685309465+706122017+741232909+785413643
547+823957530+843325722+837697387+808996270+765022815+717758368+678936167
537+653260144+635339705+612986351+574902970+520054093+461631047+418620137
527+402294445+409993137+430261703+454210380+479581660+506432658+533802781
517+559735455+582549634+601988604+619094263+635017107+650455192+665792037
507+680815756+694913599+708366952+722294185+737009321+752108938+767819832
497+784024829+799063843+811602199+822508690+833184224+843449360+852416299
487+859800265+865234056+866850371+860263203+838379955+793569001+724699682
477+646142140+585188968+565001388+589769901+641044193+693049369+734505656
467+766245242+789389698+804096835+811523422+812983717+810109970+806274639
458+806211796+812756152+824993605+840577533+856737478+870497878+880125178
448+884755452+883795339+879027541+875544501+878047142+886334265+896791065
438+907168064+917339000+927246661+935990579+942479835+946035829+946718653
428+945213241+941890828+936513864+929620225+923710122+923253711+932841463
418+948020433+956448409+954817120+945427687+930590513+915184362+906986127
408+911230897+925194479+939941805+948976258+953012661+956006845+959777798
398+962551841+962787085+962626075+963754685+965644449+967569794+969097348
388+968851800+964043494+953336730+941854735+938112708+944158160+955758162
378+967648572+976056709+980503574+984520010
##END=
