##TITLE=X7406
##JCAMP-DX=4.24
##DATA TYPE=INFRARED SPECTRUM
##DATE=29/10/2018
##SAMPLING PROCEDURE=Diamant-ATR
##ORIGIN=ComPlat
##XUNITS=1/CM
##YUNITS=TRANSMITTANCE
##RESOLUTION=4
##FIRSTX=3997.453
##LASTX=373.96442
##DELTAX=-1.4165319
##MAXY=1.0048786
##MINY=0.20392601
##XFACTOR=1
##YFACTOR=9.3586616e-010
##NPOINTS=2559
##FIRSTY=0.9826709
##XYDATA=(X++(Y..Y))
3997+1050012215+1050875523+1051533497+1051318419+1050369066+1049364240
3989+1048844663+1048949878+1049486779+1050109724+1050619047+1051079966
3980+1051496749+1051597187+1051215433+1050661719+1050383651+1050434539
3972+1050575993+1050728783+1050973860+1051211484+1051138688+1050627836
3963+1049995529+1049771215+1050150803+1050806357+1051282180+1051309375
3955+1050802663+1049983937+1049453533+1049714340+1050588731+1051337207
3946+1051422933+1051014048+1050782919+1051233712+1052056960+1052557112
3938+1052594879+1052453744+1052169244+1051624446+1051060031+1050881447
3929+1051022455+1051126396+1051129771+1051222630+1051467643+1051625146
3921+1051377331+1050655477+1049736695+1049036304+1048743015+1048824792
3912+1049364368+1050497973+1051911048+1052752638+1052359038+1050968255
3904+1049661224+1049363094+1050005910+1051103340+1052328594+1053349597
3895+1053845546+1053725683+1053227441+1052822632+1052717035+1052619527
3887+1052251403+1051642215+1050968701+1050361806+1050038837+1050340342
3878+1051102831+1051614956+1051361091+1050280029+1048845491+1047939193
3870+1048377311+1050123289+1052122878+1053319982+1053110253+1051632471
3861+1050013489+1049295265+1049591993+1050400592+1051040288+1050796103
3853+1049668612+1049213552+1050124754+1051664761+1053066626+1053758928
3844+1053399148+1052061099+1050296524+1048887463+1048537745+1049468436
3836+1051029015+1052294903+1052765248+1052404831+1051649921+1051179512
3827+1051377395+1052009639+1052448649+1052370502+1052055367+1051905061
3819+1051751952+1051410641+1051380771+1052037152+1052737225+1052685828
3810+1051821182+1050711141+1050301747+1051045446+1051909646+1051611835
3802+1050224810+1049166867+1049576517+1051189957+1053176426+1054572750
3793+1054852919+1054406394+1053871595+1053498758+1053246930+1053035545
3785+1052770725+1052377253+1051831818+1051176710+1050727573+1050885586
3776+1051399814+1051611007+1051403826+1051250462+1051445670+1051651577
3768+1051510569+1051371408+1051784433+1052640290+1053269986+1053250369
3759+1052754931+1052235226+1051829143+1051254602+1050225320+1048867591
3751+1047987979+1048210063+1048777790+1048883641+1048555450+1048241653
3742+1048374445+1048873260+1049227245+1048951789+1048058546+1047202244
3734+1046945130+1047357901+1048493863+1050195513+1051940026+1053136047
3725+1053386983+1052778177+1051901303+1051257723+1050872212+1050610003
3717+1050430845+1050215066+1049802486+1049358827+1049433216+1050305568
3708+1051557763+1052615961+1053121271+1053010834+1052516542+1051967731
3700+1051604511+1051589480+1051969132+1052655448+1053630913+1054971381
3691+1056456042+1057246299+1056461965+1054542816+1052747479+1051607377
3683+1050923354+1050323401+1049714277+1049374112+1049664408+1050772411
3674+1052148481+1052666020+1052039572+1050965644+1050725663+1051769912
3666+1053139295+1053872486+1053656006+1052771936+1051701956+1050719994
3657+1050149084+1050514724+1051572221+1052136571+1051519868+1050145835
3649+1048965928+1048323303+1048268084+1049115470+1050676749+1052198859
3640+1053134519+1053577860+1053736446+1053428254+1052473233+1051108244
3632+1049637085+1048132808+1047030856+1047220778+1048316615+1049167377
3623+1049563843+1050012788+1050971376+1052216183+1052850910+1052353115
3615+1051109199+1049938399+1049577663+1050214238+1051656545+1053582828
3606+1055175824+1055546241+1054724967+1053445322+1052296750+1051382426
3598+1050595991+1049814778+1048910836+1047980081+1047291855+1046891122
3589+1046763934+1047248100+1048606147+1050203092+1051099519+1050909470
3581+1049904644+1048940325+1048716584+1048939560+1048917333+1048653404
3572+1048467686+1048101218+1047173265+1046123921+1045844134+1046162389
3564+1046169841+1045807385+1045561162+1045692681+1046178885+1046806988
3555+1047159827+1046916916+1046338872+1046089911+1046414280+1046933666
3547+1047079451+1046414471+1045108395+1044183882+1044557483+1045930114
3538+1047099832+1047305421+1046796798+1046044182+1045150749+1044210950
3530+1043460117+1042928502+1042456055+1042126654+1042270210+1042957290
3521+1043646726+1043525016+1042360330+1040908724+1040108341+1039879378
3513+1039282227+1037879916+1036375512+1035709513+1035905294+1036167503
3504+1035863960+1035089179+1034324207+1033714892+1033060803+1032362004
3496+1031822683+1031361446+1030604753+1029461531+1028377539+1027906621
3488+1028091956+1028311812+1027834652+1026497495+1024757695+1023135529
3479+1021747039+1020493825+1019478045+1018872614+1018422522+1017497180
3471+1015757571+1013386228+1010695038+1007977862+1005633778+1003915950
3462+1002618090+1001352393+1000009632+998759475+997768406+996953820+995971094
3452+994614322+993156347+991950263+990828949+989319895+987374188+985472298
3442+984067249+983147066+982213509+980726874+978668818+976531979+974726006
3432+973192431+971611472+969804926+967917558+966231830+964750544+963069720
3422+960825947+958132973+955390067+952870773+950688460+948838923+947078042
3412+945081383+942879326+940824455+939109366+937598784+936089284+934452406
3403+932561280+930287000+927574091+924450068+921071224+917797468+915009788
3393+912659207+910153989+906965322+903224277+899409798+895624235+891566017
3383+887170756+882789762+878534298+873844092+868068111+861274248+854089524
3373+846886457+839441307+831266533+822084959+812115229+801892017+791708037
3363+781539024+771610247+762375683+753769477+745314088+737217333+730555243
3353+726067696+723407904+721798540+720971535+721248647+722905332+725718743
3343+729205030+733117781+737510049+742331328+747198909+751802816+756460986
3333+761922724+768512464+775706550+782640148+788862845+794535904+800052415
3323+805598669+811041301+816149818+820935622+825728177+830816632+836130993
3313+841439113+846636476+851610546+856100513+859968045+863395611+866661279
3303+869869053+872867608+875344739+877140522+878499333+879839419+881363759
3293+883077064+885017676+887229287+889608591+892006938+894465408+897162395
3284+900126940+903218991+906393137+909705171+913013511+916024422+918757010
3274+921624238+924869717+928226970+931331058+934139310+936723948+939031920
3264+941157741+943470554+946121429+948765936+951046012+953016813+954884501
3254+956630989+958147239+959594005+961405392+963849214+966649950+969185866
3244+971133548+972855069+974963312+977476746+979699565+981150726+982255289
3234+983722626+985615090+987453545+988896234+989980799+990976899+992163622
3224+993565104+994922387+996107198+997391811+999081679+1001022355+1002712796
3214+1003876208+1004745312+1005719249+1006860688+1007887678+1008618894
3206+1009230057+1009937326+1010620394+1011056092+1011431859+1012234917
3197+1013631241+1015277673+1016707242+1017637552+1018040450+1018111782
3189+1018035482+1017843969+1017712387+1018091274+1019190487+1020618974
3180+1021789583+1022444564+1022705754+1022864149+1023194187+1023829487
3172+1024717825+1025629283+1026265985+1026486477+1026430176+1026391007
3163+1026608824+1027101715+1027606453+1027794209+1027577538+1027109995
3155+1026663533+1026627103+1027229667+1028107305+1028580517+1028418682
3146+1027934198+1027475890+1027214127+1027172984+1027227311+1027331570
3138+1027716954+1028507083+1029302180+1029541333+1029166522+1028671210
3129+1028584848+1029034940+1029687373+1030055688+1029929074+1029544581
3121+1029348355+1029549294+1029883408+1029916527+1029554835+1029068631
3112+1028652932+1028249269+1027826117+1027612822+1027871974+1028457788
3104+1028849349+1028793048+1028611788+1028609878+1028614973+1028458616
3095+1028391232+1028606184+1028825020+1028712417+1028352127+1028095714
3087+1028145519+1028334167+1028218443+1027489392+1026343558+1025279438
3078+1024499244+1023749430+1022870900+1022214964+1022215091+1022747406
3070+1023288001+1023577660+1023796751+1024269962+1025238485+1026652897
3061+1028097306+1029255050+1030283887+1031260180+1031698426+1031328837
3053+1030815947+1030940141+1031545189+1031937197+1031942865+1032024451
3044+1032489829+1033020360+1033128568+1032862602+1032672872+1032669369
3036+1032572370+1032328376+1032115399+1031828734+1031190058+1030234973
3027+1029189132+1028070811+1026753017+1025228359+1023617848+1021909255
3019+1019668603+1016197792+1011192324+1004901860+997326466+987774984+975709878
3009+961560412+946347080+931090949+916912632+905014073+895986818+889356190
2999+883995846+878796061+873025239+866513456+859693607+853362893+848436463
2989+846086201+848029680+856171909+871247862+891511245+913124394+932304740
2979+947219305+958140616+966338127+972822078+977704626+980525361+981060478
2969+979685617+977148173+974217128+971435817+969108611+967505361+966818917
2959+966784079+966621290+965512459+962943425+958550902+951855248+942263833
2949+929340322+913067456+893985637+873469854+854065895+839099550+831289971
2939+831448493+838362092+849711140+863051306+876232440+887529072+896021720
2929+901996793+906680121+911365105+916640934+922280556+927740638+932599303
2919+936382510+938263127+937369630+933306700+926046567+915438480+901277996
2910+884246654+866986858+853960871+849441798+854953724+868398531+885563430
2900+902561017+917319288+929512474+939646012+948230946+955459998+961332022
2890+965973251+969756458+973065817+976025522+978523798+980434285+981770359
2880+982662200+983219545+983471882+983473792+983423987+983675369+984632874
2870+986479544+988896107+991211276+992957318+994186776+995252552+996431122
2860+997718856+998831699+999414647+999364651+998954810+998557134+998221492
2850+997618290+996389915+994393511+991566726+987752566+982769580+976694769
2840+970269539+965003454+962493715+963411095+967196276+972650945+978628503
2830+984322325+989342123+993708405+997649498+1001275329+1004458010+1007055577
2820+1009126434+1010834390+1012332553+1013843836+1015575866+1017414130
2812+1018981587+1020117230+1021070022+1022177260+1023510022+1024817308
2803+1025717110+1025984733+1025735198+1025367265+1025327268+1025830605
2795+1026728241+1027655430+1028306207+1028585930+1028638792+1028776425
2786+1029255623+1030053395+1030893648+1031511498+1031878029+1032154441
2778+1032453589+1032740573+1032979599+1033207989+1033428545+1033579170
2769+1033614645+1033545415+1033501406+1033749603+1034411971+1035188025
2761+1035626207+1035639009+1035494116+1035385717+1035257574+1035009186
2752+1034689020+1034428276+1034239946+1033964045+1033477458+1032933679
2744+1032651281+1032701978+1032761463+1032536194+1032225646+1032300162
2735+1032870818+1033549045+1033945957+1034003277+1033775269+1033255055
2727+1032563517+1031984454+1031659193+1031521369+1031570538+1031885545
2718+1032350413+1032694844+1032801269+1032746688+1032642619+1032614214
2710+1032793308+1033185889+1033635663+1033963535+1034092506+1034065756
2701+1033986272+1033919908+1033868383+1033875580+1034083971+1034559794
2693+1035131469+1035590669+1036010636+1036589253+1037210224+1037525931
2684+1037507589+1037522619+1037798394+1038181931+1038489550+1038754752
2676+1039051035+1039344961+1039589209+1039760470+1039800403+1039697290
2667+1039571822+1039521253+1039472913+1039343560+1039189750+1039073772
2659+1038962061+1038873469+1038980722+1039462213+1040285715+1041128325
2650+1041580264+1041561858+1041465750+1041721335+1042298679+1042779214
2642+1042824243+1042477773+1042057042+1041811456+1041709617+1041580009
2633+1041422251+1041465432+1041876355+1042527196+1043150905+1043600169
2625+1043776334+1043468651+1042619928+1041681084+1041266148+1041442950
2616+1041756301+1041916925+1042002524+1042026152+1041874636+1041710954
2608+1041886482+1042367017+1042727754+1042780743+1042784119+1042968626
2599+1043221982+1043374454+1043534888+1043924157+1044477935+1044880451
2591+1045002161+1045042923+1045168518+1045247429+1045115274+1044944905
2582+1045142915+1045835090+1046651459+1047165878+1047343634+1047324082
2574+1047083209+1046696487+1046561339+1046861061+1047212944+1047377835
2565+1047800032+1048800781+1049727333+1049661860+1048658181+1047562662
2557+1046899019+1046566943+1046363393+1046235504+1046168121+1046158631
2548+1046173344+1046050105+1045698731+1045375190+1045434039+1045852987
2540+1046316326+1046672859+1047007164+1047363442+1047653737+1047770225
2531+1047689340+1047516232+1047385669+1047308350+1047311025+1047613677
2523+1048248468+1048676460+1048384508+1047702269+1047413884+1047723987
2514+1048167837+1048412213+1048675122+1049357744+1050496445+1051645654
2506+1052315029+1052479220+1052451324+1052285541+1051707114+1050772028
2497+1050131378+1050340024+1051228489+1052155232+1052563799+1052242168
2489+1051467452+1050935582+1051199256+1052226373+1053599450+1054781396
2480+1055178244+1054568738+1053536971+1052869316+1052585772+1052169180
2472+1051574768+1051326571+1051633299+1051957031+1051623236+1050661719
2463+1049860826+1049904580+1050575037+1051044746+1050866352+1050299836
2455+1049734594+1049314181+1049150563+1049379271+1049898148+1050416260
2446+1050763430+1050909215+1050859346+1050755533+1050805083+1050946028
2438+1050881064+1050530646+1050168891+1050066415+1050257610+1050654776
2429+1051148687+1051551139+1051665971+1051518212+1051338290+1051196772
2421+1050940741+1050630702+1050603061+1050916667+1051223203+1051332685
2412+1051382235+1051461401+1051598269+1051958050+1052585199+1053206042
2404+1053532067+1053435578+1052835052+1051845702+1050909279+1050427788
2395+1050457849+1050863996+1051464331+1052037407+1052449731+1052620928
2387+1052280191+1051209319+1049828790+1048982041+1048967647+1049246670
2378+1049228073+1048932300+1048728685+1048765052+1048819633+1048544114
2370+1047817228+1046789665+1045483907+1043782512+1042192955+1041774516
2361+1042666803+1043693538+1043998928+1043966064+1044140955+1044361702
2353+1044218210+1043691563+1043162433+1043039704+1043453366+1044167959
2344+1044806763+1045252524+1045596956+1045759427+1045607273+1045383469
2336+1045661155+1046731262+1048158284+1049137761+1049230875+1048579015
2327+1047578966+1046654453+1046146658+1046126468+1046418484+1046933093
2319+1047692460+1048472654+1048829378+1048560100+1047871109+1047093144
2310+1046490962+1046343649+1046888829+1047994157+1049046049+1049423280
2302+1049104707+1048696586+1048831925+1049573715+1050335120+1050367984
2293+1049472321+1048264645+1047577629+1047650935+1048159239+1048863897
2285+1049730900+1050503132+1050819477+1050794702+1050882466+1051146203
2276+1051214287+1050910871+1050435048+1049990625+1049618488+1049332141
2268+1049182853+1049243422+1049580147+1050039538+1050058708+1049091077
2259+1047380001+1045827766+1044918665+1044420041+1044270308+1044730272
2251+1045528171+1046166274+1047130976+1049251256+1051831754+1053067518
2242+1052532273+1051746092+1051896972+1052287515+1051701191+1050355373
2234+1049487416+1049614157+1050217677+1050604271+1050299072+1049405702
2225+1049011083+1050113991+1052077340+1053266419+1052881863+1051260461
2217+1049217883+1047872574+1048241908+1050413585+1053351826+1055609739
2208+1056461774+1056593866+1057182992+1058183423+1058408628+1057305466
2200+1055688013+1054764710+1054985902+1055733933+1055981430+1055269829
2191+1053945092+1052726207+1052194974+1052284904+1052372094+1052500683
2183+1053916050+1057374633+1061712191+1065022123+1066300304+1065292803
2174+1062089295+1057833641+1054690830+1053945984+1054763181+1055643112
2166+1056356496+1057646586+1060298162+1064966140+1070699895+1073741823
2157+1071568617+1066860514+1063558352+1062574544+1062743576+1062894646
2149+1062567857+1062017645+1061534944+1060753222+1059303399+1057391638
2140+1054985329+1051844492+1049060761+1048789572+1051554961+1055272313
2132+1057589584+1057924399+1056971352+1055447904+1053635817+1051710044
2123+1050331107+1050413267+1051785006+1052818429+1052389227+1051444014
2115+1051429684+1052037980+1051822965+1050389319+1048725501+1047798057
2106+1047695709+1047892509+1047918940+1047804999+1047766850+1047572343
2098+1046858131+1046046857+1045995523+1046670884+1047235808+1047442416
2089+1047775384+1048203312+1047987342+1046901885+1045624278+1044781797
2081+1044463860+1044635502+1045171766+1045582371+1045521802+1045385125
2072+1045619948+1045856362+1045580906+1045246474+1045839548+1047537250
2064+1049339338+1049986357+1048959368+1046685979+1044259799+1043156128
2055+1044431442+1047151866+1048246621+1045602688+1041150807+1039382792
2047+1042491785+1048307189+1053400358+1056623800+1058832671+1060102126
2038+1058972979+1055224164+1051578653+1050745343+1052108166+1053266801
2030+1053299283+1052699393+1052046387+1052213508+1054034257+1056675133
2021+1057801223+1056230136+1053301767+1051140471+1050758908+1052130457
2013+1054451167+1056113967+1056207527+1055876342+1056444005+1057167834
2004+1056739141+1055518854+1054654846+1054576126+1055077105+1055509747
1996+1054913679+1053187954+1051775644+1052067214+1053430101+1053939742
1987+1052507689+1049385258+1045487283+1041968386+1039982427+1040381695
1979+1043548071+1048722698+1053305461+1054798847+1053740841+1052472660
1970+1051588207+1050039984+1048108160+1047564955+1048874534+1050774640
1962+1052610929+1055018639+1058115466+1060305295+1059511408+1055278746
1953+1049556136+1045535496+1045426651+1048741996+1052706972+1054861390
1945+1055022014+1054348182+1053581044+1053017712+1053049239+1053692182
1936+1054291689+1054236025+1053575376+1052750472+1052134087+1051878248
1928+1051786408+1051415290+1050662101+1050047754+1049980052+1050075395
1919+1049866494+1049650205+1049904071+1050275507+1050071000+1049382710
1911+1049026942+1049353413+1049605878+1049026178+1047955688+1047074101
1902+1046296901+1045221189+1044056885+1043355921+1043272170+1043553740
1894+1043879447+1044065802+1044144331+1044247380+1044550477+1045385571
1885+1046819981+1047972566+1047617243+1045805220+1043928679+1043029577
1877+1042956653+1043103011+1043211155+1043436233+1043997654+1044736322
1868+1045072283+1044853001+1044731609+1045168964+1045911644+1046442304
1860+1046522297+1046303907+1046128889+1046303907+1046881569+1047537377
1851+1047799331+1047517697+1047054166+1046946277+1047403757+1048077144
1843+1048351708+1048060967+1047516232+1047009648+1046599552+1046141754
1834+1045527917+1044841346+1044226999+1043887344+1044175411+1045232143
1826+1046641078+1047687238+1047942823+1047574635+1047044995+1046793868
1817+1046975701+1047267653+1047253450+1046910802+1046440711+1045888907
1809+1045253862+1044751480+1044595378+1044691421+1044777784+1044735112
1800+1044611555+1044447874+1044226681+1043896579+1043375219+1042678522
1792+1042028127+1041588671+1041276593+1041025339+1040797077+1040457740
1783+1039999050+1039679839+1039674171+1039873136+1040161776+1040535314
1775+1040876625+1040872230+1040312656+1039564944+1039261846+1039541633
1766+1040006374+1040242407+1040217950+1040122289+1040017138+1039812440
1758+1039504375+1039220894+1039073008+1038998236+1038706985+1037822023
1749+1036413407+1035104528+1034047796+1032709429+1030751430+1028367731
1741+1025749783+1022918540+1020168054+1017831167+1015861258+1014279916
1732+1013628502+1014240238+1015936156+1018281259+1020713871+1022958727
1724+1024962966+1026473739+1027244761+1027445319+1027602440+1028184815
1715+1029027425+1029752145+1030415532+1031170250+1031907900+1032424229
1707+1032848081+1033606429+1034726023+1035760337+1036456907+1036882096
1698+1037105391+1037181372+1037300981+1037528734+1037680250+1037660634
1690+1037554655+1037427277+1037231942+1037068451+1037443135+1038523624
1681+1039510107+1039927909+1039874474+1039595833+1039314836+1039047723
1673+1038606930+1038028631+1037816036+1038363063+1039112113+1039390817
1664+1039273629+1039208156+1039379799+1039467499+1039176121+1038566933
1656+1037933288+1037770371+1038392106+1038816340+1038408665+1037839346
1647+1037960738+1039057531+1040101144+1040276226+1039826898+1039267833
1639+1038877036+1038636099+1038527063+1038658327+1038880857+1038944929
1630+1038830670+1038651830+1038525280+1038532031+1038759083+1039234778
1622+1039706207+1039796072+1039425273+1038903148+1038743034+1038937668
1613+1038939005+1038616292+1038325932+1038373890+1038588460+1038553685
1605+1038182058+1037768460+1037581150+1037566183+1037506570+1037377981
1596+1037396133+1037721075+1038181358+1038405417+1038257212+1037998187
1588+1037947045+1038107096+1038264536+1038312048+1038298928+1038240016
1579+1038039776+1037674964+1037495042+1037914181+1038460253+1038446050
1571+1037954560+1037713496+1038140151+1038687560+1038803093+1038419174
1562+1037610893+1036462766+1035533603+1035944399+1036983362+1037401546
1554+1037384796+1037350404+1037424984+1037501729+1037368937+1036833884
1545+1035883958+1034727233+1033575158+1032683635+1032892409+1034159889
1537+1035031158+1034909958+1034230329+1033869466+1034117982+1034445854
1528+1034492920+1034273001+1033799662+1032922279+1031666326+1030551891
1520+1029992763+1029717562+1029561395+1029627760+1029709537+1029468154
1511+1028783495+1027586773+1025947220+1024875520+1025561326+1026686843
1503+1027012168+1026619078+1025847419+1025016337+1024267542+1023445250
1494+1022404885+1021108299+1019464288+1017587492+1016040288+1015096795
1486+1014297176+1013161787+1011514782+1009506086+1007463953+1005371250
1477+1002755532+999199695+994497070+988582373+982211407+976538921+971452122
1468+966059805+959812205+953241318+947824353+944136935+941343332+938435279
1458+935139168+931886938+928346833+923694203+917802563+911190723+904568885
1448+897980101+890316625+880511596+869407752+860118670+855807096+857099734
1438+862452755+869044277+873431640+874351059+872588713+868812384+863427073
1428+857134572+850605784+844302837+839076877+836106982+836445491+841403383
1418+851308913+863575851+875803620+887699123+899372922+910435432+920247976
1408+928469053+935414751+941653053+947144470+951427001+954563698+956992362
1398+958648665+958869667+957095666+952956627+945632996+932770054+909637597
1388+872463181+828197537+794191791+777291203+765024584+739246601+694027847
1378+642362082+603347428+586317487+589311584+606946510+636044742+674572109
1368+718087493+759865242+795533916+824334655+846293892+863209192+880124429
1358+900418764+922218204+940892157+953439328+960105239+962440661+961487297
1349+957934135+952709066+947079571+942256254+938360189+933541713+924654574
1339+910556888+895632897+887603971+891429404+905920053+924981237+942144925
1329+954243914+961167003+963737439+963059084+961259480+961277950+965063896
1319+972095766+979983301+986549921+991104724+994130219+996370681+998102520
1309+999062891+998941945+997713378+995465847+992105728+987453608+981726923
1299+975875406+971369262+969565645+970976618+974857397+979529197+983208081
1289+984621027+983216997+979246544+973680928+967836163+962928840+959751636
1279+958560010+959195820+961238463+964100786+967268755+970509011+973685068
1269+976432687+978194588+978551757+977417069+974844659+970630275+964253513
1259+955294660+943606849+928845775+910036164+885738321+854705272+816873774
1249+774434102+732165754+696319833+672357441+662737175+666116529+678567847
1239+695929291+715573231+736519108+758252821+779595418+798570047+813027515
1230+821227701+821951338+814368174+798176511+774247938+745465223+717015539
1220+695282717+685229746+687891066+700106225+716464817+731547204+741257909
1210+743244377+736721512+722388685+702952372+683352122+669245456+664033634
1200+666633558+671910597+673657149+668416667+658097666+649555404+650738560
1190+665898202+693574252+728339557+764098605+796519889+823613629+844941386
1180+860742888+871603822+878176046+880750494+879251376+873712892+864619082
1170+852942798+840009734+826968653+813995846+800045091+783388306+762210473
1160+734809050+699965917+658035378+612083433+567764226+531588236+508591787
1150+500728358+506786419+523724743+548276197+577645555+609272888+640430513
1140+668272029+690627922+707288338+720586533+734187889+750764744+770554979
1130+791761918+811969827+829345855+843097709+853313406+860514116+865158084
1120+867299764+866572687+862410974+854267663+841719919+824387326+801707127
1111+773216618+739901200+705560830+676053521+655961272+645174664+638507224
1101+628670988+609996080+580338911+540850855+494699881+445646809+397005298
1091+351459850+311578130+279758582+256873208+241174436+229652392+221152500
1081+217900828+223635650+240435641+267468238+302146225+341667049+383553580
1071+425504532+465049144+499068297+523726877+535815707+535174993+526049879
1061+515953440+512889190+522423093+545630226+578966725+616593844+653642919
1051+687813238+718638150+746088104+769991010+790225032+806930094+820423751
1041+831096100+839422455+845857811+850638010+853852600+855661120+856143248
1031+854903345+850983716+842947084+828443697+803636020+764539399+711787731
1021+655869178+615696717+607568818+633216619+679130351+726978708+763521771
1011+782379722+780304407+754418598+704299718+637644235+572729570+531666191
1001+528241842+561067871+616910189+679182767+734741412+776733667+804373924
992+820614055+828723356+829517243+821093953+801668595+773368517+742653914
982+715561385+692800045+671475345+651761346+639514025+641184849+657530322
972+683053101+710257214+733475970+749615853+756830193+753129527+735993862
962+703005807+653327020+589755562+520247499+457133967+413211131+396288284
952+405909473+434955130+474529740+517909752+561417525+603367363+642949042
942+679766479+713676437+744421101+771288743+793291480+809425185+818315126
932+817669381+804363161+775696169+732535279+683127618+642418320+623735769
922+629021343+646929177+659722507+652473138+619812509+569092848+518029679
912+485755836+482436923+505550337+544607185+588493559+629674030+664437170
902+691160174+708317812+713460721+704781082+685511826+666770426+662887864
892+681099178+716183629+756074902+791187440+817625308+834482587+840939470
882+835145783+813924005+773658749+713789485+641964597+575468018+533817520
873+526782561+549117596+586362898+624617292+655694733+676431772+686019111
863+684111999+670032655+642980377+603926109+558898551+520060125+500846725
853+507991834+538034769+581081655+627095697+669506518+705425745+734344692
843+756829174+773814978+786379409+795564996+802182249+806699029+809124253
833+809030248+806019846+800127123+791409461+779397344+763650615+744992648
823+725794087+709055206+697412550+692563503+694877335+703307630+715820791
813+730081268+744073612+756593970+767437325+777043070+785823911+793761443
803+800617403+806453762+811602276+815904041+818467917+818660895+816816772
793+813409332+808100512+800176355+789590050+777409028+765639886+756620210
783+752207307+753418995+760491499+772622014+787682046+802869392+816007472
773+826221004+833509160+837876079+838902814+835990049+828728770+816950201
764+800725866+780713228+758769404+738251010+723060798+715474258+714706356
754+717812164+721821978+724971731+726488874+725943247+723187412+718840109
744+714177162+710036531+706261922+702662267+700015914+699604290+702035501
734+706911616+713477089+721186804+729645951+738522964+747788162+757639939
724+767956329+778103942+787364109+795380361+802342109+808816889+815179958
714+821304128+827020241+832458669+837586038+842015564+845672858+848986420
704+852030640+853951891+853336653+848501235+837295934+818032091+792616246
694+768777475+756621229+761229021+779134116+802116267+823382755+840297418
684+853178958+863061242+870624217+876394530+880986336+884693944+886962556
674+886598572+882791991+875153735+862042596+842487820+824947091+820781939
664+828900540+843274829+858966849+871970736+879335255+878339409+865742816
654+839053630+799827019+757220799+726328377+719029585+735228890+764233435
645+794280638+819292502+838386549+852180820+860577487+862956919+858585732
635+845703428+821397178+785506739+746135743+718603567+715508650+737241790
625+772682456+808672569+837947093+859626543+875836675+888827697+899764166
615+909003188+916673606+922608874+926477361+928618340+930319991+932913418
605+936778339+941147806+944764975+947012888+948449718+950018322+952005172
595+954020811+955469360+955840541+955258294+954819666+955604063+957471433
585+959425993+960937085+962272458+963652159+964724623+964951038+964202180
575+962969410+961862490+960731305+958319073+952783965+942689978+927594471
565+908051797+886375978+867924428+859578903+864723532+880072076+898507640
555+914784328+927884640+938486422+946057676+949607717+950254672+950838003
545+952798868+955249504+957082546+958143163+958373018+957544293+955907988
535+953943301+951603102+948478761+944328703+938783086+930494053+917055487
526+896501109+868702648+833994600+791633775+742086506+691211189+650726141
516+631825645+638068660+664965982+703936562+746446292+786731675+821832558
506+850630877+873324834+889961748+899832377+903763088+904606780+904132613
496+901856422+897314739+892171639+889595980+891818991+898377841+906531279
486+912851613+915025392+913309921+909737461+905041205+897159210+883620142
476+864460113+841582541+818020563+800100182+795509650+806737179+829567239
466+856624994+881880470+902546050+918052925+930042114+941887620+954648851
456+964868688+970175279+972531082+974149235+974762691+973454067+971125141
446+970082038+971817125+975634342+979385195+981563178+982257327+981943848
436+980757572+979083626+977060727+973410822+966888594+958528929+950072967
426+941228882+931335707+922470414+917615189+917556658+921476161+926561559
416+928353075+925081229+918395637+912000851+909137636+909948146+912853460
407+917374953+923906034+931891906+939387498+943715503+942710868+938843527
397+940317552+949436329+959654574+965421702+964832003+956632517+940430919
387+920235812+905182022+903510942+914627779+931532826+947972112+959574325
377+962530145+955124100+943782695
##END=
