##TITLE=X8806
##JCAMP-DX=4.24
##DATA TYPE=INFRARED SPECTRUM
##DATE=2/11/2018
##SAMPLING PROCEDURE=ATR platinum Diamond 1 Refl
##ORIGIN=ComPlat
##XUNITS=1/CM
##YUNITS=TRANSMITTANCE
##RESOLUTION=4
##FIRSTX=3997.453
##LASTX=373.96442
##DELTAX=-1.4165319
##MAXY=0.98957771
##MINY=0.47167465
##XFACTOR=1
##YFACTOR=9.2161606e-010
##NPOINTS=2559
##FIRSTY=0.98558223
##XYDATA=(X++(Y..Y))
3997+1069406527+1068243106+1066997807+1066677735+1067781333+1069527403
3989+1070685974+1070934064+1070807173+1070644971+1070327421+1069883369
3980+1069652935+1069739405+1069785388+1069440675+1068808486+1068354669
3972+1068480524+1069129334+1069733067+1069726923+1069176094+1068628434
3963+1068384354+1068313989+1068326859+1068550566+1068965256+1069275304
3955+1069187218+1068574237+1067490429+1066320346+1065803083+1066406686
3946+1067677337+1068727579+1069144791+1069084451+1068817153+1068470370
3938+1068122295+1067880996+1067802223+1067810436+1067791099+1067812118
3929+1068114792+1068794840+1069691222+1070457545+1070613539+1069859634
3921+1068448769+1067058730+1066372991+1066673079+1067621588+1068602564
3912+1069327754+1069956515+1070654672+1071215784+1071257434+1070611599
3904+1069475987+1068290253+1067401761+1066924143+1066856882+1067066297
3895+1067291298+1067357524+1067412174+1067883453+1068882021+1069907493
3887+1070358917+1069955481+1069013050+1068117961+1067600634+1067810178
3878+1068866434+1070036000+1070289069+1069218455+1067495280+1066233424
3870+1066018771+1066729668+1067737484+1068348654+1068205983+1067717306
3861+1067778940+1068563242+1069425541+1069778274+1069435889+1068399876
3853+1067149920+1066764722+1067283925+1068062601+1068867792+1069713729
3844+1070322765+1070064262+1068774532+1067270925+1066548904+1066689376
3836+1067026587+1067380613+1068164915+1069490021+1070765523+1071271080
3827+1070816292+1069766309+1068639170+1067650368+1066756573+1066124837
3819+1066107763+1066727146+1067732245+1068757782+1069593823+1070276652
3810+1070761319+1070857490+1070506116+1069968998+1069520806+1069141364
3802+1068797492+1068651781+1068784945+1069104435+1069574615+1070040527
3793+1070254081+1070275359+1070441441+1070867320+1071253812+1071315899
3785+1071117609+1070858072+1070602286+1070387245+1070359629+1070665149
3776+1071247862+1071838530+1072133767+1072014638+1071638558+1071313636
3768+1071268235+1071524085+1071858838+1071900488+1071546398+1071176527
3759+1071245081+1071540577+1071243141+1070007673+1068286955+1067096176
3751+1067697645+1070000494+1072090888+1072791114+1072170244+1071040453
3742+1070366808+1069985489+1069170079+1067656512+1065953774+1065207823
3734+1066129493+1068088599+1069962142+1071115733+1071532234+1071678333
3725+1072029901+1072350749+1072048139+1071349077+1071085272+1071365181
3717+1071438780+1070794497+1069618464+1068372131+1067544109+1067710192
3708+1069069252+1071045756+1072681751+1073249459+1072765698+1072141205
3700+1072225605+1072717709+1072904229+1072649737+1072185183+1071549373
3691+1070627703+1069545124+1068820774+1068962863+1069888737+1071035214
3683+1071831998+1072089660+1071973182+1071458182+1070122404+1068133095
3674+1067052068+1067358171+1067511254+1066824028+1066761941+1068559879
3666+1071132936+1073036811+1073741823+1073358629+1072287562+1071139339
3657+1070505016+1070387697+1070099962+1069110449+1067368389+1065152656
3649+1063618652+1064022218+1065472728+1066483001+1066870528+1067344136
3640+1068465261+1069817402+1070315327+1069471201+1068007434+1067017856
3632+1066668422+1066190222+1065257622+1064880702+1065610549+1066568824
3623+1067160980+1067364379+1067146816+1066519930+1066031965+1066161248
3615+1066454998+1066173860+1065221534+1064056884+1062969260+1062053217
3606+1061465006+1061116413+1060690082+1060232966+1060227921+1060816778
3598+1061389079+1061351504+1060766462+1060061386+1059395113+1058433087
3589+1056670654+1054089513+1051728328+1050656356+1050618715+1050801743
3581+1050708289+1050307439+1049862805+1049449020+1048824592+1048006272
3572+1047435653+1047191314+1046571931+1044957731+1043129395+1042672085
3564+1043430388+1043938791+1043538782+1042724277+1042120480+1041549926
3555+1040380231+1038518653+1036630106+1035276155+1034199332+1032962246
3547+1031838082+1031501324+1031947058+1032371902+1032116116+1031103320
3538+1029695431+1028424456+1027576644+1026932555+1026153427+1025282074
3530+1024586181+1023997388+1022975409+1021099150+1018656734+1016535425
3521+1015514287+1015571911+1015938549+1015838757+1015122103+1014111248
3513+1013016510+1011813444+1010557215+1009478387+1008725904+1008222934
3504+1007775519+1007222362+1006535847+1005812791+1005197029+1004846884
3496+1004818880+1004885624+1004674140+1004058507+1003226799+1002390370
3488+1001660911+1001127479+1000789816+1000547741+1000462824+1000731739
3479+1001212849+1001430283+1001205541+1000800293+1000378360+999796487+999026349
3469+998363440+998147493+998488713+999169343+999685571+999614559+999126788
3459+998849013+999019752+999138752+998690884+997852450+997135862+996710953
3449+996447212+996274080+996151005+995969853+995712774+995484604+995386364
3439+995543134+996051601+996637677+996648284+995750285+994495091+993882239
3429+994453958+995996499+997892419+999450223+1000068830+999542318+998343197
3420+997342625+997055924+997329237+997800064+998327740+998801671+998870226
3410+998315258+997587610+997460913+998107913+998899588+999193014+998948352
3400+998480435+998038194+997851415+998178472+998994206+999880046+1000427512
3390+1000546060+1000386638+1000316984+1000890384+1002307199+1003925214
3381+1004737003+1004313323+1003101331+1001984540+1001665438+1002246276
3373+1003248853+1004032056+1004263847+1004141420+1004188955+1004714108
3364+1005512057+1006206074+1006620182+1006715447+1006564433+1006502281
3356+1006882888+1007618879+1008250873+1008408807+1008057757+1007535061
3347+1007433523+1008120749+1009253645+1009994098+1009842178+1009186642
3339+1008862302+1009160449+1009587363+1009712313+1009743162+1009996103
3330+1010389256+1010805369+1011438269+1012429787+1013528729+1014391675
3322+1014989910+1015501352+1015958080+1016253447+1016436021+1016673893
3313+1016890551+1016758228+1016146088+1015319295+1014690016+1014559180
3305+1015000257+1015786241+1016513695+1016941126+1017133790+1017271416
3296+1017471712+1017768242+1018087861+1018338861+1018638108+1019243393
3288+1020131303+1020947489+1021506661+1021977553+1022482657+1022904979
3279+1023133860+1023128686+1022773949+1021991264+1021000134+1020331598
3271+1020530277+1021673520+1023103334+1023932391+1023961235+1023845145
3262+1024272576+1025242428+1026203355+1026692679+1026756771+1026853136
3254+1027454410+1028615633+1029737469+1029966350+1029193043+1028413332
3245+1028633742+1029717291+1030812158+1031472738+1031753036+1031691013
3237+1031378832+1031185456+1031378314+1031759180+1032033268+1032299337
3228+1032883085+1033818919+1034723062+1035174875+1035136394+1034977037
3220+1035077088+1035451421+1035842893+1036070740+1036134767+1036114395
3211+1036154752+1036457685+1037094918+1037850441+1038358908+1038442661
3203+1038315382+1038429209+1039053313+1039993674+1040811477+1041334238
3194+1041820587+1042535494+1043317468+1043724720+1043589357+1043276594
3186+1043317209+1043846307+1044495117+1044795076+1044565677+1043997515
3177+1043551976+1043645559+1044206348+1044751679+1045044459+1045321393
3169+1045761177+1046194687+1046451960+1046565010+1046599158+1046596377
3160+1046646047+1046861024+1047337736+1048046434+1048692011+1048918952
3152+1048715552+1048400007+1048294783+1048588791+1049281515+1050075065
3143+1050510774+1050334861+1049681330+1048971920+1048678106+1049002058
3135+1049679971+1050175181+1050128551+1049598482+1048898515+1048382222
3126+1048390242+1049044937+1049921982+1050329493+1050123765+1049812941
3118+1049754023+1049837259+1049961562+1050122407+1050053205+1049481293
3109+1048656052+1048031042+1047660265+1047440438+1047594169+1048314961
3101+1049228288+1049715801+1049577269+1049023077+1048247377+1047313031
3092+1046342467+1045546847+1044932249+1044097566+1042631211+1040713949
3084+1038954297+1037610435+1036373738+1034865410+1032983266+1030854907
3075+1028716848+1026700246+1024601897+1022016810+1018681828+1014537321
3067+1009590402+1003865520+997456063+990673372+984145044+978516137+974016376
3057+970607988+968533698+968276360+969871610+972668892+975894639+979153177
3047+982338697+985382258+988217310+990827555+993232589+995403567+997137220
3037+998137533+998379608+998163144+997597182+996365270+994219385+991279303
3027+987654904+983209921+977818240+971520733+964460396+956947535+949454917
3017+942332364+935675399+929618092+924583993+921106922+919509473+919775413
3007+921575680+924367206+927618241+930994873+934332830+937612387+941007192
2997+944665609+948332822+951447201+953690227+955249065+956555999+957877354
2987+959082684+959802313+959902687+959682407+959472281+959199680+958480052
2978+957048815+955026199+952771338+950506840+948165510+945595299+942736059
2968+939509794+935696741+931097705+925816163+920236409+914653551+909081817
2958+903512928+898142201+893198258+888782249+884925347+881530348+878267930
2948+874870343+871524366+868725338+866770565+865574871+864932270+864732427
2938+864840950+865015828+865157206+865408788+865779047+865978825+865859696
2928+865608113+865332279+864915002+864428329+864271624+864773171+865954314
2918+867716682+870038157+872951787+876413983+880166954+883702749+886472415
2908+888264404+889350799+890109037+890526249+890232435+888953247+886719987
2898+883690849+880008890+875866194+871504123+867033271+862406230+857709083
2888+853328322+849639637+846704923+844478777+843102708+842792337+843618807
2878+845528243+848405398+852085869+856483057+861667459+867659186+874199673
2868+880873453+887434636+893906051+900397579+906942141+913471245+919811889
2859+925692054+930856859+935222487+938917897+942220154+945388795+948478986
2849+951324191+953673993+955279397+955901044+955334694+953452614+950374905
2839+946701549+943308554+940691518+938735775+937248983+936425165+936710054
2829+938517500+942068882+947158794+953082161+959114439+965048478+970994869
2819+976785136+981956862+986302764+990052048+993468196+996602559+999481266
2809+1002206825+1004782598+1007069796+1009018684+1010791982+1012571811
2800+1014321633+1015824852+1016977279+1017986064+1019184992+1020621726
2792+1021967658+1022969394+1023798192+1024700395+1025506298+1025871060
2783+1025885806+1026049819+1026690933+1027697261+1028766970+1029687411
2775+1030374185+1030794243+1030977917+1031126926+1031548213+1032305287
2766+1033071481+1033535582+1033813163+1034194805+1034634911+1034821431
2758+1034691049+1034528135+1034536090+1034593714+1034481569+1034169323
2749+1033871952+1033884757+1034276876+1034765424+1035060531+1035222928
2741+1035464098+1035792189+1036162060+1036725371+1037574865+1038419637
2732+1038821198+1038672836+1038279553+1038045110+1038142767+1038415563
2724+1038584426+1038580417+1038584879+1038688940+1038711382+1038518912
2715+1038322626+1038394932+1038662682+1038865953+1038948929+1039021235
2707+1039099555+1039144762+1039204909+1039328437+1039455845+1039513211
2698+1039513663+1039505320+1039488764+1039419174+1039251927+1038975510
2690+1038617992+1038244500+1037939109+1037765265+1037739913+1037873529
2681+1038195865+1038690880+1039212864+1039543866+1039592501+1039502992
2673+1039496783+1039628977+1039812005+1040041598+1040416513+1040917025
2664+1041348013+1041553418+1041566612+1041526772+1041564477+1041755007
2656+1042039832+1042207596+1042129923+1041983630+1042023340+1042196472
2647+1042268325+1042260823+1042431692+1042833576+1043215929+1043405812
2639+1043538459+1043823930+1044266495+1044718243+1045089860+1045368540
2630+1045525052+1045570776+1045653106+1045937025+1046404101+1046882948
2622+1047272092+1047615123+1047943538+1048201975+1048408803+1048693369
2614+1049038858+1049206169+1049070677+1048837592+1048772336+1048883252
2605+1049018550+1049200413+1049676544+1050537743+1051439429+1051909997
2597+1051815767+1051363178+1050881292+1050714950+1050980825+1051365248
2588+1051508307+1051495566+1051637914+1051981786+1052371188+1052749273
2580+1053132660+1053489920+1053788649+1053994442+1053985840+1053697912
2571+1053364517+1053320150+1053503889+1053546962+1053450921+1053680191
2563+1054345687+1054780038+1054350537+1053380491+1052807415+1053047743
2554+1053684265+1054261029+1054779520+1055180564+1055043973+1054303649
2546+1053653998+1053688469+1054113701+1054320658+1054295953+1054451235
2537+1054862821+1055185932+1055183992+1054936161+1054617124+1054407451
2529+1054480274+1054724547+1054677788+1054103806+1053405844+1053100841
2520+1053164739+1053255024+1053266212+1053273585+1053217448+1053040629
2512+1052936116+1053102522+1053402675+1053536356+1053452603+1053375576
2503+1053459717+1053545087+1053334831+1052880238+1052723338+1053287037
2495+1054283276+1055075663+1055446181+1055639750+1055878397+1056137611
2486+1056178097+1055712767+1054851244+1054252686+1054434226+1055138914
2478+1055781451+1056198598+1056533028+1056675052+1056271486+1055255715
2469+1054170420+1053815360+1054426982+1055285271+1055460085+1054908157
2461+1054411266+1054447613+1054671321+1054604836+1054282565+1054006924
2452+1053967926+1054296664+1055005492+1055660640+1055600299+1054776804
2444+1054000651+1054057435+1054865343+1055709339+1056015442+1055706817
2435+1055132899+1054846135+1055108129+1055467329+1055239676+1054502845
2427+1054073086+1054362049+1054874074+1055059171+1055041644+1055106189
2418+1054970180+1054178052+1052992576+1052226254+1052199155+1052505516
2410+1052823712+1053261944+1053805594+1054141382+1054216791+1054319559
2401+1054457896+1054302808+1053909525+1053850866+1054362567+1054891989
2393+1054805907+1054174236+1053592234+1053482159+1053775520+1054153799
2384+1054440111+1054709220+1055079285+1055512342+1055852075+1056011949
2376+1056206747+1056960523+1058540899+1060315878+1061199519+1060927177
2367+1060403253+1060586409+1061358036+1061742005+1061237289+1060487523
2359+1060144104+1059682719+1058273730+1056209981+1054543460+1053800420
2350+1053736069+1053975945+1054390829+1054970438+1055489189+1055499731
2342+1054892053+1054119586+1053738333+1054029625+1054910938+1055902327
2333+1056399993+1056228349+1055669435+1054862174+1053697653+1052464513
2325+1051966652+1052685957+1054155610+1055500895+1056277113+1056422500
2316+1055970558+1055211155+1054580712+1054089448+1053361348+1052418335
2308+1051866601+1052111004+1052861288+1053608855+1054160784+1054438429
2299+1054144357+1053110801+1051821459+1051103512+1051262481+1051852373
2291+1052288017+1052369119+1052194757+1051911873+1051748636+1052067220
2282+1053063782+1054426465+1055594025+1056377681+1056993766+1057492403
2274+1057636044+1057398173+1057124084+1057108239+1057339384+1057695673
2265+1058194375+1058936122+1059672177+1059610737+1058314410+1056757318
2257+1056541630+1057973190+1059812067+1060817943+1060586604+1059198181
2248+1057129064+1055368701+1054918311+1056057932+1058070330+1059698499
2240+1060286581+1060512552+1061537894+1063506443+1065343380+1066003831
2231+1065466907+1064353867+1063057670+1061855961+1061401820+1061985439
2223+1062737598+1062699440+1061997339+1061057560+1059968708+1059253283
2214+1059571092+1060374473+1060560863+1060241503+1060293824+1060737811
2206+1060917993+1060715887+1060484354+1060178446+1059540630+1059091404
2197+1059834444+1061681794+1063446231+1064615344+1065579440+1066104917
2189+1065532164+1064326769+1063543113+1063196072+1062636706+1061903691
2180+1061510214+1061522308+1061776929+1062583156+1064362469+1066626966
2172+1068195247+1068599913+1068454267+1068343997+1068230624+1068014418
2163+1067802546+1067554715+1067046830+1066272617+1065671730+1065682143
2155+1066123284+1066402418+1066078983+1064913168+1062957490+1060990493
2146+1060136213+1060718733+1062017711+1063106628+1063529984+1063391905
2138+1062927481+1061919730+1060086026+1058136944+1057328325+1057687718
2129+1057758407+1056537232+1054985313+1055003422+1057119880+1059820927
2121+1061299182+1061248607+1060601220+1060089131+1059577236+1058546719
2112+1056923659+1055351886+1054646874+1055144929+1056505477+1057771859
2104+1057885233+1056728602+1055342055+1054625531+1054511058+1054760636
2095+1055489383+1056542341+1057385044+1057773670+1057907675+1058120905
2087+1058666560+1059389681+1059685953+1059301401+1058856767+1059078469
2078+1059891616+1060575480+1060556724+1060049421+1059957131+1060734125
2070+1061473673+1060787804+1058526735+1056280670+1056130367+1058595548
2061+1061728359+1062894820+1061553287+1059477832+1058377661+1058389367
2053+1058799013+1059279153+1060262781+1062202032+1064387692+1065401328
2044+1065128403+1064953589+1065682013+1066655164+1067224166+1067747315
2036+1068747175+1070017632+1070932770+1071113470+1070570854+1069748588
2027+1069572352+1070574282+1071744688+1071376564+1069426124+1067785796
2019+1067726037+1068135488+1067032214+1064292815+1061820584+1061154248
2010+1062177715+1064289775+1067108464+1069209854+1068473087+1064988449
2002+1061593708+1060869358+1063046416+1066685884+1069817078+1070727689
1993+1069266896+1067097987+1065580798+1064684093+1064845778+1067179929
1985+1070796243+1072581441+1071028876+1068203331+1066666740+1066104012
1976+1064582554+1062070291+1060405646+1060599215+1062073913+1063732673
1968+1064332848+1062770970+1059410571+1056199439+1054717498+1054862627
1959+1055419341+1055266257+1054108786+1052470527+1050971189+1049701896
1951+1048586075+1047917862+1048067453+1048964870+1050261909+1051701424
1942+1052941678+1053326100+1052371188+1050303817+1047893351+1045891948
1934+1044676916+1044250585+1044269987+1044170324+1043572995+1042604630
1925+1041842188+1041918374+1042832024+1043688632+1043614192+1042778668
1917+1042266967+1042794319+1043927603+1044705631+1044652405+1044272121
1908+1044458383+1045455786+1046739048+1047646425+1047878799+1047712393
1900+1047825896+1048657022+1049876581+1050652540+1050584373+1050174793
1891+1050140257+1050610825+1051204015+1051598786+1051640177+1051198971
1883+1050403351+1049726084+1049596025+1050101194+1050918286+1051407545
1874+1051199618+1050757441+1050850895+1051502422+1051877919+1051544395
1866+1051070916+1050965174+1051089090+1051002491+1050494412+1049854656
1857+1049567245+1049717159+1049911699+1049833508+1049527664+1049027604
1849+1048213487+1047319045+1046993411+1047339029+1047431319+1046768604
1840+1045916976+1045363949+1045040578+1044730596+1044414922+1044162822
1832+1044012326+1043977272+1044008639+1043960845+1043663280+1043065627
1823+1042383768+1041914170+1041735476+1041758176+1041851307+1041813343
1815+1041419155+1040616550+1039639907+1038878370+1038523956+1038443243
1806+1038460382+1038464068+1038245987+1037644389+1036952765+1036652742
1798+1036618077+1036267737+1035325566+1034102709+1033222754+1032865041
1789+1032509463+1031715331+1030501528+1029182889+1028085888+1027281407
1781+1026554600+1025582679+1024158233+1022245950+1019955971+1017762163
1772+1016556444+1016593438+1016896242+1016583284+1015615760+1014311220
1764+1012787241+1011087413+1009535753+1008366640+1007359988+1006302632
1755+1005201815+1003888997+1001966819+999344610+996574103+994108211+991669481
1745+988907123+985936385+983073847+980341757+977591493+974945289+972493043
1735+969981944+967397892+965255499+963440422+961373763+958945899+956269945
1725+953324172+950252865+947482746+945166639+943010989+940867432+939427787
1715+939562374+940834707+942389277+943964866+945621557+947346220+949118806
1706+950950375+952628214+953980354+955333077+957121444+959123364+961022324
1696+962773568+964018867+964493833+964273036+963521200+962552706+961441541
1686+959417890+955741558+951748453+948696678+945854448+942662848+939098338
1676+935276748+931540851+927993286+924001086+919009931+913565604+908488432
1666+903140018+895811866+885093823+871517446+856792911+841558809+826041305
1656+809563909+786938791+752800658+721453209+702830769+687379556+667341918
1646+644566110+627029676+615756730+607676548+601523653+597244624+595020095
1636+595435044+597991350+599868644+599067979+594633409+585758512+573631416
1626+562335252+556269150+558371250+568354402+582772576+600800468+626225907
1616+659652626+691732249+716607377+737527492+757857457+777787283+795819056
1606+810693312+821905140+829009585+831084070+827602084+820000554+811870573
1596+807557008+810143776+819817268+834205628+850415985+866358915+880797267
1587+893029071+902691115+909794008+914591270+917212057+917672018+916185679
1577+913646317+911843981+911652481+912780979+915897945+922127737+930207337
1567+937553145+943474637+948017472+950950893+952741070+955379513+960347321
1557+964881036+967943029+970683916+973371446+975777967+977799937+979330190
1547+980300171+980874606+981249651+981457578+981959966+983968807+986962439
1537+989203977+990534387+991688302+993177939+994620688+995517329+996005747
1527+996480713+997083023+997548935+997518732+996856405+995696476+994145139
1517+992395383+990917322+989654238+987698753+984234552+978731179+969574174
1507+955053168+942007894+938533539+941779142+948033963+955396522+962123335
1497+966377917+966958755+964046935+957976887+947763367+932423846+914608150
1487+899528101+889029951+882424208+879414924+880079579+883931824+889625081
1477+895469611+899595168+899494536+892530757+879546665+865766500+854476157
1468+846162049+841948340+843569202+849973614+857823298+865631073+874447827
1458+885926890+897465581+903922638+905405744+903903948+900581124+896411912
1448+892603839+890079869+888826745+888273135+887904751+887171218+884986852
1438+879530885+869966627+858973591+849296736+840729946+832966926+827297081
1428+825049981+826285126+830583428+837072434+844246792+851341988+858779633
1418+866512321+873727100+880648064+888088620+896123724+903886680+910093513
1408+913686221+914152521+911734876+907799136+904176290+901984357+901679354
1398+903041002+904674733+904601845+901624317+895979954+888352555+878808023
1388+867586945+856838183+849868131+847855474+849468445+852684880+855851127
1378+858196661+859938592+861759555+863909385+865742441+866419255+865535420
1368+862954731+858893201+854050731+849282378+845304988+842296352+839520477
1358+835736721+829816911+821313308+811114081+801480105+795342537+795435409
1349+803088419+817193183+834615402+851810163+866469119+878111289+887310138
1339+894627684+900350885+904748914+908075812+910460409+911935495+912532889
1329+912457996+912171296+912100866+912248970+912248905+911764561+910674157
1319+908973617+906712612+904010013+901068573+898206358+895792787+894023434
1309+892806398+891823417+890524115+888038950+883258956+875158725+863084920
1299+846738683+826085736+801576340+774380448+746148414+718520759+692904337
1289+670551885+652621910+639942691+632656125+630172835+631446526+635319725
1279+640867918+647596801+655279884+663557839+671717700+678969666+685089513
1269+690794799+697393039+706049597+717255023+730660143+745240714+759645371
1259+772586520+783260972+791589696+797964165+802690350+805737792+807049575
1249+806962718+806247876+805798197+806229250+807617155+809641905+812013503
1239+814571103+816901891+818183472+817604122+814730007+809347251+801185903
1230+789995933+775810392+759119506+741014523+723235109+707826904+696557515
1220+690624835+690657948+696587136+707409239+721296310+736156144+750244804
1210+762402232+771884612+778189039+781219665+781566318+780326516+778411388
1200+775893368+771770656+764088802+750450403+729151621+700731514+669038383
1190+640755903+623007985+620020690+631082605+651512620+675639275+699175392
1180+719856342+737019413+750917867+762159963+771401691+779131857+785510529
1170+790473422+793983736+796091722+796945354+796970513+796863800+797144874
1160+797769431+798329832+798662644+799283515+801226195+805320127+811421283
1150+818244718+824044041+827700518+829408689+830398978+831779316+833168838
1140+832154361+825435503+811430596+792560130+774903597+764724160+764439788
1130+771571202+781318745+789988496+796349512+800673167+803202957+803472454
1120+800560116+793739914+783174503+770420521+758289544+749875062+747345207
1111+751230178+760355492+772332609+784474968+794718691+802081121+806540009
1101+808560555+808668690+807412979+805568152+804131547+804012935+805683401
1091+808965803+813142712+817440885+821466844+825147057+828390266+830962289
1081+832626869+833328712+833276520+832824772+832180877+831278868+830023221
1071+828544061+827061021+825575910+823838765+821589919+818795741+815696173
1061+812618270+809782183+807411168+805934271+805790630+807044854+809370080
1051+812280607+815255290+817880862+820059343+821911349+823389798+824192662
1041+824132256+823412887+822415613+821286210+819831626+817747440+814732853
1031+810298541+803719897+794590184+783530663+772117827+762069031+754643674
1021+750485197+749356441+750129425+751766067+754317070+758387655+763755731
1011+769058550+772738374+773954764+772888159+770718604+769224956+769800685
1001+772509493+776170950+779346510+781086048+780991042+779140394+776044059
992+772455425+769344797+767981792+769428356+773729310+779946039+786887763
982+793511227+799025272+803119204+805879363+807339315+807475907+806637149
972+805526825+804783073+804844902+806038591+808494458+812052695+816312387
962+820563283+823722029+824761535+823401892+820228595+816158722+811892821
952+807638174+803194485+798737666+795794221+796806111+803026526+813009483
942+823595267+832259844+838317798+842268218+844631990+845541178+845027084
932+843302421+840771531+837983239+835589200+834087598+833397913+832800455
922+831492034+829113646+825640520+821028225+815245265+808487215+801180858
912+793887565+787210681+781633191+777446581+774809173+773710555+774020020
902+775871121+779786164+786029409+794016137+802710787+811470629+820249097
892+829088035+837662779+845393074+851850714+856881902+860468273+862811090
882+864464806+865886212+866668833+865450891+860650330+851243489+837063897
873+818717680+797382551+774698839+752692005+733353170+717953826+706955939
863+700814038+700538979+707101132+720337970+738468435+758480980+777096565
853+791808424+801503905+806557406+808511985+809415546+811083361+814665333
843+820444154+827613919+834247666+837759014+835793634+827137530+811930914
833+791013838+765541316+737571147+710315303+687096995+670229614+660724275
823+658272999+661547640+669197675+680429682+694181585+708263195+720018868
813+727626024+730491279+729004875+724562609+719560200+716560488+716963407
803+720371342+725040291+728796754+729964315+728137661+724296733+720019256
793+716616561+714991496+715821199+719359840+725062474+731674943+737754822
783+742043423+743541015+741655831+736583057+729585971+722800499+718457960
773+717795504+720359313+724226950+726705066+724671714+714836795+694980827
764+665734897+630891816+595592848+564258141+539785060+523414699+514673872
754+511790832+512531350+514877886+517357909+519120471+519908525+520159395
744+521235733+525232460+533833786+546877960+562231580+577239323+590026741
734+599778230+606857969+612957185+620422834+631026856+645303265+662582943
724+681344174+699902263+717066304+732207275+745047532+755638490+764247253
714+771024900+775956878+779098420+780567298+780412403+778773110+776050203
704+772722852+769080992+765191365+760998417+756442324+751604252+746755703
694+742251479+738515582+736101753+735372682+735970076+736965992+737749260
684+738537378+739943974+742247922+745135812+747944024+749972267+750747515
674+750368849+749612486+749340790+750000853+751898261+755232467+759665161
664+764946186+771037382+777473162+783537647+789121540+794779744+800992657
654+807647358+813976554+818983749+822365684+825204228+829288201+835258263
645+841821838+847274701+851267807+854538826+857492037+859688627+860348755
635+858847411+854898414+848910114+842624831+838923276+840070529+846007284
625+854581382+863274092+870623327+876517721+881477315+885486265+887736728
615+887834645+886689203+885717734+885498553+885406069+884366951+881773457
605+877679266+872341458+865781569+857997594+849713301+842528079+837801828
595+835476408+834223930+832740437+830862432+829225920+828121934+827563021
585+828236277+831125009+836104264+842104528+848530607+855193651+861083905
575+864760883+866120138+866646455+867875068+870027421+871899411+872361249
565+871926186+872003795+872950170+873904048+874347130+874780834+875738722
555+876962613+877924769+878689216+879729111+881045357+881929839+881704062
545+880638557+880061729+881256130+884168596+887381862+889251847+889024712
535+887247340+885135538+883082525+880243334+876057565+871119636+866156161
526+861619600+858477217+857698477+858938214+860811692+862241700+863145714
516+864178429+866133719+869190797+872545376+875251661+877467200+879961808
506+882407716+883611235+883596166+883926521+885323222+886394936+885576615
496+882989135+879465822+873949902+863053165+844111752+817358813+784027101
486+744419935+699575789+653861776+613704299+584236602+568958975+570165469
476+587093773+615505213+649464135+682737835+711887853+738105614+763255929
466+786469904+806137477+822430617+836027108+846797666+855197790+863219636
456+872237980+881418332+889768981+897195890+903193050+906503198+906797271
446+905693349+905402769+907017486+910637228+915591972+919910840+921084739
436+918405875+914074330+910648675+909040943+910243492+915609822+923844316
426+930582059+932518658+930861257+928932741+927267966+924250275+922178700
416+925711003+933658862+941347378+945752651+947954285+950556963+953204395
407+953663064+951859563+949470439+946661580+942202692+936455497+932821592
397+933660349+936501933+939429857+942391476+943656824+940705423+934660792
387+930925995+933102342+936769296+935323055+930621186+928898981+933430433
377+944901670+960482684+970328403
##END=
