##TITLE=X8591
##JCAMP-DX=4.24
##DATA TYPE=INFRARED SPECTRUM
##DATE=2/11/2018
##SAMPLING PROCEDURE=ATR platinum Diamond 1 Refl
##ORIGIN=ComPlat
##XUNITS=1/CM
##YUNITS=TRANSMITTANCE
##RESOLUTION=4
##FIRSTX=3997.453
##LASTX=373.96442
##DELTAX=-1.4165319
##MAXY=1.0362128
##MINY=0.26850268
##XFACTOR=1
##YFACTOR=9.6504838e-010
##NPOINTS=2559
##FIRSTY=0.97936356
##XYDATA=(X++(Y..Y))
3997+1014833645+1015046605+1014922646+1014872927+1015208117+1015757749
3989+1016046740+1015808395+1015229672+1014753044+1014714195+1015063220
3980+1015425524+1015535710+1015499763+1015487287+1015390133+1015060132
3972+1014682757+1014549348+1014671640+1014943522+1015409836+1016061810
3963+1016694390+1017214500+1017674143+1017844177+1017342659+1016329987
3955+1015450538+1014987004+1014686216+1014455653+1014625626+1015358387
3946+1016270076+1016864240+1016917480+1016442581+1015689253+1015073102
3938+1014829075+1014849518+1014964398+1015196690+1015524036+1015658557
3929+1015513660+1015521010+1016043034+1016800500+1017118149+1016747754
3921+1016109491+1015707473+1015692897+1015914195+1016199604+1016500021
3912+1016773324+1016923347+1016950894+1017040142+1017297819+1017441666
3904+1017057683+1016342154+1015948412+1015928401+1015790730+1015407551
3895+1015103922+1015152962+1015517551+1015893752+1016119929+1016402003
3887+1016808159+1016999687+1016788641+1016520897+1016409970+1016385327
3878+1016589763+1017135752+1017616641+1017484591+1016885425+1016543750
3870+1016639977+1016668141+1016425782+1016161558+1016036672+1016112024
3861+1016473772+1017080473+1017821943+1018755311+1019950247+1020796714
3853+1019966182+1017951090+1016614283+1016345366+1016841696+1017757153
3844+1018534507+1018551553+1017766232+1016777709+1016050878+1015597411
3836+1015467337+1015838906+1016536461+1017047553+1017060585+1016698343
3827+1016221901+1015932539+1016151614+1016872640+1017546725+1017592430
3819+1017274287+1017077447+1016928103+1016683520+1016458640+1016342586
3810+1016365562+1016607119+1017069109+1017553581+1017841645+1017810208
3802+1017396578+1016973376+1017177627+1017888215+1018370525+1018139468
3793+1017443827+1016836879+1016607119+1016726754+1017040636+1017438145
3785+1017866845+1018250889+1018499919+1018571256+1018528516+1018567797
3776+1018820101+1019189569+1019557432+1019955188+1020372955+1020556640
3768+1020362456+1020065250+1019917080+1019868410+1019859578+1019969517
3759+1020186121+1020275060+1020071674+1019730307+1019623333+1020173274
3751+1021316144+1021976518+1021525707+1020637611+1019991011+1019685714
3742+1019527044+1019539335+1019879837+1020508649+1021048029+1020938584
3734+1020103790+1019190125+1018721650+1018649325+1018634996+1018420739
3725+1018151821+1018324635+1019190495+1020405258+1021301444+1021422747
3717+1020911470+1020357267+1020229108+1020441945+1020461277+1020129546
3708+1020001572+1020437683+1021258580+1022000111+1022153470+1021576106
3700+1020774850+1020352265+1020506117+1021125418+1021847124+1022170764
3691+1021840824+1021061432+1020229170+1019587387+1019343916+1019664838
3683+1020455842+1021417374+1022290276+1022911430+1023033536+1022504533
3674+1021927910+1021985350+1022328446+1022373780+1022282247+1022586678
3666+1023088135+1023211662+1022784877+1022190898+1021925254+1022082318
3657+1022370568+1022496318+1022509906+1022649492+1022983261+1023326974
3649+1023369714+1023169169+1023166636+1023419990+1023616459+1023553399
3640+1023346800+1023103946+1022609407+1021783384+1021188973+1021486611
3632+1022525656+1023508311+1023862462+1023795696+1023787605+1023886550
3623+1024124648+1024610479+1025007308+1024507766+1023091223+1021918831
3615+1021649357+1021943289+1022291696+1022401944+1022038652+1021226216
3606+1020516740+1020289204+1020310821+1020421995+1020879230+1021771155
3598+1022679941+1023224756+1023337288+1023079982+1022698902+1022547705
3589+1022716690+1022986534+1023135137+1023117287+1022960594+1022708723
3581+1022382612+1021946192+1021440041+1021076996+1021100343+1021628481
3572+1022556785+1023512388+1024034844+1023876668+1023256255+1022784197
3564+1022783147+1023045642+1023318821+1023616521+1024047629+1024462679
3555+1024574718+1024373987+1024106675+1023900941+1023669328+1023366997
3547+1023103329+1023012598+1023069606+1023084800+1022908651+1022611754
3538+1022495083+1022823973+1023421348+1023739862+1023530114+1023111790
3530+1022913098+1023043974+1023369529+1023731833+1023991548+1024032806
3521+1023845230+1023514673+1023138719+1022785186+1022471119+1022153161
3513+1021792278+1021451282+1021273774+1021333129+1021567706+1021874485
3504+1022125120+1022155817+1021978803+1021896411+1022146614+1022606504
3496+1023015748+1023305542+1023531720+1023619053+1023419681+1022991784
3488+1022637571+1022575005+1022696185+1022804147+1022973193+1023411405
3479+1023983642+1024238972+1023965113+1023387626+1022819464+1022436037
3471+1022405279+1022788644+1023285222+1023525605+1023585577+1023745853
3462+1023888280+1023710833+1023391084+1023415234+1023849245+1024284800
3454+1024408080+1024208831+1023763641+1023202768+1022789077+1022711934
3445+1022850964+1022936753+1022862699+1022796488+1023070100+1023841895
3437+1024782613+1025282526+1025088898+1024592814+1024377075+1024586823
3428+1024884337+1024939307+1024728570+1024370652+1023960666+1023622821
3420+1023451427+1023375705+1023254217+1023035204+1022798465+1022793338
3411+1023287075+1024170353+1024989088+1025477266+1025694055+1025640877
3403+1025264800+1024786504+1024527345+1024505913+1024543280+1024576632
3394+1024597755+1024474229+1024100498+1023620350+1023302577+1023259467
3386+1023440619+1023766235+1024081105+1024133974+1023861165+1023542899
3377+1023457418+1023588665+1023834978+1024190179+1024552915+1024697318
3369+1024564959+1024306541+1024036573+1023837078+1023888527+1024245766
3360+1024693118+1025114653+1025669041+1026306377+1026546637+1026073838
3352+1025180122+1024381460+1023918111+1023758824+1023817252+1023980863
3343+1024017241+1023678531+1023034524+1022517750+1022454690+1022701249
3335+1022909577+1022984928+1023120561+1023461062+1023880683+1024194441
3326+1024496031+1024992300+1025550888+1025839879+1025854764+1025879593
3318+1026048268+1026274755+1026410140+1026243873+1025616110+1024675701
3309+1023801934+1023229697+1022910380+1022748128+1022795562+1023096226
3301+1023447474+1023518502+1023178371+1022583652+1022065642+1022015120
3292+1022650418+1023746903+1024722950+1025089207+1024853641+1024515116
3284+1024545257+1024837706+1024849935+1024287147+1023378299+1022515527
3275+1021864417+1021370866+1021050129+1021099478+1021572524+1022106715
3267+1022261988+1022007647+1021667948+1021551586+1021737617+1022014317
3258+1022004991+1021516072+1020741868+1020091561+1019845620+1019890707
3250+1019784474+1019248800+1018563474+1018246504+1018394551+1018598123
3241+1018496893+1018152871+1017758141+1017199368+1016232709+1015100525
3233+1014562566+1015074028+1016179099+1016999749+1017190906+1017129452
3224+1017249581+1017480144+1017380582+1016699640+1015762196+1015232390
3216+1015414283+1015963050+1016394529+1016612369+1016775671+1016999069
3207+1017350812+1017772223+1017939108+1017623435+1017173180+1017170648
3199+1017651723+1018114269+1018249345+1018217784+1018221058+1018210002
3190+1018029159+1017614788+1017080350+1016712055+1016752077+1017146498
3182+1017639617+1018044661+1018311726+1018501834+1018783166+1019259423
3173+1019789168+1020113858+1020112252+1019845002+1019482204+1019218721
3165+1019142999+1019141208+1018972224+1018467185+1017721577+1017070715
3156+1016786727+1016864487+1017180901+1017687793+1018313950+1018886620
3148+1019300620+1019582199+1019653474+1019241821+1018259968+1017172192
3139+1016690252+1017093197+1018016683+1018850982+1019173696+1018916575
3131+1018364657+1017973201+1018024959+1018391216+1018631228+1018367437
3122+1017626400+1016787221+1016174899+1015808951+1015591976+1015513907
3114+1015520022+1015444423+1015273833+1015189155+1015156050+1014868542
3105+1014264557+1013618636+1012956409+1011968875+1010700008+1009737796
3097+1009472399+1009580979+1009485308+1009095519+1008850504+1009053026
3088+1009408844+1009420209+1009075631+1008835433+1008981504+1009323735
3080+1009605808+1009939515+1010629598+1011678278+1012686565+1013242127
3071+1013233356+1012811883+1012254654+1011891547+1011972457+1012497569
3063+1013202722+1013736234+1013883848+1013701399+1013481336+1013531117
3054+1013892495+1014281419+1014371655+1014090632+1013612707+1013167393
3046+1012915892+1012884764+1012986488+1013142317+1013278999+1013185613
3037+1012662168+1011870671+1011177377+1010619715+1009952486+1009229669
3029+1008807640+1008693192+1008387031+1007524135+1006316599+1005234690
3020+1004508971+1004016717+1003492037+1002815419+1002165298+1001861360
3012+1002101064+1002915661+1004175325+1005475691+1006235072+1006143477
3003+1005409172+1004478892+1003665592+1003022820+1002374614+1001491027
2995+1000368848+999254081+998289337+997275738+995867657+993886473+991413591
2985+988660612+985745443+982494466+978440194+973058072+966062814+957543483
2975+947814948+937008457+924761830+910457185+893846358+875347301+855628726
2965+834944665+812959745+789262744+764170137+739283450+717290253+700794491
2955+690868376+686675816+686556922+689278216+694129667+700219227+706273211
2945+711270301+714865053+716853216+716404011+712157099+703095980+689283713
2935+672013561+653445082+635828253+620606793+607889405+596538964+584893233
2925+572048489+559134323+549440252+546886522+553827737+569856074+592343254
2915+617952203+643916476+668532701+691001599+711010215+728418531+743189181
2905+755380221+765072686+772410360+777775744+781787090+785054126+788013888
2895+790923808+793744418+796029230+797298777+797768796+798571040+801108033
2885+806193011+813620428+822217890+830317909+836468059+839803899+839848801
2876+836344409+829479966+820050798+809202864+798068163+787521140+777976228
2866+769223740+760474155+750726412+739379925+726801751+714529369+704935293
2856+700343124+701917535+709085545+720004074+732716953+746127141+760183373
2846+775293104+791452503+807776439+822845344+835606522+845984992+854619018
2836+862138091+868808598+874682233+879798772+884237583+888124167+891635723
2826+894987498+898417218+902131235+906191560+910426798+914490396+918066866
2816+921099571+923845015+926654013+929658369+932705094+935602785+938314568
2806+940823087+942975726+944638767+945908992+946998560+947988318+948821938
2796+949506215+950216679+951167402+952385747+953701986+954976350+956202600
2786+957387654+958509832+959610270+960750978+961877666+962848030+963594132
2776+964194904+964777147+965356302+965819528+966096537+966236801+966265768
2766+966143230+965952134+965930393+966209378+966711453+967385785+968313903
2757+969463690+970572220+971421034+972005562+972352240+972461685+972509181
2747+972766240+973266461+973835487+974369123+974792140+974962546+974943214
2737+975090396+975584688+976180828+976639606+977073124+977666175+978380654
2727+979108474+979878107+980789364+981906293+983237294+984677430+985996758
2717+987011468+987709765+988140503+988320296+988342160+988409482+988683156
2707+989190851+989864010+990537416+991002618+991215392+991359795+991596411
2697+991884228+992145240+992430278+992813458+993274336+993757449+994208940
2687+994548082+994752457+994958932+995351562+995958511+996638834+997223981
2677+997630816+997884293+998060936+998228809+998441893+998702781+998885045
2667+998837425+998632309+998526261+998578698+998525273+998167848+997717408
2657+997557935+997742361+997914372+997769289+997425885+997209775+997194519
2647+997163329+996975321+996745438+996617773+996570215+996528957+996491405
2638+996419698+996203279+995867533+995646050+995681873+995834181+995941279
2628+996107237+996535072+997185625+997806347+998278405+998777700+999560489
2618+1000711511+1002151648+1003736805+1005238643+1006357425+1006961780
2609+1007325257+1007940173+1008986815+1010129994+1011001290+1011709963
2601+1012602752+1013630680+1014273019+1014079947+1013089880+1011743624
2592+1010565611+1009902951+1009819386+1010126288+1010520832+1010792838
2584+1010976275+1011238090+1011611635+1011972766+1012296097+1012738137
2575+1013401414+1014144860+1014686772+1014844948+1014721915+1014699557
2567+1015157224+1016122029+1017260143+1018195920+1018724182+1018820903
2558+1018630796+1018343534+1017947199+1017312580+1016555732+1015970771
2550+1015567085+1015073040+1014434716+1013908368+1013650568+1013528462
2541+1013323840+1012950789+1012513628+1012185108+1011967454+1011723674
2533+1011527019+1011660737+1012127668+1012526227+1012550439+1012277259
2524+1011947937+1011829907+1012180599+1012951715+1013642909+1013789844
2516+1013485351+1013229836+1013422352+1014059503+1014764038+1015131962
2507+1015155371+1015204967+1015534721+1015972377+1016155443+1015959345
2499+1015659607+1015659545+1016055819+1016593160+1017084364+1017621706
2490+1018281709+1018916945+1019319890+1019349413+1018975806+1018493372
2482+1018506466+1019358245+1020682390+1021720385+1021967933+1021485005
2473+1020753047+1020220647+1019940673+1019777927+1019850561+1020386358
2465+1021186008+1021673939+1021591300+1021328558+1021451035+1022108197
2456+1023018837+1023825528+1024337238+1024646116+1025097853+1025853096
2448+1026481785+1026412240+1025729446+1025031705+1024634999+1024444335
2439+1024457367+1024855247+1025613578+1026376726+1026808761+1026967369
2431+1027231716+1027832489+1028561111+1029034589+1029120934+1028988328
2422+1028866099+1028902910+1029133287+1029407269+1029447169+1029157498
2414+1028765177+1028497248+1028348707+1028309240+1028493727+1028858070
2405+1029136499+1029244214+1029380217+1029589224+1029566001+1029074427
2397+1028308128+1027659057+1027298853+1027135921+1027038335+1026909373
2388+1026658182+1026284143+1025925483+1025714067+1025672438+1025829997
2380+1026310577+1027164641+1028177931+1029036504+1029677052+1030250216
2371+1030744385+1031029484+1031257144+1031717281+1032329418+1032785294
2363+1033053161+1033287739+1033431462+1033238019+1032613036+1031790718
2354+1031105268+1030686512+1030596276+1031024852+1032068221+1033487173
2346+1034826512+1035820408+1036567683+1037109471+1037224845+1036777184
2337+1035888224+1034811503+1033815877+1033049641+1032425090+1031748472
2329+1031022135+1030529448+1030591150+1031303343+1032496303+1033818966
2320+1034838432+1035250208+1035143481+1034906557+1034769751+1034633872
2312+1034377306+1034099865+1034012285+1034287935+1034992779+1035986428
2303+1036930728+1037497963+1037581961+1037366901+1037206069+1037349607
2295+1037762310+1038201571+1038406873+1038256911+1037871878+1037499075
2286+1037224598+1036933446+1036598812+1036426615+1036614870+1037046225
2278+1037302914+1037120341+1036848459+1037169629+1038237270+1039448203
2269+1040252733+1040822932+1041651056+1042769096+1043705305+1044095774
2261+1044007699+1043713458+1043446146+1043347078+1043521498+1044206577
2252+1045753503+1048056041+1050106462+1050687532+1049595802+1047803552
2244+1046412024+1045857883+1046176335+1047445325+1049468322+1051337653
2235+1052021250+1051449692+1050534358+1050035187+1049859902+1049643607
2227+1049617049+1050370191+1051815454+1053117179+1053879710+1054517849
2218+1055148700+1055195640+1054464115+1053588928+1053152631+1053205624
2210+1053672432+1054404698+1054853471+1054473750+1053593498+1053242929
2201+1053805100+1054353682+1053912938+1053025028+1053222547+1055062108
2193+1057429869+1058823991+1058712570+1057628623+1056496871+1055951377
2184+1055982753+1056219553+1056530223+1056960096+1057291889+1057560436
2176+1058562238+1060598700+1062404044+1062763630+1062242594+1061982694
2167+1062029264+1062018640+1062229006+1062818847+1063020072+1061979606
2159+1059903492+1057779449+1056289717+1055660842+1055998564+1056890921
2150+1057253596+1056504530+1055321514+1054542431+1054234849+1054376534
2142+1055170070+1056239565+1056742936+1056527135+1056214489+1056183854
2133+1056299228+1056453143+1056576793+1056189536+1054772438+1052806015
2125+1051643876+1051870671+1052485834+1052289921+1051428568+1050919268
2116+1051146927+1051453521+1051070217+1050066933+1049174699+1048807825
2108+1048719874+1048695663+1048959022+1049658183+1050541523+1051390769
2099+1052217287+1052937448+1053445513+1054016330+1055038391+1056364944
2091+1057410475+1057796620+1057631217+1057341053+1057351306+1057731644
2082+1058183505+1058506775+1058826091+1059205072+1059440637+1059448049
2074+1059504377+1059878786+1060378452+1060428851+1059581581+1057861595
2065+1055835756+1054464115+1054397163+1055076931+1055168958+1054279319
2057+1053488006+1053827952+1055114483+1056562217+1057722133+1058569897
2048+1059437796+1061048832+1063887106+1067291503+1069785261+1070617337
2040+1070426118+1070056402+1069639376+1069280778+1069509673+1070390542
2031+1071166043+1071343181+1071394197+1072007384+1072919135+1072869354
2023+1070924425+1067613414+1064538833+1063164227+1063774944+1065181543
2014+1065971620+1066003243+1066001266+1066462762+1067589203+1069160092
2006+1069997480+1068960844+1066654476+1064877667+1064742899+1066096876
1997+1068088004+1069754750+1070623267+1070987053+1071103539+1070406354
1989+1068606940+1067075208+1067572403+1069748327+1071396174+1071347257
1980+1070510240+1069936211+1069712257+1070100996+1071623339+1073438071
1972+1073741823+1072160186+1070172394+1069148604+1069243596+1070139536
1963+1071470907+1072462456+1072393405+1071434343+1070360031+1069828372
1955+1070123972+1070863773+1071090321+1070305062+1069018654+1067941007
1946+1067221340+1066717474+1066377899+1066070935+1065451696+1064375037
1938+1063340129+1063255637+1064458294+1066065130+1066793814+1066342447
1929+1065461454+1064814174+1064357743+1063875865+1063506396+1063477491
1921+1063718121+1064013103+1064182705+1064095496+1063817807+1063554201
1912+1063367305+1063253167+1063417704+1064101919+1065187101+1066292419
1904+1067075825+1067304597+1066977128+1066489444+1066427681+1067067920
1895+1068132473+1069116364+1069802061+1070185488+1070125207+1069608247
1887+1069107470+1069020754+1069112658+1068884751+1068258100+1067646643
1878+1067427630+1067428618+1067060755+1066159133+1065394626+1065492707
1870+1066296372+1066824696+1066399516+1065322487+1064232116+1063554695
1861+1063394852+1063598300+1064021009+1064631355+1065323722+1065904545
1853+1066290195+1066545031+1066743909+1066904741+1067034691+1067124495
1844+1067078790+1066856071+1066706233+1066925246+1067510146+1068195595
1836+1068749736+1069164663+1069503497+1069722757+1069735603+1069628629
1827+1069554143+1069385035+1068903033+1068258471+1067760534+1067378466
1819+1066893747+1066282784+1065724690+1065385732+1065269988+1065192166
1810+1065015029+1064937701+1065237253+1065867981+1066573813+1067157106
1802+1067570180+1067913831+1068321840+1068841887+1069502138+1070249845
1793+1070722706+1070479976+1069738815+1069118464+1068817059+1068724290
1785+1068714902+1068719596+1068696743+1068509477+1067980165+1067170570
1776+1066328365+1065615122+1065114344+1064865685+1064735488+1064593802
1768+1064495105+1064479664+1064491028+1064466446+1064413453+1064543156
1759+1065112244+1065992990+1066767503+1067234063+1067467282+1067468641
1751+1067188605+1066720686+1066173957+1065609192+1065086674+1064578732
1742+1064020268+1063345688+1062472601+1061563074+1060964587+1060724080
1734+1060559913+1060363258+1060175004+1059861987+1059428531+1059012123
1725+1058577803+1058064920+1057627882+1057461986+1057630600+1057930028
1717+1057761414+1057063735+1056568022+1056445484+1056450549+1056542823
1708+1056650415+1056408426+1055661089+1054790720+1053959261+1052640613
1700+1050268899+1047308087+1044441278+1041594974+1038927414+1036776072
1691+1034817247+1032560784+1030266027+1028410470+1026236461+1022272735
1683+1017283119+1013017431+1009161914+1005005116+999760602+992439790+983529558
1673+974627232+964890854+951217987+932921204+913204791+892312279+865768913
1663+830730612+793901606+766583603+751680780+745453920+743331731+738955301
1653+723145298+699664407+678525706+653683983+614405009+562943270+517742053
1643+485136642+460125162+440447444+426313358+417398711+413411761+414871909
1633+420673930+428977954+439492736+452081811+464426456+472515760+472997977
1623+463644470+445789450+424491123+401928653+377087362+353702358+340613989
1613+339610643+347597944+363362953+386347637+414563463+445116569+475693269
1604+504963025+531826203+554969619+573451567+587009864+595581694+599144699
1594+598081381+593151552+585049556+574326816+561570826+547503291+533086484
1584+519513797+508105422+500066580+496124995+497208912+505188493+518950392
1574+532916758+545548666+559891171+577353716+594250755+607512216+618245455
1564+627360556+634522143+640489411+647928439+657200666+663562479+667105102
1554+670278690+673874245+678061184+683203108+689536016+697218145+706744528
1544+718132397+730533865+744602265+760866229+774326569+782975541+790014898
1534+798036911+806745299+813825482+818780820+822839414+826592651+829474716
1524+830997121+831466276+831560588+832158149+834050332+837687515+842918564
1514+848934811+855107257+861278222+867522931+874578841+883371228+891296889
1504+895322750+896819215+896992090+895842365+893841046+893398079+897287319
1494+905174749+915233594+926927933+939863284+951422732+958486856+961038301
1485+960278921+956079629+947066561+931057124+904447485+863299057+807190305
1475+739418094+664478183+595710285+551661881+534673556+536901608+552937727
1465+577840041+603064079+622682413+637011021+648286234+657824476+665257698
1455+670166281+672843538+672513104+668208999+662352720+662754181+676901762
1445+704392393+739106560+773844011+802534643+822916372+835829796+842134910
1435+843296185+842150660+840028594+835679094+826465233+810295644+785213784
1425+748926504+702979679+652816949+599860845+545480232+506598952+501001337
1415+523240846+560067382+602614998+644215781+678634225+700519706+706237142
1405+696823291+682491965+678031229+692348535+725300346+767950056+808869713
1395+843150239+870245955+889631996+902432641+911169317+917332623+920774387
1385+920938862+917573129+910048250+897135567+877597464+850336222+812989021
1375+761537906+696857508+632461099+586005220+566767473+575478888+605428814
1366+646185662+690959168+735877694+775473885+806140080+829500162+848482147
1356+864322785+877070622+886788348+893932147+899069995+902565864+904393134
1346+904111122+901117945+894770709+884036419+867468765+844168778+814498085
1336+779777063+742803963+708752887+683737485+671349111+670858586+679329371
1326+695142092+718658559+749631286+785122621+820062101+848932340+867492420
1316+873914329+868056628+850024935+819901578+777988457+725121108+663962397
1306+600269781+541936002+496220296+467173907+454354548+453683119+460214626
1296+470657053+483939637+500204312+519610210+541851695+566287263+592161053
1286+618732768+645409173+671651875+696545789+718774242+737653082+754193561
1276+770496992+787857318+805815143+823033413+838537441+852002598+863396149
1266+872695305+879806616+884602048+887121562+887952897+888512844+890740463
1256+896168537+905069257+916343667+928235094+939278014+948683218+956123851
1247+961557546+965266869+967661250+968812334+968236823+965105852+958487165
1237+947266242+929784181+903459766+864721283+809662569+735897891+645506327
1227+547643309+457831826+391073585+351617350+329703581+311294019+291662623
1217+278227174+281025055+303212034+340521282+386277752+434862429+481622492
1207+521441000+548179971+556050848+543168429+515533549+487096425+473267575
1197+482195532+511583534+552981641+597965451+641016870+679332398+711895655
1187+738659331+759778144+775055932+783702558+784263616+774664908+752501615
1177+715782301+664197839+600381820+530110787+461028606+400735168+355111644
1167+327069744+316043530+318688207+330628426+348324467+369858237+394303069
1157+420779792+448300132+476122525+503873674+531367671+558375189+584494056
1147+609252584+632344428+653716841+673520835+692034839+709455816+725624789
1137+739900590+750926526+756046586+751399448+734182351+706186496+674634552
1128+647619684+627339247+607681139+578647967+533827706+475409992+413777586
1118+362276782+330740218+321879644+332111982+355019956+384433467+415768003
1108+446268333+474833863+501324422+525614783+547268282+566013589+582195408
1098+596591586+609878247+622336723+633982516+644807351+654836796+664099202
1088+672619522+680324565+686934358+692118528+695863859+698687372+701524102
1078+705321438+710534205+716902132+723704380+730248395+736242777+741855524
1068+747441033+753211277+759181016+765301581+771473039+777424187+782714961
1058+786896589+789682179+791106319+791714935+792559302+794679083+798286188
1048+802229903+803813639+798800862+782351546+751793189+709923365+665540883
1038+629619613+609653923+606546793+615954590+632061552+650490631+669000929
1028+686813795+703760801+719705819+734311313+747179774+758152717+767403821
1018+775258516+781963981+787567401+791920854+794864620+796583495+797843530
1009+799671540+802533902+805806187+808280181+809365672+809777819+810940947
999+813604493+816863252+818336309+815477035+807487201+796743524+788204120
989+786465481+792706176+804400144+817789394+830286163+840910390+849583759
979+856642077+862590693+867757817+872159075+875746354+878612792+880946274
969+882949075+884821432+886767905+888990583+891590204+894432987+897226606
959+899696153+901543433+902311955+901389519+897887165+890249259+876083829
949+852790328+819319767+778657725+738890512+710360835+699980018+707532814
939+727080181+751336387+775047471+795854317+813480596+828430544+841049790
929+851361432+859357998+865232745+869514862+873112208+876939128+881303761
919+885850780+890134935+893999593+897437095+900425640+902970600+905132750
909+907025674+908854179+910817204+912880286+914749246+916098096+916743956
899+916630991+915682243+913624535+910179312+905794915+901986400+900374253
890+901393472+904297030+908122406+912159260+915822323+918745830+920994326
880+922855256+924475927+925827742+926867529+927617027+928197356+928871565
870+929952486+931573527+933561320+935551089+937212585+938426606+939294691
860+939881319+939816776+938132798+933434705+924297184+910105011+892348411
850+875150029+863664326+861090770+866880221+877627110+889500008+899995520
840+907896352+912007631+910046274+898423765+872878063+830335018+772276704
830+707190583+648273635+606979939+587806364+587809082+599728178+615880103
820+630362009+638730452+636959511+621976642+593267296+553335792+506494634
810+457292261+409899556+368756224+339079848+325165548+326775719+337477861
800+348189020+353250003+352959870+350992706+350816279+354498334+363127140
790+377037982+395705931+417867834+441523578+463280560+478485962+484322879
781+484065696+486914656+501635277+529969040+566530117+604314294+639213565
771+670069930+696816312+719719778+739526118+757231825+773508945+788531095
761+802271037+814724263+825872614+835713311+844449061+852529563+860396673
751+868064719+874781672+879145439+880017106+878000902+876204268+878634595
741+886667169+896861214+902382551+895676160+869369347+817943246+743925030
731+663621772+601376580+572049662+568678247+570293853+562955623+552159694
721+555101175+582724535+630290796+684161553+733520804+774388703+807065048
711+833138457+854167589+871499134+886408689+899854576+911977306+922147325
701+929357458+931727009+925579330+907300459+879267546+853389247+844305708
691+857138037+883945751+912379756+935129986+951163758+962278139+970807538
681+978523081+985829441+992151416+997143935+1001159605+1004699449+1007916950
671+1010684443+1012424935+1011369646+1005917608+997086989+984524319+963622110
662+926763396+867088240+786273396+701804446+642509506+628935090+656637260
652+699358616+727117548+722261958+684394648+627661899+574608519+546596975
642+553276005+589240571+640474464+693773725+741644664+781114240+810883384
632+830518517+841427411+847969573+856484519+871159991+890407682+908939783
622+923418044+934398028+943593854+951440211+957466834+961766862+965186083
612+968300007+971028651+973384677+975845082+978703244+981764237+984892429
602+988220733+991719382+995040460+997869223+1000273485+1002733027+1005655731
592+1008753350+1011266810+1012874573+1013834005+1014459421+1015063343
584+1015955206+1016983875+1017613738+1017749556+1017798473+1017744306
575+1016927362+1014957048+1012101728+1008420198+1002878788+993498476+978421480
565+956782187+928579424+894361465+855805554+816551965+781672087+755663159
555+740734025+736625216+741402799+752264629+766288868+781330288+796570710
545+812132363+828367051+845659129+864204879+883420700+902033464+919048656
535+934210268+947477411+958393594+966058737+969618408+968041959+958457272
526+935064270+891189792+823415667+736302811+647517651+585310197+570143706
516+597139798+644716867+695094226+740306931+778028542+808273634+831385489
506+846727697+853187281+850641889+841874516+833035868+830083517+835345880
496+847633766+863948005+881150093+896886907+909891803+919974921+927578178
486+933028426+935801107+934854769+930312258+923942848+917650580+912457578
476+908559506+905135529+900274752+892816763+884714952+879796055+880654628
466+887287767+897895997+910500111+923209161+934404205+943938864+952565169
456+959513981+963291800+964286931+963586597+960040452+950832830+935939951
446+920358719+910442300+909298813+916670334+930427508+947173350+962840371
436+973905342+979405123+981148765+981394213+981964968+984556127+989671184
426+995850919+1001009767+1004573390+1007904350+1012184243+1016478589+1019312169
416+1021605999+1023603427+1023533325+1021358452+1020236891+1022012526
408+1024220814+1023843501+1020480794+1014749832+1007342674+1000359460+997288709
398+1000441729+1007317845+1013196731+1017485950+1022871346+1031130838
390+1040338337+1046213022+1046610655+1044106644+1043812774+1047268064
381+1051254025+1053662550+1056567899+1063113211+1069726339+1067640219
##END=
