##TITLE=CHS-405
##JCAMP-DX=4.24
##DATA TYPE=INFRARED SPECTRUM
##DATE=12/11/2020
##SAMPLING PROCEDURE=Diamant-ATR
##ORIGIN=Angelika Moesle
##XUNITS=1/CM
##YUNITS=TRANSMITTANCE
##RESOLUTION=4
##FIRSTX=3997.453
##LASTX=373.96442
##DELTAX=-1.4165319
##MAXY=0.96469367
##MINY=0.89392835
##XFACTOR=1
##YFACTOR=8.9844099e-010
##NPOINTS=2559
##FIRSTY=0.96272784
##XYDATA=(X++(Y..Y))
3997+1071553787+1070826211+1070810621+1071278268+1071746976+1071982160
3989+1072124663+1072388042+1072842155+1073377206+1073643305+1073224817
3980+1072160820+1071090851+1070711705+1071186450+1072042730+1072583287
3972+1072559006+1072370528+1072441514+1072671191+1072718294+1072539966
3963+1072396268+1072467586+1072599143+1072461218+1071985278+1071538927
3955+1071557635+1072052217+1072559935+1072637821+1072436074+1072540895
3946+1073031164+1073233906+1072687445+1071798922+1071261682+1071202173
3938+1071343018+1071498591+1071585964+1071563805+1071545826+1071723425
3929+1072045915+1072263982+1072269754+1072147418+1072004451+1071903544
3921+1071845826+1071714270+1071378312+1070934018+1070606287+1070460002
3912+1070488330+1070808631+1071467078+1072179594+1072509117+1072280368
3904+1071778887+1071425813+1071259294+1071174641+1071313164+1071678843
3895+1071929550+1071811527+1071494079+1071449365+1071849741+1072297883
3887+1072360178+1071994300+1071573027+1071411152+1071499453+1071749365
3878+1071980966+1071920926+1071485521+1070916702+1070587313+1070673160
3870+1071061660+1071388064+1071353301+1071180148+1071404982+1072094411
3861+1072593504+1072515486+1072203743+1072084128+1072158166+1072104694
3853+1071810864+1071727538+1072021766+1072340275+1072411328+1072328135
3844+1072449740+1072876918+1073167564+1072983265+1072598015+1072290917
3836+1071864933+1071284902+1070899122+1070858985+1070950272+1071026101
3827+1071197397+1071552063+1071934460+1072061041+1071715795+1071003611
3819+1070377804+1070130480+1070346291+1070989214+1071689856+1071969422
3810+1071618670+1070845782+1070295672+1070531718+1071269179+1071879993
3802+1072192531+1072273402+1072008962+1071291536+1070295075+1069423602
3793+1068979374+1069013607+1069504673+1070379860+1071395694+1072172098
3785+1072387379+1072013208+1071300824+1070550692+1070067123+1070064668
3776+1070406066+1070821966+1071275747+1071771324+1072018648+1071728268
3768+1071228909+1071068892+1071227582+1071365044+1071409758+1071510068
3759+1071711284+1071932801+1072104296+1072174552+1072142443+1072245870
3751+1072891978+1073741823+1073682248+1072383663+1070558918+1069624819
3742+1070160665+1070982779+1071066835+1070248768+1068998945+1068317079
3734+1068974399+1070563761+1072034902+1072762677+1072712323+1072111461
3725+1071258100+1070547109+1070309737+1070460267+1070580679+1070488728
3717+1070437844+1070651930+1070920019+1070679993+1069729905+1069015796
3708+1069454452+1070553080+1071345738+1071494676+1071309449+1071183266
3700+1071155667+1071128799+1071229440+1071634062+1072226963+1072644322
3691+1072609426+1072125194+1071503964+1071110953+1070916835+1070667189
3683+1070322673+1070098171+1070127892+1070280878+1070464314+1070849431
3674+1071438551+1071870439+1072006242+1071943018+1071749696+1071374531
3666+1070824752+1070372828+1070379794+1070829529+1071226786+1071130325
3657+1070569135+1069977892+1069781785+1069944854+1070158609+1070287645
3649+1070477649+1070807437+1071096291+1071219621+1071161041+1070987224
3640+1070872717+1070909206+1070973226+1071018803+1071252593+1071747308
3632+1072180059+1072245605+1072192531+1072591978+1073200470+1073312257
3623+1072973314+1072843349+1073285322+1073610996+1072907303+1071613894
3615+1070779705+1070703677+1070957835+1071087600+1071123823+1071327361
3606+1071602217+1071640563+1071567852+1071760311+1072082801+1071902748
3598+1071124951+1070414557+1070232116+1070399763+1070610400+1070728224
3589+1070616039+1070202859+1069728512+1069482912+1069469047+1069639547
3581+1069936097+1070096512+1069829617+1069249189+1068892267+1069162147
3572+1069848525+1070425305+1070696446+1070844456+1070913518+1070750382
3564+1070550957+1070637799+1070863894+1070813275+1070479706+1070304562
3555+1070473867+1070605292+1070268936+1069621170+1069215951+1069276190
3547+1069516150+1069588728+1069488220+1069408609+1069427384+1069534726
3538+1069775217+1070180634+1070604960+1070761329+1070475791+1069815553
3530+1068994169+1068293196+1068057614+1068569644+1069751798+1070992532
3521+1071506353+1071093173+1070353788+1069997397+1070138242+1070425504
3513+1070544323+1070292355+1069604054+1068891670+1068834217+1069480989
3504+1070084571+1069948038+1069116504+1068156929+1067564691+1067559052
3496+1068066239+1068749565+1069260268+1069512302+1069645716+1069774155
3488+1069896689+1070055115+1070342443+1070649077+1070668848+1070321612
3479+1069869754+1069500626+1069163872+1068866592+1068768141+1068882117
3471+1068951511+1068743992+1068347597+1068072740+1068133377+1068556708
3462+1069259405+1069914867+1069971922+1069253766+1068344744+1067964934
3454+1068202970+1068703258+1069234195+1069678357+1069797906+1069409936
3445+1068662855+1067912391+1067404408+1067136651+1066970728+1066885611
3437+1067039061+1067491184+1068030945+1068405049+1068527451+1068397884
3428+1068063386+1067717942+1067542334+1067452108+1067307615+1067262701
3420+1067525284+1067945231+1068218826+1068298702+1068286495+1068138353
3411+1067735456+1067185678+1066881100+1067107128+1067629972+1067930834
3403+1067867809+1067713099+1067541869+1067141096+1066551777+1066159694
3394+1066177938+1066469977+1066877451+1067352263+1067769224+1067926058
3386+1067796557+1067581277+1067443417+1067344766+1067195430+1066997199
3377+1066787093+1066565244+1066340609+1066176346+1066151069+1066298747
3369+1066597752+1066958389+1067193572+1067144280+1066919181+1066782449
3360+1066711861+1066414050+1065906532+1065643484+1065870176+1066250848
3352+1066363630+1066230017+1066155315+1066247929+1066318982+1066227562
3343+1066147553+1066395740+1067046027+1067763320+1068047398+1067718804
3335+1067125306+1066746890+1066694015+1066721149+1066517412+1065887160
3326+1064947355+1064231455+1064251623+1064861242+1065367235+1065332140
3318+1064985302+1064799411+1064941649+1065263078+1065601622+1065904674
3309+1066157106+1066353281+1066483444+1066483511+1066309627+1066095408
3301+1066107947+1066490808+1067103413+1067617035+1067760600+1067558720
3292+1067342046+1067393064+1067580083+1067504784+1067006089+1066324289
3284+1065755072+1065354696+1065049323+1064886651+1065031477+1065505094
3275+1066035302+1066346248+1066533334+1066909760+1067513807+1068042555
3267+1068237004+1068098349+1067778114+1067462657+1067324731+1067417610
3258+1067590100+1067591692+1067373957+1067273183+1067673028+1068403191
3250+1068755734+1068274554+1067273050+1066435346+1066171304+1066452595
3241+1066969866+1067301047+1067158477+1066650162+1066181587+1066057792
3233+1066262591+1066590786+1066884417+1067131011+1067380392+1067599189
3224+1067655049+1067454828+1067078800+1066754055+1066649234+1066695209
3216+1066712060+1066726589+1066955801+1067434859+1067900649+1068074797
3207+1067854275+1067323205+1066787027+1066629265+1066922564+1067353457
3199+1067608145+1067586120+1067299057+1066889525+1066657261+1066767920
3190+1067024996+1067096248+1066851777+1066477739+1066366085+1066762546
3182+1067417809+1067771613+1067548968+1067046823+1066845408+1067253811
3173+1067964204+1068300228+1067940653+1067253546+1066827230+1066869225
3165+1067119534+1067181233+1066940078+1066687580+1066730238+1067001909
3156+1067202661+1067143019+1066859141+1066608101+1066696138+1067091007
3148+1067406531+1067479508+1067582670+1067854607+1067949211+1067543528
3139+1066880835+1066546204+1066837579+1067461462+1067816062+1067584328
3131+1067023139+1066599742+1066485036+1066557084+1066704099+1066899079
3122+1067083046+1067144678+1066964094+1066502418+1065960999+1065699544
3114+1065801578+1065907062+1065692445+1065334462+1065259429+1065532096
3105+1065776302+1065757195+1065727673+1065978778+1066390101+1066754784
3097+1067174068+1067730746+1068137292+1068117654+1067842997+1067681653
3088+1067728026+1067767500+1067563829+1067051202+1066348637+1065718385
3080+1065438553+1065535346+1065685545+1065605006+1065464227+1065653436
3071+1066195320+1066689835+1066812104+1066609893+1066348040+1066258411
3063+1066369004+1066429840+1066093949+1065303812+1064438376+1063975971
3054+1064054387+1064416550+1064753436+1065043949+1065503369+1066220795
3046+1066988973+1067515598+1067660821+1067462524+1067074289+1066650030
3037+1066242489+1065917345+1065873758+1066192600+1066590852+1066737204
3029+1066670198+1066619910+1066588663+1066395209+1066016195+1065650450
3020+1065472520+1065502573+1065717323+1066061109+1066306775+1066212104
3012+1065940897+1065996226+1066569689+1067271193+1067628844+1067566947
3003+1067284793+1066982670+1066850914+1067011197+1067268539+1067170551
2995+1066549057+1065807682+1065509539+1065810999+1066368937+1066677894
2986+1066528690+1066164006+1065870839+1065544369+1064923737+1064088752
2978+1063361176+1062811265+1062138819+1061014052+1059411156+1057627742
2969+1055971639+1054474691+1053029756+1051690570+1050600765+1049722857
2961+1048884954+1048042805+1047339178+1046961492+1046974229+1047199263
2952+1047333539+1047332345+1047502513+1047995038+1048435352+1048363636
2944+1047808948+1047094442+1046296145+1045192474+1043590175+1041522153
2935+1039248137+1037077351+1035028435+1032766163+1030106035+1027486377
2927+1025681335+1025009022+1025002388+1024983149+1024848806+1025088700
2918+1026120123+1027864263+1029918220+1031869347+1033453336+1034664481
2910+1035773327+1037118151+1038807492+1040611339+1042136814+1043148401
2901+1043740971+1044202315+1044755544+1045467131+1046312133+1047238006
2893+1048172106+1049025135+1049731880+1050317351+1050892738+1051523786
2884+1052115891+1052490327+1052597801+1052595744+1052647027+1052678142
2876+1052478120+1052034688+1051575599+1051235993+1050902689+1050431460
2867+1049824626+1049171619+1048565980+1048011491+1047304614+1046152646
2859+1044529051+1042780202+1041308331+1040285001+1039733033+1039744112
2850+1040475006+1041933807+1043885066+1046021355+1048128785+1050028894
2842+1051552711+1052692870+1053633006+1054510848+1055283006+1055899525
2833+1056479954+1057196849+1058032894+1058770952+1059246295+1059522345
2825+1059778360+1060121151+1060549391+1061014118+1061462526+1061853349
2816+1062124357+1062189372+1062038510+1061797223+1061614914+1061555936
2808+1061613189+1061707462+1061710580+1061607749+1061578293+1061777984
2799+1062131588+1062459253+1062686940+1062796935+1062728138+1062526789
2791+1062459319+1062725418+1063138863+1063310889+1063079487+1062625639
2782+1062297908+1062386940+1062873361+1063373715+1063539969+1063444635
2774+1063389637+1063505139+1063735811+1064029575+1064318230+1064426103
2765+1064213940+1063801225+1063484308+1063406157+1063441119+1063435878
2757+1063376701+1063289593+1063172234+1063061110+1063016727+1063048041
2748+1063156378+1063390102+1063770840+1064204520+1064508434+1064539548
2740+1064332162+1064062083+1063793198+1063385789+1062784927+1062245830
2731+1062069624+1062231632+1062478227+1062697687+1062951181+1063182185
2723+1063185502+1062933733+1062712548+1062795011+1063121946+1063425197
2714+1063553105+1063532273+1063400783+1063183777+1063017789+1063109275
2706+1063491871+1063889394+1063891849+1063365688+1062694105+1062443264
2697+1062771128+1063358523+1063854830+1064132273+1064198748+1064157947
2689+1064153569+1064201468+1064180703+1064014980+1063736342+1063443308
2680+1063287072+1063349699+1063510314+1063576723+1063509584+1063393220
2672+1063284485+1063178602+1063064759+1062983755+1063000075+1063069403
2663+1063018717+1062772787+1062498196+1062395498+1062453879+1062538067
2655+1062611376+1062716595+1062816440+1062843109+1062851933+1062924379
2646+1062999478+1063012150+1063045586+1063116705+1063029531+1062685347
2638+1062309651+1062169271+1062296847+1062620000+1063090898+1063575064
2629+1063856488+1063856820+1063689438+1063494193+1063373980+1063428912
2621+1063640345+1063790544+1063692225+1063440920+1063289129+1063335568
2612+1063434949+1063382539+1063148284+1062902685+1062815776+1062883711
2604+1062983291+1063018585+1062987404+1062948660+1062949191+1063003061
2595+1063140323+1063411530+1063827762+1064314250+1064701092+1064839217
2587+1064802596+1064813011+1064890897+1064841472+1064595077+1064273847
2578+1064009274+1063906112+1063958921+1063944060+1063739659+1063617125
2570+1063798770+1064001645+1063867899+1063560933+1063555095+1063976369
2561+1064389681+1064297067+1063777607+1063377895+1063384330+1063605847
2553+1063860535+1064129686+1064254476+1064055847+1063751734+1063755913
2544+1064075086+1064303768+1064198682+1063925749+1063763808+1063839040
2536+1064100097+1064341384+1064350606+1064193507+1064145342+1064249434
2527+1064267744+1064156488+1064201667+1064553812+1064977209+1065223140
2519+1065357350+1065487315+1065426014+1064979133+1064398637+1064111906
2510+1064127098+1064135258+1064056908+1064042047+1064031499+1063715113
2502+1062993176+1062266064+1062065578+1062416528+1062866130+1063170774
2493+1063511110+1063971526+1064330637+1064449986+1064440831+1064454498
2485+1064533909+1064582804+1064431211+1064065068+1063682804+1063466196
2476+1063493198+1063774821+1064113564+1064196691+1064069712+1064162923
2468+1064685501+1065336054+1065642556+1065357615+1064639394+1063962238
2459+1063680150+1063727917+1063887934+1064097576+1064329708+1064498018
2451+1064609274+1064709318+1064717744+1064590367+1064490190+1064522498
2442+1064516063+1064304166+1063992158+1063724401+1063434020+1063074909
2434+1062892601+1063150672+1063710535+1064142689+1064185413+1063909496
2425+1063543684+1063318585+1063390367+1063762680+1064291030+1064722520
2417+1064734794+1064177585+1063412326+1063101446+1063451203+1063924091
2408+1063899611+1063399456+1062996692+1063160756+1063810247+1064441627
2400+1064596072+1064195232+1063535789+1063065953+1063055139+1063325816
2391+1063434087+1063238244+1063057992+1063166395+1063453989+1063740853
2383+1064068186+1064486010+1064808434+1064777585+1064360424+1063790079
2374+1063390632+1063388045+1063770243+1064246713+1064372764+1063858346
2366+1062893264+1062135104+1062183667+1063020111+1064041052+1064587978
2357+1064386298+1063642468+1062850341+1062408766+1062336453+1062395232
2349+1062396294+1062309187+1062208413+1062170597+1062126413+1061875573
2340+1061323141+1060649899+1060258214+1060492403+1061282672+1062141672
2332+1062682362+1062944082+1062980703+1062540987+1061573583+1060590390
2323+1060136940+1060186896+1060383535+1060572942+1060749877+1060815092
2315+1060707882+1060541761+1060447489+1060445897+1060571947+1060952818
2306+1061577962+1062102132+1062142203+1061741495+1061263167+1060859674
2298+1060371527+1059772257+1059389926+1059584442+1060341474+1061230859
2289+1061698837+1061431080+1060593840+1059843442+1059917945+1060913079
2281+1062036520+1062405449+1061994790+1061493176+1061414561+1061685436
2272+1061895542+1061751115+1061425507+1061455162+1062092645+1062899102
2264+1063235060+1062983025+1062499788+1062048063+1061614185+1061185481
2255+1060900872+1060939948+1061429488+1062317015+1063219668+1063663631
2247+1063610557+1063378624+1063014538+1062342955+1061682252+1061716086
2238+1062454941+1063028271+1062769867+1062036055+1061768895+1062490168
2230+1063729708+1064365665+1063615931+1061696117+1059561222+1058299259
2221+1058530462+1059784132+1060756113+1060855229+1060972654+1062037382
2213+1063585148+1064518253+1064501932+1063963565+1063460093+1063445630
2204+1064126700+1065401600+1067086496+1068707437+1069023426+1066902263
2196+1063133224+1060221461+1059781810+1061133070+1062792623+1064096249
2187+1064814073+1064556996+1063447222+1062471725+1062411354+1063048903
2179+1063887271+1065020198+1066807394+1069055270+1070872386+1071337047
2170+1070312921+1068790033+1068075461+1068047464+1066815487+1063462746
2162+1060399059+1060930063+1064680924+1067871392+1068265266+1066695342
2153+1064680725+1063249191+1063008766+1063893175+1065058942+1065541782
2145+1065057549+1064154232+1063678624+1064163122+1065591936+1067344302
2136+1068282714+1067547774+1065588155+1063876988+1063430305+1064013122
2128+1064717943+1064888045+1064506444+1064059164+1064071105+1064584263
2119+1065116262+1065210203+1064824356+1064108191+1063139394+1062117391
2111+1061524025+1061760735+1062661530+1063547731+1063862127+1063703503
2102+1063546537+1063515422+1063302596+1062793817+1062311309+1062180217
2094+1062429200+1062862548+1063099456+1062773185+1062064383+1061728492
2085+1062233490+1063216550+1064024666+1064327518+1063959849+1062822344
2077+1061341385+1060406091+1060477608+1061227741+1062069226+1062512857
2068+1062285635+1061675020+1061365534+1061565556+1061833844+1061815931
2060+1061531920+1061178846+1061071040+1061252088+1061127763+1060255361
2051+1059123363+1058336145+1057778604+1057439728+1057995079+1059687936
2043+1061800805+1063586674+1064673693+1064753370+1064015975+1063611950
2034+1064577828+1066313343+1066980879+1065669822+1063603060+1062836077
2026+1064052264+1066015267+1066998460+1066273935+1064259053+1061775728
2017+1059479754+1057783049+1057066154+1057656468+1059322655+1061217192
2009+1062843706+1064547510+1066443307+1067766040+1067933952+1067208632
2000+1065851136+1063736674+1061341650+1060070797+1060773230+1062469470
1992+1063288731+1062670553+1061623472+1060781522+1059771461+1058580683
1983+1058061687+1058665136+1059614893+1059696958+1058637007+1057822722
1975+1059126813+1062419779+1065138752+1065128336+1063145431+1061734529
1966+1062162902+1063364095+1063901335+1063819137+1063865378+1063765533
1958+1062602486+1060737206+1059847953+1060885016+1063004056+1064657704
1949+1064968385+1063936563+1062037249+1060023495+1058739838+1058631766
1941+1059402000+1060410536+1061151978+1061325330+1061011995+1060697002
1932+1060657130+1060628869+1060412725+1060262593+1060358457+1060452066
1924+1060216618+1059551735+1058579953+1057755119+1057821262+1059059210
1915+1060748948+1061945697+1062287161+1061977143+1061520974+1061350474
1907+1061399965+1061198550+1060488024+1059553128+1058880086+1058692801
1898+1058885924+1059233358+1059532960+1059611907+1059367370+1058984840
1890+1058976415+1059581257+1060277852+1060446295+1060102310+1059647533
1881+1059321660+1059133181+1058992668+1058739971+1058331368+1057981280
1873+1057874270+1057918188+1057983735+1058128029+1058322080+1058302178
1864+1057998463+1057719626+1057772766+1058074358+1058313191+1058389882
1856+1058443288+1058550961+1058643973+1058667193+1058657441+1058701558
1847+1058884398+1059171461+1059289882+1058996981+1058519117+1058225619
1839+1058136587+1057981678+1057586477+1057069670+1056624845+1056338711
1830+1056287760+1056565336+1057078759+1057469914+1057367481+1056861953
1822+1056522015+1056698684+1057119626+1057258945+1056962262+1056499856
1813+1056144262+1055969649+1055910670+1055851758+1055730551+1055575642
1805+1055425376+1055285859+1055217327+1055349547+1055656115+1055861378
1796+1055738578+1055344439+1054979158+1054981082+1055372037+1055834178
1788+1056133249+1056247358+1056221882+1056060869+1055793842+1055602975
1779+1055679136+1055934686+1056090790+1056003019+1055738379+1055466575
1771+1055327654+1055332696+1055377610+1055337606+1055179446+1054969671
1762+1054784244+1054642206+1054510715+1054367349+1054258017+1054260273
1754+1054372259+1054513833+1054613347+1054615470+1054439596+1054048575
1745+1053529645+1053020335+1052583471+1052229933+1052025731+1052031835
1737+1052142029+1052075621+1051605055+1051007311+1050687143+1050570049
1728+1050479690+1050420181+1050457930+1050579536+1050721309+1050841654
1720+1050911380+1050904414+1050843379+1050780354+1050719916+1050690924
1711+1050777965+1051006316+1051210783+1051086324+1050557576+1050050456
1703+1050041964+1050632278+1051435948+1051732299+1051221795+1050241853
1694+1049474671+1049298731+1049540350+1049845325+1049940991+1049800677
1686+1049573189+1049343379+1049036148+1048650832+1048320580+1048158771
1677+1048237918+1048529426+1048745503+1048497714+1047688935+1046611072
1669+1045863460+1045740926+1045980952+1046368060+1046834579+1047180687
1660+1047207821+1047047471+1046985043+1047147449+1047393844+1047398356
1652+1047264145+1047438227+1047967772+1048661580+1049100766+1049017174
1643+1048627679+1048224516+1048014211+1048095016+1048361580+1048479072
1635+1048199240+1047803840+1047645083+1047794220+1048134954+1048445834
1626+1048617130+1048745635+1048909235+1049032964+1049060164+1049060496
1618+1049127701+1049269408+1049373432+1049348156+1049166312+1048804945
1609+1048303796+1047838338+1047609590+1047625910+1047660939+1047458130
1601+1046993004+1046493712+1046211094+1046252757+1046577967+1047045149
1592+1047490505+1047801783+1047934999+1047921996+1047866666+1047863415
1584+1047931350+1048041743+1048145702+1048156980+1048032986+1047934004
1575+1048091036+1048361580+1048469054+1048343535+1048043004+1047680045
1567+1047341965+1047079780+1046979338+1047121443+1047456074+1047644751
1558+1047272637+1046834247+1046798223+1047022593+1047321067+1047544574
1550+1047564477+1047388869+1047193557+1047148511+1047318811+1047677259
1541+1048071531+1048232610+1048190018+1048223389+1048375777+1048534401
1533+1048588935+1048539178+1048460363+1048406162+1048385397+1048350500
1524+1048276927+1048246078+1048334512+1048455719+1048530952+1048625224
1516+1048738736+1048726064+1048520204+1048262862+1048174693+1048320713
1507+1048415052+1048153398+1047868656+1047823743+1047930487+1048045193
1499+1048065295+1047939643+1047673477+1047324782+1046958705+1046637675
1490+1046452315+1046452713+1046541412+1046574384+1046453111+1046109126
1482+1045549860+1044861492+1044063328+1043076155+1041927968+1040835244
1473+1039922839+1039023569+1038019743+1037028523+1036205746+1035741681
1465+1035790576+1036171049+1036508333+1036673658+1036779474+1037024343
1456+1037496435+1038065055+1038621800+1039085599+1039359327+1039447894
1448+1039469522+1039439601+1039196191+1038650526+1037986108+1037558001
1439+1037605900+1038142543+1039000946+1039927416+1040764059+1041427548
1431+1041817177+1041937588+1041983630+1042152338+1042504947+1042972793
1422+1043375093+1043504063+1043249308+1042777349+1042436748+1042328344
1414+1042340750+1042363705+1042302338+1042058132+1041622595+1041154218
1405+1040887522+1040930910+1041202582+1041579671+1041943161+1042138406
1397+1042103975+1041963329+1041872838+1041880136+1041953577+1042037964
1388+1042053355+1041949994+1041756275+1041454483+1040937146+1040208509
1380+1039501167+1039074785+1038976996+1039106099+1039370804+1039669544
1371+1039847407+1039803423+1039583697+1039338894+1039204086+1039251189
1363+1039482458+1039786041+1040012202+1040076487+1039875139+1039273812
1354+1038312512+1037293030+1036545816+1036226246+1036340354+1036803357
1346+1037452782+1038116271+1038702538+1039200769+1039603666+1039904595
1337+1040182104+1040544665+1040947960+1041212002+1041261825+1041223612
1329+1041215253+1041210012+1041169145+1041137964+1041161250+1041222750
1320+1041258774+1041187323+1040996655+1040805589+1040725713+1040713971
1312+1040653732+1040554019+1040543139+1040654196+1040731817+1040650547
1303+1040501808+1040413108+1040341989+1040253555+1040284205+1040486881
1295+1040649221+1040598402+1040442034+1040338938+1040286129+1040256673
1286+1040301852+1040419079+1040495174+1040446213+1040307491+1040157624
1278+1040019897+1039853312+1039614214+1039282105+1038810544+1038098293
1269+1037052605+1035672354+1034060103+1032401413+1030941816+1029937526
1261+1029601104+1030018530+1031056123+1032390997+1033703049+1034822442
1252+1035712159+1036401854+1036944335+1037364082+1037633897+1037726112
1244+1037672176+1037585002+1037644909+1037972574+1038464237+1038851742
1235+1038974608+1038905081+1038806961+1038764834+1038745661+1038662401
1227+1038468682+1038202450+1037944909+1037754772+1037641791+1037595484
1218+1037616382+1037688762+1037729297+1037648890+1037470893+1037299863
1210+1037192388+1037154109+1037221446+1037423790+1037694202+1037918571
1201+1038053246+1038131132+1038173392+1038169146+1038119389+1038033012
1193+1037887258+1037648027+1037306763+1036876068+1036392499+1035945485
1184+1035653778+1035549355+1035493163+1035289492+1034971381+1034863906
1176+1035216051+1035876423+1036501964+1036923304+1037132747+1037103224
1167+1036838187+1036473570+1036189824+1036040487+1035889094+1035526799
1159+1034911872+1034251500+1033810789+1033706963+1033907648+1034328325
1150+1034887524+1035493362+1035992588+1036225250+1036204485+1036114591
1142+1036062778+1035986750+1035860235+1035792433+1035845441+1035915100
1133+1035854065+1035613773+1035214525+1034653004+1033924831+1033176622
1125+1032719325+1032695707+1032786264+1032512204+1031818662+1031079542
1116+1030552386+1030141993+1029671427+1029100286+1028490799+1027948318
1108+1027552387+1027267049+1026990136+1026691264+1026420190+1026230318
1099+1026149911+1026136245+1026027775+1025673905+1025137793+1024660659
1091+1024403981+1024318532+1024290801+1024310637+1024426537+1024621849
1082+1024804954+1024876205+1024798717+1024637174+1024486842+1024323109
1074+1024042880+1023704136+1023564153+1023794826+1024309907+1024945334
1065+1025651680+1026391795+1026976536+1027174568+1026973750+1026614971
1057+1026335338+1026139694+1025850110+1025360504+1024805750+1024451349
1048+1024443587+1024705241+1025028593+1025228217+1025254157+1025161477
1040+1024928549+1024428527+1023691199+1023020943+1022698652+1022708139
1031+1022829479+1022861389+1022748276+1022637152+1022746286+1023061611
1023+1023302168+1023266409+1023076007+1023009465+1023218178+1023653981
1014+1024189032+1024718178+1025136466+1025345909+1025401636+1025489407
1006+1025616187+1025545334+1025251039+1025171760+1025745024+1026870057
997+1028027067+1028773749+1029017491+1028957915+1028880494+1028929720
989+1028995930+1028822113+1028269548+1027496726+1026865745+1026682640
980+1027017536+1027691308+1028397257+1028896814+1029097035+1028878968
972+1027960923+1026120588+1023600973+1021209532+1019894628+1020098896
963+1021511589+1023473464+1025489938+1027292856+1028709928+1029723506
955+1030481665+1031078282+1031476535+1031704553+1031897477+1032070895
946+1032065389+1031810966+1031487614+1031317114+1031311608+1031331776
938+1031337415+1031470298+1031842346+1032300904+1032554597+1032538542
929+1032449378+1032388410+1032227994+1031882417+1031454642+1031083722
921+1030839516+1030730250+1030697676+1030687592+1030745111+1030919458
912+1031095000+1031051612+1030713333+1030294182+1030145443+1030395089
904+1030815036+1031125916+1031280029+1031341860+1031307494+1031163067
895+1030938300+1030645531+1030305991+1030040224+1029986354+1030083545
887+1030039759+1029654244+1029147389+1028969127+1029238411+1029580936
878+1029575960+1029186398+1028702232+1028376292+1028196438+1028055793
870+1028051613+1028381401+1028919437+1029203714+1028950618+1028359043
861+1027843696+1027663909+1027825585+1028148805+1028383988+1028390888
853+1028247655+1028134873+1028128570+1028176602+1028224634+1028254886
844+1028241883+1028181777+1028108469+1027976381+1027659464+1027218619
836+1026966917+1027013688+1026911852+1026107386+1024680960+1023329700
827+1022599205+1022375631+1022173022+1021715392+1021097878+1020470147
819+1019791598+1018966366+1018061457+1017258318+1016668203+1016226628
810+1015645005+1014464444+1012358142+1009462433+1006269113+1003141007
802+1000098748+997241584+995227564+994977255+996783689+999945962+1003406310
792+1006599232+1009563937+1012377780+1014757080+1016379680+1017444142
783+1018556570+1020028838+1021578993+1022754512+1023394914+1023671031
775+1023903561+1024308580+1024745843+1024816431+1024381424+1023834896
766+1023632221+1023717670+1023762318+1023741221+1023756546+1023498408
758+1022559665+1021156260+1019893036+1018963248+1018143656+1017389344
749+1016903453+1016751927+1016793855+1016925677+1017152833+1017428087
741+1017582400+1017503253+1017282599+1017046088+1016729171+1016213891
732+1015619663+1015234347+1015189698+1015397151+1015781936+1016344253
724+1016964355+1017408915+1017663404+1018036048+1018721630+1019431625
715+1019699582+1019460683+1019086579+1018809069+1018419971+1017735783
707+1016938813+1016127712+1015038040+1013700512+1012866059+1013233330
698+1014667717+1016589454+1018694031+1020911125+1022990359+1024520809
690+1025295555+1025467315+1025310814+1024954754+1024452543+1024033990
681+1024118908+1024974060+1026323927+1027365169+1027366032+1026341375
673+1025013932+1024084808+1023797015+1024085339+1024614817+1024988921
664+1025162539+1025223441+1025211698+1025197236+1025287196+1025473485
656+1025617580+1025678151+1025801017+1026075077+1026407585+1026702144
647+1026875431+1026668243+1025838036+1024645997+1023844184+1023987815
639+1024831623+1025499690+1025325940+1024546285+1024059067+1024491818
630+1025617448+1026622733+1026877885+1026496152+1026079854+1025914860
622+1025738058+1025391420+1025271406+1025871340+1027069946+1028120742
613+1028354399+1027791618+1027101459+1026951724+1027314683+1027488765
605+1026953714+1026081247+1025642857+1025673242+1025397324+1024482729
596+1023692128+1023829987+1024635582+1025296218+1025624878+1025969460
588+1026352852+1026582131+1026794692+1027096151+1027056877+1026254533
579+1024905528+1023521960+1022501681+1022236113+1022983260+1024552322
571+1026481689+1028385050+1029946084+1030808799+1030668950+1029465898
562+1027522732+1025496638+1024086334+1023718466+1024291265+1025068399
554+1025157696+1024463423+1023961411+1024672999+1026422711+1027897500
545+1027999866+1026920477+1025750398+1025293100+1025466519+1025681866
537+1025592768+1025337815+1025140513+1025117227+1025543343+1026652719
528+1028034895+1028866429+1028844205+1028360636+1027816098+1027398208
520+1027270963+1027457982+1027754400+1027803029+1027101857+1025472556
511+1023702013+1022973773+1023505640+1024444980+1025166121+1025966342
503+1027380362+1029214660+1030493275+1030476491+1029341241+1027790822
494+1026417868+1025532264+1025179854+1025069527+1024962251+1025276316
486+1026567071+1028211565+1028628327+1027414793+1026095046+1026203449
477+1027666695+1029464572+1031141174+1032894867+1034526887+1035264415
469+1034766118+1033613420+1032800727+1032939780+1033974389+1035508621
460+1037086108+1038055104+1037620296+1035912314+1034470098+1034782637
452+1036789160+1038682171+1038712556+1037137722+1035692389+1035408709
443+1035630823+1035262358+1034359638+1033967754+1034506520+1034803734
435+1033491881+1031692014+1032339383+1036015609+1039499575+1039999398
426+1038694113+1038096236+1038008133+1036381088+1032728746+1028842148
418+1026898053+1026768022+1027202233+1028015722+1029474457+1031120940
409+1032204044+1033141262+1034763928+1036133764+1035397099+1032630095
401+1029543320+1026986222+1024831822+1023487661+1023244251+1023709111
392+1024787439+1026508558+1028397588+1030125275+1032340709+1035977130
384+1040333564+1043058375+1043094133+1041816845+1041439888+1043305832
375+1047219630+1051211512
##END=
