##TITLE=X7375
##JCAMP-DX=4.24
##DATA TYPE=INFRARED SPECTRUM
##DATE=26/10/2018
##SAMPLING PROCEDURE=Diamant-ATR
##ORIGIN=ComPlat
##XUNITS=1/CM
##YUNITS=TRANSMITTANCE
##RESOLUTION=4
##FIRSTX=3997.453
##LASTX=373.96442
##DELTAX=-1.4165319
##MAXY=0.9708147
##MINY=0.4334721
##XFACTOR=1
##YFACTOR=9.0414165e-010
##NPOINTS=2559
##FIRSTY=0.96160531
##XYDATA=(X++(Y..Y))
3997+1063556036+1063050728+1061940634+1060757957+1059824605+1059478438
3989+1060198592+1061871941+1063487409+1064050532+1063476070+1062503295
3980+1061952302+1061860602+1061391751+1060029760+1058470196+1057607119
3972+1057303209+1057041821+1057012616+1057647069+1058505927+1058406909
3963+1056950516+1055508692+1055751754+1057415676+1058963835+1059841481
3955+1060327539+1059809970+1056982423+1051933237+1047254214+1045875018
3946+1047169766+1047526019+1045639669+1044662346+1047515142+1052652402
3938+1056692621+1057622347+1054544289+1047679161+1040153737+1037175949
3929+1040310372+1045170884+1046776199+1044813905+1043086498+1043692604
3921+1044227247+1042091771+1038815413+1038932495+1044416120+1052273669
3912+1058426291+1061080325+1059962650+1054282044+1043120515+1028212327
3904+1015274213+1009646016+1011197340+1017554524+1027510105+1038279649
3895+1044949841+1044064547+1037199089+1031852849+1033264678+1036747509
3887+1035596871+1030038159+1025589343+1023708069+1022715649+1025457099
3878+1033768535+1041226980+1041187887+1034324076+1025979811+1019409758
3870+1016416544+1018945850+1023611227+1024421367+1021635155+1022136770
3861+1029022995+1037109564+1040694380+1037407540+1025731607+1006062123
3853+991659770+998818656+1018216533+1035311684+1044746465+1045949183+1040415060
3843+1030740909+1019416877+1008539481+1001734871+1003293117+1011831397
3835+1021051661+1027684342+1032676042+1036946006+1039259346+1038792208
3826+1037030587+1034476691+1028042903+1016873265+1009481799+1012513117
3818+1019823695+1026297235+1034256966+1044478418+1052489702+1054191068
3809+1048582517+1038786737+1031252149+1027672080+1022611555+1014333279
3801+1010396231+1015250546+1023732000+1032701225+1042940411+1053035684
3792+1059659333+1061849065+1061151985+1058738902+1054883534+1051262065
3784+1050096462+1050288301+1048800528+1046285593+1047068177+1052003908
3775+1057051182+1058218169+1054000153+1046186839+1039742964+1037932164
3767+1038955832+1040654364+1042469120+1042220191+1037219591+1029498966
3758+1025540295+1027042967+1028147590+1022476081+1007904106+991108316+985119449
3748+990098228+995567086+997406300+1000425093+1008640939+1017299794+1020225633
3738+1013951118+999081232+984803739+984732079+1000022099+1018779392+1031009879
3728+1033796816+1029193474+1022630541+1019712415+1021860681+1027245815
3720+1034121426+1040924850+1045291788+1044450532+1036367589+1022357879
3711+1011276646+1013706342+1027030046+1040889647+1049120721+1050143532
3703+1045740467+1041564379+1042658783+1047486860+1051455683+1052034496
3694+1048443945+1039987476+1026935907+1014017042+1010660455+1019841296
3686+1033831163+1045327058+1051040626+1049834216+1042535901+1030804723
3677+1015581880+1001727817+999492927+1006809240+1011285217+1010621230
3669+1014713067+1027969595+1042551129+1052116110+1056280398+1057198060
3660+1056099437+1052191593+1045157765+1038287955+1034503192+1029460203
3652+1015551028+991708818+973017448+978313256+1000370573+1021872283+1035858656
3642+1042943971+1046147614+1047676589+1047780288+1046027698+1042711786
3633+1038208121+1030923452+1018298806+1004601181+1003628143+1016875573
3625+1030920024+1037242401+1034110878+1023561982+1012271967+1007982028
3616+1009716225+1011128449+1010731455+1011338615+1013357010+1014830017
3608+1017005245+1022840245+1030424539+1034593574+1033233957+1029060835
3599+1025988117+1024622237+1023361638+1022560596+1024337841+1027779338
3591+1027769516+1020237631+1008544953+1003655303+1010214017+1020753355
3582+1028404364+1032248393+1034060908+1035222423+1036042518+1036414395
3574+1036162368+1034402131+1028783691+1016561181+998937254+985787721+987486451
3564+1000123556+1013077097+1021564616+1026507335+1029604708+1030539906
3555+1028221820+1023389393+1019154302+1017814528+1017247582+1013392873
3547+1006311382+1001460891+1003439666+1010543967+1017755856+1021509899
3538+1021197221+1018996282+1018035440+1019208689+1020366447+1018956200
3530+1014540346+1008851434+1003885774+1000505520+999296012+1001227388
3521+1006022569+1011285348+1014628223+1015641080+1015223649+1013889808
3513+1011315344+1007409676+1003603817+1002074314+1002650292+1002204843
3504+998788529+994952675+994829001+998481785+1002284348+1003809434+1003748058
3495+1003693407+1003661434+1002578171+1000376573+998365824+997510724+997208528
3485+996163633+994074764+992272204+992588178+995230215+998278409+999681074
3475+999179261+998011615+997198244+996711198+996099950+995323827+994703614
3465+994256385+993641907+992881869+992473272+992593452+992820231+992704270
3455+992121304+991104954+989541829+987023203+983332974+979388081+976983107
3445+976864115+977922525+978761210+978859766+978070458+976220630+973618412
3435+971095038+969145797+967538240+965893304+964169062+962496701+960903252
3425+959189360+957004242+954377170+952201019+951566302+952462671+953698944
3415+954072733+953192055+951394900+949312492+947552387+946562868+946485671
3405+947024797+947635056+947856627+947374458+946135614+944743035+944160201
3395+944627405+945471891+946183014+946894663+947740666+948542830+949275641
3386+950286915+951859730+953715425+955125672+955655503+955730195+956257785
3376+957637113+959304265+960376981+960614241+960485294+960448376+960633821
3366+961145127+962115265+963461565+964943141+966350751+967502114+968317660
3356+968943213+969590784+970372248+971377655+972632123+973941308+975096033
3346+976132490+977044746+977468176+977125371+976424533+976141917+976609714
3336+977600024+978870644+980394477+982037897+983339896+983830503+983652310
3326+983735111+985003423+987360733+989733339+991152155+991547040+991536229
3316+991721805+992219333+992669924+992662277+992296266+992347094+993568666
3306+995730907+997741919+998824721+999155001+999354025+999845818+1000637500
3296+1001317110+1001474801+1001340448+1001622273+1002625900+1003981034
3288+1005184279+1005944581+1006193839+1006259170+1006814052+1008181119
3279+1009767448+1010552076+1010129898+1009133852+1008677131+1009420424
3271+1011111705+1012989880+1014522020+1015572585+1016076969+1016032536
3262+1015771609+1015775235+1016189699+1016755855+1017137753+1017227739
3254+1017249296+1017548855+1018175067+1018757703+1018885530+1018569029
3245+1018318583+1018706480+1019779855+1021035971+1022000637+1022604172
3237+1022975456+1023122071+1022960425+1022613269+1022536006+1023168283
3228+1024460658+1025917051+1027040066+1027598245+1027692187+1027728775
3220+1028011721+1028287019+1028129659+1027745124+1027795556+1028442138
3211+1029216284+1029874667+1030681247+1031709069+1032504112+1032665428
3203+1032324140+1031904072+1031693511+1031758907+1032089055+1032638531
3194+1033173241+1033367387+1033395273+1034002829+1035421711+1036716195
3186+1036935986+1036370753+1035960904+1036111079+1036662533+1037342012
3177+1037771968+1037572944+1036804270+1036083061+1036101586+1036981671
3169+1038117871+1038809217+1038974290+1039013383+1039151560+1039248271
3160+1039139628+1038945416+1039052674+1039721341+1040642563+1041107394
3152+1040763864+1040052214+1039777640+1040316767+1041318614+1042163298
3143+1042537285+1042495753+1042268909+1042174308+1042375112+1042621866
3135+1042629447+1042627272+1043032111+1043717457+1044154401+1044082346
3126+1043620747+1042966451+1042328043+1041968889+1042031582+1042414996
3118+1042970142+1043689307+1044574931+1045473079+1046150185+1046389489
3109+1046020446+1045179256+1044461014+1044318486+1044329232+1043609342
3101+1041989259+1040297847+1039443933+1039628916+1040482038+1041617448
3092+1042833680+1043817991+1044031387+1043244518+1041999609+1041128094
3084+1040922081+1041130071+1041539657+1042165210+1042982404+1043747782
3075+1044061976+1043681331+1042903757+1042373201+1042263437+1042070412
3067+1041496477+1041043513+1041347621+1042252691+1042870004+1042454485
3058+1041186436+1040098888+1040058872+1040840533+1041445847+1041216300
3050+1040344587+1039493969+1039231526+1039663987+1040326392+1040580331
3041+1040295473+1039919113+1039780937+1039695697+1039324874+1038549608
3033+1037544135+1036847977+1037116156+1038351770+1039719166+1040455141
3024+1040595098+1040565366+1040533195+1040405962+1040061509+1039371746
3016+1038241940+1036804006+1035525608+1034983514+1035357963+1036146282
3007+1036588500+1036424943+1036015555+1035736564+1035578281+1035359611
2999+1034967033+1034303244+1033318472+1032213717+1031370022+1030932550
2990+1030580647+1029812369+1028428294+1026671419+1024891933+1023219309
2982+1021589997+1019897332+1018043087+1016009727+1013886776+1011687749
2973+1009199381+1006063903+1001814178+995853592+987655612+976893649+963245071
2963+946527071+927386957+907501638+888904541+873587294+863918747+862590708
2953+870981845+887208448+906322126+922986661+934114041+939215439+939105016
2944+934864784+927435345+917235055+904002326+887210096+866647408+842750217
2934+816711287+790250839+764779581+740332584+715248564+687053062+653919785
2924+615790326+574809653+535196079+502554497+482601903+479429408+493762838
2914+522288059+558897376+597213401+632630483+662758152+686826481+705224027
2904+719288255+730785337+741230403+751586340+762267019+773200846+784135860
2894+795079905+806286262+817810175+829402121+840895379+852369717+863778395
2884+874589010+883880999+890658383+893949573+892728529+886205480+874872812
2874+861530649+850572958+845229026+845231267+847520874+849112477+848773628
2864+846326727+841419475+833167766+820314496+801474204+775401917+740990836
2854+697374191+645627599+592138570+549951488+533923910+551673291+598313804
2844+659940823+722247386+776720331+820935698+855648448+882521382+903332999
2834+919644709+932594493+943092166+952038252+960034505+967098461+973075725
2825+978154709+982648881+986560350+989773091+992477162+995031388+997519030
2815+999744361+1001614757+1003258375+1004803106+1006313096+1007929091
2806+1009757428+1011618265+1013144076+1014135243+1014712672+1015187325
2798+1015838390+1016736737+1017763635+1018763175+1019594675+1020141448
2789+1020427756+1020674312+1021143493+1021965829+1023099591+1024389723
2781+1025638720+1026604836+1027065843+1027120428+1027279700+1027942434
2772+1028949028+1029900180+1030588558+1030907894+1030822457+1030607940
2764+1030653493+1030970983+1031327830+1031708014+1032210948+1032722980
2755+1033069015+1033273907+1033425268+1033511233+1033551052+1033661870
2747+1033889374+1034127953+1034255647+1034219191+1033991556+1033552963
2738+1032923059+1032172844+1031399621+1030690609+1030093799+1029652174
2730+1029450248+1029578932+1030063474+1030836367+1031694038+1032343785
2721+1032708147+1033099076+1033784950+1034519409+1034879223+1034907768
2713+1034970000+1035120439+1035059920+1034658905+1034156036+1033837491
2704+1033761283+1033838282+1033996764+1034170408+1034220246+1034023331
2696+1033676373+1033503718+1033747967+1034266789+1034674001+1034772294
2687+1034648357+1034397582+1034069544+1033841249+1033846193+1033889703
2679+1033690349+1033306869+1033004278+1032836633+1032662330+1032464096
2670+1032389998+1032453746+1032417752+1032108964+1031673931+1031316755
2662+1031033545+1030872691+1031083384+1031599503+1031775652+1031138101
2653+1030100127+1029477475+1029542081+1029915342+1030177720+1030229206
2645+1030139814+1029973487+1029786593+1029618552+1029469762+1029413463
2636+1029658898+1030340882+1031269158+1032024515+1032327370+1032283794
2628+1032275949+1032584144+1033085167+1033401008+1033393229+1033346687
2619+1033511036+1033676835+1033515980+1033158144+1033024582+1033210554
2611+1033456187+1033656200+1033961165+1034378002+1034662135+1034702414
2602+1034740782+1035051086+1035541034+1035823584+1035646051+1035130657
2594+1034584476+1034195920+1034037637+1034252285+1034933874+1035811915
2585+1036400419+1036527587+1036410769+1036276943+1036281097+1036629241
2577+1037322894+1037934207+1038022479+1037620541+1037080689+1036696682
2568+1036635043+1036892476+1037155315+1037092555+1036932756+1037273517
2560+1038128683+1038749687+1038652977+1038217483+1037975476+1037989913
2551+1038192036+1038609071+1038965259+1038772497+1038158744+1037990309
2543+1038770124+1039821150+1039970995+1038858264+1037220316+1036014302
2534+1035615792+1035804136+1036156303+1036356448+1036315905+1036162763
2526+1036153402+1036473793+1036992680+1037307797+1037222228+1037022083
2517+1037037575+1037092621+1036666159+1035528376+1034082861+1033141597
2509+1033271468+1034207984+1035067370+1035362512+1035575248+1036366864
2500+1037471091+1037961434+1037608609+1037275692+1037688904+1038468324
2492+1038803218+1038524359+1037980420+1037348802+1036686463+1036366336
2483+1036831364+1037903421+1038763729+1038845409+1038570374+1038911267
2475+1040221836+1041733342+1042283808+1041448550+1039957151+1039083263
2466+1039570309+1041062433+1042579147+1043417041+1043462661+1042955705
2458+1042383155+1042397329+1043289017+1044606508+1045679422+1046322049
2449+1046624574+1046496088+1046035741+1045851088+1046182751+1046225932
2441+1045268122+1043997832+1043660894+1044340241+1045043914+1045157106
2432+1044981880+1045035740+1045445457+1046016095+1046589107+1047153812
2424+1047527074+1047240436+1046193563+1045090984+1044621737+1044567349
2415+1044326859+1043902242+1043772042+1044153149+1044856360+1045584227
2407+1046089996+1046267991+1046262124+1046313479+1046391137+1046159810
2398+1045471761+1044733610+1044509732+1044829463+1045160995+1045064021
2390+1044629252+1044230675+1043983395+1043575457+1042700843+1041625227
2381+1041135939+1041857081+1043744618+1046344859+1049451000+1053253893
2373+1057697896+1062001020+1065286739+1067530463+1069369479+1071178038
2364+1072778212+1073741823+1073588022+1072076385+1069584325+1066892714
2356+1064307240+1061125945+1056665592+1051995667+1049468009+1050542570
2347+1054867251+1060628878+1065517341+1068209084+1068814860+1068046779
2339+1066741748+1065488335+1064259049+1062781165+1061100169+1059542384
2330+1058343622+1057354894+1056064959+1054065945+1051448102+1048660242
2322+1046196464+1044485406+1043677507+1043361270+1042822077+1041693062
2313+1040177733+1038736898+1037713889+1037213262+1037254926+1037868415
2305+1038848705+1039723583+1040371286+1041294222+1042760900+1044045099
2296+1044121505+1042952079+1041618437+1041154727+1041455670+1041535636
2288+1040913116+1040309515+1040642629+1041804870+1042933621+1043591938
2279+1044206481+1045378478+1047079845+1048653517+1049469195+1049418763
2271+1048834545+1048143266+1047581197+1047032973+1046240435+1045391004
2262+1045270363+1046416122+1048223100+1049390548+1049352180+1048715947
2254+1048104766+1047280782+1045893411+1044549286+1044343669+1045300490
2245+1046064879+1045655425+1044774549+1044657270+1045455544+1046533335
2237+1047536303+1048586736+1049968504+1051444279+1051614494+1049324360
2228+1046058221+1044812323+1046175829+1047658065+1047208068+1045441106
2220+1044145436+1044310707+1045865129+1048102129+1049945760+1050457462
2211+1049591946+1048270169+1047512636+1047866385+1049537492+1052197922
2203+1054648911+1055749380+1055836532+1056172085+1056899556+1056647199
2194+1054396092+1050788401+1047205101+1044437281+1042679220+1042074301
2186+1042693328+1044177145+1045594577+1045904618+1045020050+1044214392
2177+1044842450+1046975290+1049549161+1051099628+1050509806+1048275443
2169+1046614620+1046919914+1047624707+1046116630+1042334437+1038844947
2160+1037795965+1039219264+1042089925+1045516457+1048172734+1048234834
2152+1045011150+1039794847+1034929720+1032685733+1034125381+1037822466
2143+1040637421+1040923927+1040005474+1040065926+1041830778+1044326793
2135+1045830124+1045173982+1042700250+1039760698+1037381237+1035793193
2126+1034894715+1034595090+1034706634+1034818045+1034529957+1033823120
2118+1033016276+1032337061+1031807427+1031500221+1031563377+1032037107
2109+1032772225+1033314384+1033022209+1031848168+1030761477+1030718363
2101+1031504506+1032151419+1032037502+1031062552+1029376611+1027548143
2092+1026504368+1026721456+1027618682+1028211668+1028361447+1028771429
2084+1029649471+1030235074+1029904729+1028880995+1027693044+1026855677
2075+1026992272+1028235137+1029711110+1030419134+1030102830+1028829442
2067+1026717105+1024626654+1024000113+1025312791+1027481296+1029155436
2058+1029893126+1029884885+1029364481+1028758376+1028685332+1029162688
2050+1029350769+1028709262+1027843153+1027551241+1028047056+1029539114
2041+1031847180+1033264348+1032195654+1030041785+1029586447+1030468642
2033+1029630880+1026572072+1024235329+1024388801+1025559743+1025780127
2024+1025039602+1024440617+1024134268+1023014021+1020707670+1018854282
2016+1018984218+1020318191+1021483068+1022688159+1024378780+1025476151
2007+1024921928+1023624214+1022905181+1022352144+1020821652+1018670288
1999+1017593947+1018079082+1018090882+1015442648+1011014335+1008178548
1990+1008662693+1010778393+1012275000+1012723810+1012803051+1012979793
1982+1013418452+1014175193+1015091669+1016052248+1017274545+1018876169
1973+1020471728+1021239610+1020108948+1016893438+1013796987+1013873657
1965+1017042756+1020132680+1021149558+1020899377+1020431316+1019158719
1956+1016227935+1012450819+1009942806+1009918744+1011383707+1012241247
1948+1011150732+1008049336+1003980111+1001202535+1001985250+1005970686
1939+1010537506+1013873130+1015650771+1015824810+1014555641+1012783538
1931+1011659797+1011532761+1011668762+1010514037+1006842795+1001634007
1922+997757873+996518238+996745544+997992563+1001282303+1005822291+1008523857
1912+1007531965+1004351065+1002314211+1003072008+1005262201+1006797835
1904+1007145980+1006946691+1006610215+1006008593+1005012217+1003991450
1895+1003671587+1003785305+1002509478+999041150+995939030+996363448+999561818
1885+1002514291+1003989736+1004531697+1004707055+1004877798+1005409278
1877+1006162196+1006417717+1005218493+1001295685+993658718+984078047+978571744
1867+981694894+990243722+998054861+1002101145+1002871203+1002477900+1002666311
1857+1003710943+1004833827+1005388511+1005090799+1003352514+999478951+993547241
1847+986345636+979370809+976002883+979235138+986521323+992649685+995381378
1837+996010293+996553375+996519556+993395681+986410900+979137834+976330262
1827+977544582+979474640+981874801+986104090+990853651+993339184+992889846
1817+991149255+989272530+986358754+981233888+974879011+970263473+969047768
1807+969576808+968840965+964590580+956170304+945317365+935172649+926373639
1798+915988630+901142344+881232568+859702577+846594114+849883854+863253639
1788+875120753+879134075+873907949+860381594+840550794+818710433+801109842
1778+790545190+783676897+775046784+761331426+743962822+727590330+713288050
1768+699169104+685198092+671883749+658400904+645286904+635216682+628147188
1758+621483919+614882684+609163578+603076155+595358365+588449529+587359739
1748+592877051+600481254+606317836+609543103+610776607+610689060+610025996
1738+608922494+606360423+602980631+604221321+613859543+627064387+639933281
1728+651750556+661736395+670278499+679109746+688002697+694038370+695188810
1718+694118468+699390213+715341385+735081605+751750623+762857698+767889612
1708+767536721+764179607+761510739+760929355+759595646+754713380+748833947
1698+748340308+755827034+770631326+787574654+799095139+803093957+802380462
1689+800011417+795610000+787618889+781519006+787586520+802179855+816119224
1679+825869055+830762727+832040664+832316556+832016535+829967222+829356831
1669+836612757+849481125+859127456+862132602+862144468+865257334+871717491
1659+876174416+874479576+865003329+849406894+840634781+848902180+857831653
1649+858126268+855990527+863372698+879628241+893525550+900448362+900600911
1639+894467736+883959119+877570159+885628710+901471701+912682540+916053367
1629+914001746+910650169+907965677+905483770+904889663+908666516+913688409
1619+914540081+911155674+910852226+918158453+927068940+931894973+932497848
1609+931968874+933170339+936175551+939347880+941964536+944713501+948002912
1599+950780950+951730717+951131336+950750888+951833558+953988548+956355682
1589+958697764+960972275+962826519+963988430+964583987+964490771+962484505
1579+956663613+946763409+938158677+939060583+945948456+948678963+944488107
1570+939366273+940431671+945541375+949019922+948542961+942193820+925673065
1560+899504792+887320980+901455549+919664223+931865703+938155908+940720814
1550+942681262+944186175+940760170+928805906+910403613+891305229+879088455
1540+886262042+909440332+927802740+933740648+932235800+933194269+939369965
1530+943240100+939748698+931372459+923367306+916266763+908519901+903990789
1520+906013404+910365114+915288055+923732591+933768072+938215635+932211079
1510+915554652+893290729+883699642+905215262+935729443+953648051+958787817
1500+955429054+948618444+945661752+951091518+959065620+960033780+950099493
1490+934804727+927800630+934030977+942862157+944257571+936559360+924535414
1480+913824476+903881817+887427909+856047288+806956116+755371038+735958065
1470+758934890+796058877+819005575+813681881+786329877+763683990+761626106
1460+773483199+790488957+814247575+848064483+881251158+905358251+920867204
1451+929542870+933815735+938044035+945138580+953292193+959384231+962232016
1441+961419569+956174786+947782396+942752064+946115639+952975099+957382119
1431+959406975+962283108+966207300+967878935+966150672+963342177+960240057
1421+954302940+946726887+946446842+956795263+969584324+977845789+980959248
1411+981861484+982487235+981756731+978665422+975581101+975297299+975517551
1401+971381017+961921317+951131995+943328570+940486454+943166397+948779826
1391+952058293+949694588+942969614+936654357+933525603+931445042+927923183
1381+923405542+919611220+916826392+914290493+913183958+916977819+926271655
1371+936510709+943916151+948764400+951877793+951980767+948960524+947297393
1361+951788862+960493666+967895351+971626122+973035775+974259721+975849083
1351+977092805+977783095+978535882+979621650+980216351+978467255+972377590
1341+962288579+953256001+952183813+960126535+971432767+980643604+985941060
1332+987976068+988190387+987771506+987206603+986440368+985020431+982082396
1322+977054569+970854679+965621170+962476990+960419634+958356608+956901731
1312+956973522+957838379+958040436+957427606+957016768+957415279+958266819
1302+958843390+958545414+957118027+954788207+952045109+949091449+945603805
1292+941175887+936045351+931308051+928122669+926490457+925084693+922509503
1282+918445947+913440007+907998508+902143532+895456596+887320848+877562644
1272+867207828+858194960+851881616+848012469+845284863+842486851+839016611
1262+834952593+830975595+827790279+825354387+822958906+819981580+816288319
1252+812258977+808777069+806789526+806440788+806870612+806980442+806010568
1242+803314803+798162512+790106268+779256956+765909782+750009636+731189583
1232+709422793+685819887+662943200+643873757+629974866+619168140+607122769
1222+590986614+572018892+554522132+542535136+537538491+538574454+543658580
1213+550886620+558806203+566471913+573478383+579803529+585372394+589753242
1203+592422044+593413804+593692202+594726088+597492523+601896181+607242816
1193+613060808+619225890+625562440+631736224+637528835+642996111+648266867
1183+653212948+657444676+660751952+663473757+666339276+670021659+674798777
1173+680382079+685962679+690465684+692876987+692779551+691097961+690126307
1163+692154987+697838626+705971737+714682936+722708195+729780919+736206994
1153+742270223+748001195+753306759+758112884+762368410+766060682+769330513
1143+772462761+775581099+778448595+780801225+782686191+784092943+784550324
1133+783772684+782617102+782752906+785267577+789885884+795463846+800922750
1123+805764671+810049930+814054550+817881109+821357809+824315226+826781510
1113+828706095+829700559+829496788+828657311+828406339+829633119+832295064
1103+835791872+839605708+843473008+847235291+850781212+854084137+857168458
1094+860048744+862705349+865074329+867124434+868976833+870839713+872827718
1084+874960096+877177054+879120758+880006711+878861215+874855079+867839973
1074+859297276+852527803+850741987+854487790+861397021+868503762+874365923
1064+879096762+883153857+886542549+888981738+890506098+891651067+892852927
1054+893831965+893993149+893481908+893452045+895085905+898488112+902605528
1044+906129298+908258644+908249942+904441578+895013125+880763782+866471852
1034+858146902+858623532+866035633+876044678+884781982+890189597+892208256
1024+892553632+893674670+897047540+902292982+907977676+913031674+917310011
1014+921099850+924396908+926680450+927230454+925579321+921954423+917681097
1004+914923298+915365516+918966088+924167690+929111068+932400742+933043633
994+930223865+923571869+914020073+904322321+897998626+897191518+901594122
984+909368606+918576279+927629755+935105670+940023601+942531483+943818649
975+944947400+945823728+945137063+940844751+930966961+914715110+893149717
965+869013750+846696231+831912112+829131767+837980813+853171880+868778138
955+881902817+892291518+900117292+905069636+906669611+904486867+898173918
945+887759770+874126025+859303407+846312223+838344186+837414591+843339248
935+854067524+867187391+881064791+894695438+907144264+917630995+925901755
925+932144363+936736696+940290396+943601034+947153085+950747592+953812465
915+956028237+957551346+958728287+959749516+960640611+961451278+962229380
905+962820652+962990604+962811620+962653337+962738445+962890663+962601125
895+961200833+958280729+954172411+949754249+945651468+941815548+937913176
885+934074157+931367185+931341211+934626534+940041928+945434315+949363320
875+951902449+954100949+956820578+959975833+962878863+965215408+967351346
866+969688879+972140000+974348125+976138093+977572666+978699241+979450511
856+979836694+980114828+980631870+981462644+982277003+982753172+983084836
846+983733594+984698392+985493831+985821210+985774931+985532133+985358621
836+985711974+986793523+988090578+988805986+988753774+988349528+987538135
826+985568589+982606689+980727657+982008165+986022872+990271476+992734991
816+993258625+992809419+992172329+991522319+990889382+990511110+990525284
806+990552774+989714418+987117738+982751722+978077050+975203686+975075069
796+976416359+976246473+971476409+961009390+947378018+936368445+933815867
786+941313998+954842858+968242506+977976780+984160782+988051024+990178458
776+990779091+990486191+989885887+989006263+987747905+986503392+985984174
766+986573007+988006789+989548883+990386580+990041599+988576834+986385849
756+983566741+979431525+973029842+964441658+955252839+947678961+943427258
747+942746922+943656805+942627204+937134943+927393220+915065825+900513561
737+881504241+855148150+822348120+790352692+768840368+761844512+764201362
727+766389643+760885252+743334698+712364520+673486757+640857733+627917377
717+635546500+653680877+672687033+689463112+704822747+719504486+733228151
707+745367135+755639085+764316926+771682814+777564554+781890488+785284718
697+788413076+791039884+792472544+792755952+792732483+793031316+793470832
687+793347092+792086098+789779878+787153070+785011594+784046335+785070399
677+788604651+794008574+799608423+804026716+807386270+811102802+816128651
667+820570479+822324387+822619529+823079217+824077175+825294594+826488016
657+827622964+828522695+828821001+828426116+827904987+828094123+829255967
647+830841638+832096765+832663382+832632134+832360527+832322884+832794966
637+833507011+834011726+834540766+835813231+837798730+839492912+840090183
628+839733073+839177531+839163819+839850945+840711187+841231328+841501418
618+841878504+842455866+843020967+843231528+842917268+842337928+841818315
608+841221241+840277539+839152810+838192560+837557844+837515257+838423426
598+839911068+840619355+839415912+836851468+835029592+835580387+837941917
588+840257432+841389611+841285715+840245830+838817059+837709601+837006917
578+836297509+835969735+836983844+839053133+840682181+841183533+841410246
568+842501090+844583234+846773098+848077866+848201737+847618903+847025125
558+846786019+846788722+846793403+846829859+846916351+846537551+845080763
548+842936255+841531546+841854573+843166198+843645333+842532931+841026436
538+840414397+840153338+838979166+837122943+835822592+835151486+833955822
528+831926154+830636482+831996758+835829053+839839342+841759115+840781133
518+837978307+835738671+835802222+837786073+839675323+838917593+833663449
509+824665547+815875239+811399064+812223378+817456822+826685788+838760825
499+850353958+857899159+860164374+858651418+855946688+853747331+852107405
489+850234240+847504129+843669198+839334101+836377079+836122415+837409383
479+838187023+837990174+837389672+836644137+836661278+838871116+841806647
469+841218341+835316955+827547481+823327421+824844926+829469166+832704387
459+833112786+833272783+833095382+826482478+810232078+790955501+778319516
449+773303160+770729091+770110592+776199993+791228031+811283566+828998864
439+838230071+837501215+831457104+827931027+831058132+839157820+848636704
429+856574087+860774501+860399789+856925066+852595770+847353097+841166393
419+841361989+856581141+877580246+890674666+894660036+895196790+896330815
409+897204242+895776855+892454285+888224271+881985881+871589863+856240050
399+838156632+823744259+817964239+815899169+810888285+803549163+798591809
390+797697682+796924986+792700114+789803545+796949246+811455759+821793237
380+822135251+811748989+788641568+756708636+735018186
##END=
