##TITLE=LSH-R206_F2-8
##JCAMP-DX=5.0
##DATA TYPE=LINK
##BLOCKS=1


$$ === CHEMSPECTRA SPECTRUM ORIG ===
##TITLE=LSH-R206_F2-8
##JCAMP-DX=5.00
##DATA TYPE=INFRARED SPECTRUM
##DATA CLASS=XYDATA
##$CSCATEGORY=SPECTRUM
##ORIGIN=Operator
##OWNER=
##XUNITS=1/CM
##YUNITS=TRANSMITTANCE
##XFACTOR=1.0
##YFACTOR=8.9423641e-10
##FIRSTX=3996.7798
##LASTX=399.67798
##MAXX=3996.7798
##MAXY=0.9601790330663754
##MINX=399.67798
##MINY=0.514531374804001
##NPOINTS=1747
##XYDATA= (X++(Y..Y))
1747I75413294I75651183I75541203I75267054I75252457I75448954I75453286I75331576
1739I75340907I75529939I75870675I76190416I76090234I75710238I75675178I75921132
1731I75982854I75816885I75676111I75505343I75408828I75904136I76407908I75992385
1723I75355038I75379167I75555001I75688376I76262202I76971936I77287811I76955340
1715I76354118I76562679I77241419I77274013I77003197I77145971I77145637I76647664
1707I76323524I76425305I76739047I77331869I77961885I77870702I77078583I76359317
1699I75922399I76367449I77493439I77857171I77752991I78254496I78047669I77563093
1691I77542497I76927211I77203693I78140652I78437463I78031072I77098313I77694534
1683I78741673I78143318I77936756I79105405I80618456I80486281I76532952I75065892
1675I76700854I78366276I78897311I78651623I78982827I78667220I77417387I77366530
1667I77754057I78231635I78789731I79069079I79941383I80047430I78326950I77792917
1659I77475842I77497838I78732141I80041831I79877395I79091741I79464538I78842121
1651I78323284I79066479I79507730I80159475I80755964I80977923I81233075I81101166
1643I81052375I81224610I80639919I80371502I80966391I81491160I80980522I79826604
1635I79346827I79584383I80511010I80838282I80099353I80374302I81467965I81491960
1627I80179872I80229796I80542737I79528793I80043230I81665861I82056455I80875608
1619I79985441I80565800I81727250I82015529I81433371I81217945I81317259I81568146
1611I82259017I83006078I82394592I80445622I80296983I81698788I82940490I82635680
1603I81571212I81543417I81854759I82204894I82497706I81627335I80366237I80945795
1595I82334736I83239768I83688684I83655957I81693123I80500278I81525021I81616870
1587I81682791I82660342I83336150I83776667I84374956I84215118I83379475I83558975
1579I83299090I80448688I79086675I80761696I82929692I83851987I83384407I82862904
1571I83423200I85073626I85932865I83729143I82103979I82555962I83545244I83874049
1563I83034806I82537832I82232222I82043124I82427319I82488308I82664475I83375809
1555I83391073I82690003I82446449I82568293I82849174I83498253I83584703I82244087
1547I81595541I82293811I82887433I82682072I82254218I82427519I83034339I83434131
1539I83031340I82032459I82023794I82635147I82611551I82560228I83243767I83560708
1531I83054002I82817913I82776654I82281280I81802369I81840094I82237621I82318006
1523I82109912I82390326I82883301I83015609I82790051I82528300I82483042I82415121
1515I82220624I82251219I82584890I82936557I82826511I82188963I81766509I81785705
1507I81797170I81783039I81821899I81660462I81703987I82324738I82873502I82815913
1499I82620683I82651944I82331870I81830897I81828697I82054855I82153837I82058521
1491I81846227I81846027I82294544I82620883I82303941I81947009I81959140I82051989
1483I82046057I82141972I82352933I82294277I81992467I81762643I81960273I82548163
1475I82823845I82512037I82277947I82492440I82513770I82238888I82153437I82172100
1467I82177966I82461646I82963019I83170647I83090129I83077798I82978150I82657476
1459I82557561I82767789I83049403I83467325I83684951I83523648I83509317I83520115
1451I83255498I83125256I83242234I83282893I83173513I82938624I82696536I82769722
1443I82957620I83081064I83423267I83779334I83845055I83673953I83435864I83382608
1435I83531446I83681418I83896045I84079344I84050483I84067347I84373689I84673433
1427I84512597I84187657I84003158I83917974I84095075I84401351I84468672I84340362
1419I84426879I84752885I84905724I84868264I85056629I85357506I85421761I85353573
1411I85183605I85048564I85245327I85584130I85745100I85732836I85694910I85698109
1403I85857946I86356120I86842096I86964140I87019396I87233356I87497573I87597355
1395I87406590I87239888I87363199I87537499I87687205I87804250I87848575I87879369
1387I87822380I87760391I87705468I87689004I87885634I88176780I88411936I88530981
1379I88387474I88081465I88050737I88547044I89151332I89336231I89344296I89332298
1371I89075013I88738942I88750073I89284040I89845269I90010571I90080424I90201336
1363I90222599I90339244I90577999I90565535I90410764I90523009I90833285I91026649
1355I91161690I91500560I91880889I92104381I92214294I91816501I90773429I89929387
1347I90008305I90723972I91209615I91151892I90700909I90031701I89243848I88050869
1339I86524688I84961646I82834310I79132067I72657141I61829027I46309855I31483086
1331I26580334I33266887I44304295I53886508I60700304I64926783I67108709I67690533
1323I67485172I67640943I68196040I68680683I68921371I67987612I64217848I57045119
1315I48260624I40383160I35126407I34109597I37977875I44524188I50219326I53450790
1307I54717020I54635502I53517977I51716980I49524855I47557889I46576272I46226803
1299I45752425I45684771I47203688I49886788I51411503I50022162I46693183I44317693
1291I44786872I47618544I51473292I55233390I57573154I57939619I57175095I56242402
1283I55804217I56138088I56775703I57223153I57940486I59465735I61580140I63834320
1275I65941327I67835307I69463003I70852478I71882419I72206358I71986933I71467896
1267I70688708I70288649I70759762I71533750I72031791I72506103I73242565I74065745
1259I75016634I75932730I76237473I76136626I76146890I76121762I75773427I75049028
1251I74089407I72987879I71564478I69467869I66836693I64540122I62948885I61791767
1243I61056505I60818082I61068169I62007660I63266226I63897975I64034416I64029550
1235I63234232I61244070I58341811I54776742I50610519I46094895I41833023I38357471
1227I35861670I34400409I34110530I35086548I37147630I40024627I43309681I46459427
1219I49234243I51735376I54006619I55984584I57727925I59291034I60759560I62172430
1211I63522511I64892522I66143622I67270746I68491185I69610043I70408094I70708305
1203I70227128I69410213I68868314I68490918I68093725I67554626I66571276I64887723
1195I62613414I60032096I57242083I54779542I53533774I54155058I56773570I60562863
1187I64518459I67952885I70510141I72537097I74411681I76025113I77260283I78192242
1179I78904376I79444342I79808674I80122282I80522608I80910602I81323792I81726383
1171I81874889I81772574I81586143I81576944I81783238I81987201I82107912I82102713
1163I82068719I82051789I82073318I82274747I82516969I82641478I82744327I82949422
1155I83193909I83392539I83657756I84139466I84722358I85063294I85168941I85142746
1147I84819406I84312567I84019755I84129602I84363358I84484202I84535326I84605046
1139I84906723I85275988I85377835I85456421I85860012I86292865I86346122I86167222
1131I86036913I86165955I86502892I86747779I86714786I86461833I86240808I86121497
1123I86016716I85990255I86062774I86128296I86285600I86556416I86788306I87079718
1115I87546298I88004279I88313221I88438931I88408204I88394073I88342683I88256965
1107I88216906I88161916I88115925I88060202I87999480I88012744I88147319I88274962
1099I88354814I88584771I88969032I89324899I89585917I89785947I89983976I90166676
1091I90074893I89790746I89757752I89871531I89918522I90036967I90178007I90258859
1083I90408031I90502946I90341510I90163010I90166942I90223598I90453889I90837684
1075I91129496I91539553I92060789I92378597I92436719I92351202I92571427I93286761
1067I93784734I93586571I93321754I93384476I93379876I93329752I93569108I93941172
1059I94287707I94780349I95392368I95916270I96168956I96126098I95983058I95920003
1051I95855815I95610127I95274856I94956516I94631109I94452876I94708495I95243529
1043I95573801I95753767I96270804I96857361I96858628I96608474I96748182I97176635
1035I97404259I97236024I96965608I96864893I96626338I96403646I96735184I97044060
1027I96835232I96515492I96325794I96375451I96775377I97278549I97681141I97797253
1019I97607755I97412591I97188166I96922283I96941279I97318542I97522970I97177435
1011I96635203I96641202I97114513I97218161I96878224I96419243I95936800I95576067
1003I95587465I95835885I95915737I95844683I96008986I96443772I96787174I97041927
995I97408259I97750328I97784788I97807118I98079800I98206976I98198644I98423203
987I98781269I99086546I99374492I99515599I99605382I99904793A000187274
980A000172076I99945319I99885063A000225600A000510613A000535209A000634990
973A000784496A000911472A000838486A000495015A000273124A000369640A000717308
966A001117167A001408579A001692060A001828568A001603609A001502428A001843698
959A001986138A001576681A001193353A001010187A000798826A000804958A000941533
952A001223680A001827101A002104249A001885624A001970674A002412525A002602756
945A002159106A001433774A001088306A000942933A000580467A000238131A000006041
938I99810944A000065963A000781230A001365187A001639070A001734585A001729653
931A002036062A002500576A002598091A002675276A002855776A003101730A003536582
924A003890450A004067150A003937174A003632631A003715082A004046621A004171597
917A004277977A004727427A005220135A005007641A004241384A003895982A004452612
910A005506882A006019319A005986525A006253676A006484966A005997323A005445225
903A005622127A005784696A005322116A004400621A003457729A003595705A004511201
896A005273925A006132032A006571550A006647536A007041262A006987205A006373053
889A006395383A007373067A008447467A009422485A010110356A010004843A009744691
882A009913127A009976381A009417752A008748610A008756609A009210658A008622767
875A007539769A008575576A011179890A012909501A012989886A012064792A011603345
868A012461251A013489260A012719670A010652322A010057700A011217350A011455106
861A010265128A009393223A009514801A010591333A012134112A012894704A012591493
854A012693275A013531518A013826797A013112130A012436856A012753330A012868375
847A012449120A012609757A012779725A012905902A013681824A014601186A014757756
840A014021160A013592040A014193395A014932990A014756490A013876854A013334955
833A013240439A013167186A013307827A013787404A014104545A014121408A014335702
826A014540464A014722763A015106491A014921193A014021827A013429537A013816465
819A014535198A015319985A016110837A016191356A016169693A016394651A016176092
812A015255863A014436283A014634445A015062766A015916874A017364204A017744066
805A017031066A016104105A015382573A015124154A015615530A017242160A019003765
798A020310654A021467305A021913289A021369057A020563807A020753105A021781580
791A022067593A021541758A021255011A020881148A020783033A022560968A025229403
784A026642073A027095256A027140180A025720179A023476997A022620357A022984356
777A023197249A023439671A023675160A023257238A022635021A021945882A021208353
770A020792031A020823892A021583817A022100520A020903277A018641699A016408915
763A014433217A013048875A012520507A012113250A011195287A010730107A011130300
756A011939282A013551315A015668720A017319812A017702007A016756917A015977062
749A016407982A016754317A015796963A013631500A011681063A011773713A013479461
742A015517881A017083456A017503778A017577964A018159655A018977369A019210126
735A018475596A017370669A016220417A014714698A013797602A014330569A015486154
728A016531759A016952880A016587149A015729642A014594120A014223856A014736560
721A015490153A016698994A018267102A019463745A020017642A020220938A020584470
714A021514430A022612891A023188584A023387280A023603173A023833997A023853127
707A023637167A023365084A022867911A021783579A020482689A019897264A020428032
700A021123369A021384121A021088309A020614731A020793564A021706927A022674147
693A023114665A022680212A021150164A017552635A012047328A008213910A008540049
686A011428777A014445548A016780512A018050676A018213312A018407342A019437150
679A020819559A021699728A020601067A017827184A015041104A011411447A007709337
672A006792042A009007295A012198634A014643044A016024453A016286605A016139099
665A016214418A016689130A017615757A018586842A019404956A020001245A020394638
658A020739307A020520615A019758824A019385227A019274447A019056421A018789538
651A018862458A019329170A019232722A018620569A018904716A019581523A020564073
644A021534759A021856966A021535159A019684104A016248345A014811213A015355378
637A016656002A018155389A019528867A020819959A021261743A019766889A018424006
630A018025080A017844581A017586096A016873229A016372122A016188223A016234481
623A017192436A018578910A019756291A019980116A019565660A018568046A016129367
616A014318438A014243986A015482221A017352273A019085283A020641259A021997606
609A022730603A023447003A024142606A024434152A025289792A026719326A028125597
602A029096349A029243522A028750880A027797058A025295125A021469171A018023014
595A012355338A002929629I94524130I86891686I79077144I74655302I74687496
588I77363397I78386539I79274507I84991108I93308556I99480139A003369747
581A004138537I98122392I88460794I86234209I93653492A001861495A006484499
574A009201726A010944734A011708792A013303294A016277340A019191196A019428952
567A016590947A013747678A013517988A016384386A021253878A023767010A024085217
560A019713499A006776112I84659103I54532188I28512039I31212470I60785022
553I80106552I91121164I99846004A003866987A005066364A006183689A008884385
546A013525719A017925832A016308267A004484472I84715892I61626465I36100959
539H85353356G77500669G30558824G50102312H02111346H68507431I20689566
532I43477849I49390014I50476678I55751561I65916198I78928638I87048057
525I70061225I05194389H01846462G17964506F93296306G06585961G39787168
518G63128816G33260587F83077012F65633132G21009871G79500630G93629795
511G87929258G91898118H06835332H13850291H26849533H53777111H82343917
504I06418761I22578547I34466997I46532813I55500207I52178226I22891022
497H66399691G98020176G65065588G86359551H23659661H57061699H79374338
490H92217076I02354252I13246687I23408059I29634298I27617474I15893260
483H96602925H73314801H53882358H56277378H79674615I04896511I23982618
476I36546809I45390358I52888828I56541413I51089963I32380186I06804422
469H91781424H97728448I12030181I20693099I26383971I34378546I41303722
462I35920992I06665315H61034891H33814901H47056298H83486104I11956728
455I25800746I34142524I42905756I52092710I59107335I60934927I54753747
448I42147564I30844872I26426229I23718734I15702229I06590595I05415748
441I12765910I23566429I33171038I37298602I37637805I42989607I55772357
434I68192374I72536764I65923663I54334158I48867444I50524735I54284301
427I61108695I71150689I79792610I84286439I85140013I84290838I83820459
420I83918708I82889166I78135653I66322589I49211580I37843500I38079190
413I35399089I07765443H59002337H25903443H32781693H64072325H95357157
406I18736464I36643524I51395240I63319349I72647010I79945848I85334910
399I88172314I88044272I86091236I83608899I79003624I69953845I51944337
392I15456675H55953372G85040063G30255280G14262929G34726247G74088572
385H16029218H50605303H75274169H93202492I08437451I21029902I29742144
378I37546022I46803696I52867632I47238281I30539729I19994096I23767259
371I25175396I18639148I21524744I38157308I55904865I68415399I76635999
364I81938010I85235595I87096648I87770056I85909803I75274586I52067914
357I30811812I30652241I48731070I68614028I81546083I88766270I93405138
350I96492429I98258033I98806798I98092798I96538354I95635789I96680728
343I99103476A001654467A003923177A005113288A002481912I92936759I79649437
336I73882779I80383567I90754766I96165290I91690392I67303073I11557536
329H39124977G91820332G93358112H28649197H71555062I09345948I39389279
322I61161152I76139225I86753512I94898127A001681595A007356270A011789043
315A014639578A013681090A008680423A006510161A010061699A011977008A005426563
308I88530581I68495451I61633530I73564705I92626950A007304613A013148323
301A005629859I86600207I63368940I10004959G92061554F59451151F04025488
294F30386038F69252923F88007626G11420926G52025620G94216019H29214825
287H57337314H78392854H93349531I06070492I20514332I35913593I48671481
280I56226272I57087178I53295619I49266037I49712687I55526936I50105347
273I08993014H47171876H14935422H28204680H63462038I00054881I28828581
266I48568367I61338385I69182189I74354291I78724476I82915628I86351187
259I88532914I89234783I87168502I77829043I56121825I28347338I10150598
252I10073812I23121312I28570496I05000758H60340887H32973991H47953464
245H87983132I21678648I32169692I21701644I12376183I22542686I43747666
238I61429835I73638025I82273348I88023809I92004000I95395034I98841858
231A002349670A005462356A007424924A006221082A002828248A003009481A008151388
224A013465864A016556221A017739067A014580189A003805199I91575813I90911137
217A001489297A009766820A002405060I66726647I08373329H68119903H74842849
210I09329084I44031213I70513208I88875250A000716375A008114329A013418073
203A018310360A022707540A026096775A028928047A031323800A032836385A034126878
196A036790914A040689520A044599324A048273106A052512982A057483722A062501053
189A067152185A071131576A073741823A073264712A066776922A045183949I89799944
182H98471776H11796207G59308795G16681545F58398613E99149730E75386295
175E94496398F35801695F88886529G44535217G92584057H30825392H59578496
168H80102202H94233766I03531033I09744207I15965780I22771778I21596397
161I01212465H82707116H97804834I31196872I57172096I76317325I92832845
154A006063578A010739839I97906099I72755656I51748507I30388824H91069290
147H36441278G71005747F81472111E97612884E83928969F27688142F67541976
140F97851923G32536322G49573744G48791823G66690419H05371272H38020850
133H55991165H64833516H64704473H61621515H68757717H87187014I07481429
126I23007534I34099532I39628034I30923591I08908763I00126334I16104821
119I36903409I49815867I57633676I64294901I70013634I73735007I76768174
112I80891206I84252112I78935903I50752626H99509449H62431297H71651178
105I06302716I36370642I58999821I75484814I77605152I55752894I27154427
98I27164358I52379456I76095500I91789640A002068856A002450117I68886111
91H70078404G51841121G18378561G73921604H42790560H89699412I16477885
84I32351858I43472051I52027388I59091138I64840665I69064611I71824696
77I73536844I76056507I80038764I83521448I86358119I89560189I92545965
70I94626311I95991723I97118513I98642028A000471154A002685141A004971048
63A007661946A010572537A009637445I99915058I74815872I35000630I04606365
56I04653756I26121886I48842116I65147142I77220757I84939251I81590407
49I67636477I60206463I71045508I88862052A000288455A005315984A001537222
42I74889458I30813944I12704855I36384439I68497783I86179686I88614432
35I78527113I68704945I73172712I87823646I92754060I63447592H96034364
28H58941215H86225860I33724468I65256921I81386180I89534860I93314422
21I97193899A001011520A003905714A007335940A010954732A014995179A018137593
14A017496046A015233334A016607078A020229069A023241907A024642446A022384201
7A018396544A016921686A016745986A013109530A009836341A013635966A017975890
$$ === CHEMSPECTRA INTEGRALS AND MULTIPLETS ===
##$OBSERVEDINTEGRALS= (X Y Z)
##$OBSERVEDMULTIPLETS=
##$OBSERVEDMULTIPLETSPEAKS=
$$ === CHEMSPECTRA SIMULATION ===
##$CSSIMULATIONPEAKS=
##END=


$$ === CHEMSPECTRA PEAK TABLE EDIT ===
##TITLE=LSH-R206_F2-8
##JCAMP-DX=5.00
##DATA TYPE=INFRAREDPEAKTABLE
##DATA CLASS=PEAKTABLE
##$CSCATEGORY=EDIT_PEAK
##$CSTHRESHOLD=0.93
##MAXX=3996.7798
##MAXY=0.9601790330663754
##MINX=399.67798
##MINY=0.514531374804001
##$CSSOLVENTNAME=
##$CSSOLVENTVALUE=0
##$CSSOLVENTX=0
##NPOINTS=0
##PEAKTABLE= (XY..XY)
##END=


$$ === CHEMSPECTRA PEAK TABLE AUTO ===
##TITLE=LSH-R206_F2-8
##JCAMP-DX=5.00
##DATA TYPE=INFRAREDPEAKTABLE
##DATA CLASS=PEAKTABLE
##$CSCATEGORY=AUTO_PEAK
##$CSTHRESHOLD=0.93
##MAXX=3996.7798
##MAXY=0.9601790330663754
##MINX=399.67798
##MINY=0.514531374804001
##NPOINTS=100
##PEAKTABLE= (XY..XY)
3625.944560824742, 0.8782331364276754
2791.5652726804124, 0.8781864662294375
3452.888115876289, 0.8781813404663354
3611.523190412371, 0.8781787176709449
3564.1386876288657, 0.8781614320811396
3459.068703195876, 0.8780927681383978
3467.3094862886596, 0.8780024663572431
3477.6104651546393, 0.8779869692402578
3543.536729896907, 0.8779634257840553
3500.272618659794, 0.87794614019425
3506.4532059793814, 0.8779313584663927
3442.587137010309, 0.8779279013484317
3496.1522271134018, 0.8778365273778215
3584.7406453608246, 0.8777784726558479
2803.9264473195876, 0.877761842541331
3698.051412886598, 0.877731861477213
3722.7737621649485, 0.8774408125643774
3782.5194395876288, 0.8772927538419738
3673.3290636082475, 0.8767990486027221
3776.338852268041, 0.8766838924147878
3687.7504340206183, 0.8766791842600892
3708.352391752577, 0.8766172548117511
3749.5563072164946, 0.8765125298915396
3757.7970903092782, 0.8764405268700428
3733.0747410309277, 0.8763386626121068
3743.375719896907, 0.8759303113439532
3766.0378734020615, 0.8757675907213711
3805.1815930927833, 0.8755394835324899
3646.546518556701, 0.8755349533308368
3842.265117010309, 0.8751459139921934
3799.0010057731956, 0.8748523013035705
3860.806878969072, 0.874506653892486
3889.649619793814, 0.8743423245386024
3815.4825719587625, 0.8740944878118072
3834.0243339175254, 0.8739967370413574
3869.0476620618556, 0.8737568876341764
3922.6127521649482, 0.8736718314438028
3879.348640927835, 0.8736038819959525
3930.853535257732, 0.8730914013690364
3914.3719690721646, 0.8730640431003088
2985.223675360825, 0.8728969121037528
3897.8904028865977, 0.8727053425203476
3967.9370591752577, 0.872484268500831
3955.5758845360824, 0.8722460886330275
3947.3351014432988, 0.8721979876565337
3982.3584295876285, 0.8721770070818822
3988.539016907216, 0.8721062559913594
3850.5059001030927, 0.8719394227755277
1613.1332904123715, 0.8715722582479458
1089.843564020619, 0.8708814400537834
3005.8256330927834, 0.8676674381455102
467.6644405154643, 0.8662512323660475
3123.2567921649484, 0.8651604669375126
1028.0376908247426, 0.8599277156028273
2956.3809345360823, 0.8591985123107656
496.50718134020644, 0.8586515803319179
3040.848961237113, 0.854714931672941
2851.3109501030926, 0.8526846188755114
968.2920134020619, 0.8488682530618072
1283.501966701031, 0.8485118166884361
3071.7518978350518, 0.8456657546107121
3059.3907231958765, 0.8444432636878022
1252.599030103093, 0.838653804581835
2921.3576063917526, 0.8353156468903974
3100.594638659794, 0.8353148125678268
1131.0474794845363, 0.8322231189502949
1543.0866341237115, 0.8303092732913764
601.5771657731962, 0.8290952463160871
3139.738358350515, 0.828581871452761
1166.070807628866, 0.8226922176282354
1159.8902203092784, 0.8214805737929787
480.0256151546396, 0.8161739129247706
894.1249655670103, 0.815880002455423
916.7871190721653, 0.813821138477895
1308.2243159793816, 0.8096557280489847
515.0489432989693, 0.8089319483007497
646.9014727835056, 0.804925741462621
1363.8496018556702, 0.7974634191024479
727.2491079381448, 0.7893488424932936
834.3792881443301, 0.7763044255082683
618.058731958763, 0.7712174669009239
665.4432347422685, 0.7704933303523612
455.30326587628906, 0.7680965085026382
1388.5719511340208, 0.7635726943802548
1343.2476441237113, 0.7456276436747454
906.4861402061856, 0.7448756713352124
1242.2980512371137, 0.7385529298749597
955.9308387628867, 0.7287449261511151
1073.3619978350516, 0.7080745710526881
1450.377824329897, 0.7045950310078838
1417.414691958763, 0.6841495048276591
679.8646051546393, 0.6695969116368755
1503.9429144329897, 0.6532923000675819
580.9752080412372, 0.6424002663038424
1196.9737442268042, 0.638719917425045
1470.979782061856, 0.6199707997437015
1458.6186074226807, 0.5952333823367362
1005.3755373195877, 0.5401415839376181
692.2257797938146, 0.5221705449335613
760.2122403092785, 0.514531374804001
##END=

##END=

