##TITLE=X8782
##JCAMP-DX=4.24
##DATA TYPE=INFRARED SPECTRUM
##DATE=2/11/2018
##SAMPLING PROCEDURE=ATR platinum Diamond 1 Refl
##ORIGIN=ComPlat
##XUNITS=1/CM
##YUNITS=TRANSMITTANCE
##RESOLUTION=4
##FIRSTX=3997.453
##LASTX=373.96442
##DELTAX=-1.4165319
##MAXY=0.97430134
##MINY=0.37845236
##XFACTOR=1
##YFACTOR=9.0738883e-010
##NPOINTS=2559
##FIRSTY=0.87252003
##XYDATA=(X++(Y..Y))
3997+961572370+961631424+961325383+960806907+960357600+960140501+960163032
3988+960372512+960707784+961092125+961448088+961707228+961787039+961639504
3978+961363219+961100795+960810914+960405421+960098264+960244288+960839357
3968+961512923+961961835+962120078+962007291+961661312+961155711+960594406
3958+960111007+959825330+959679962+959423319+958936767+958540996+958745417
3948+959556731+960318582+960502640+960250135+959966428+959705120+959271513
3938+958775240+958652140+959127722+959856860+960238048+960128940+960034809
3928+960399509+961139946+961867573+962257300+962200217+961655531+960669225
3918+959727389+959589575+960301962+961073929+961360920+961300356+961192693
3908+961079644+960919102+960850524+961031954+961210495+960860049+959949349
3898+959061377+958611085+958448179+958302877+958180500+958285798+958679138
3888+959279462+960066142+960851838+961173381+960851443+960203824+959679108
3878+959512917+959565468+959524872+959159712+958599524+958400489+958968297
3869+959900083+960464541+960477744+960127495+959706566+959582218+959882347
3859+960339602+960608266+960535418+960014380+959022424+958201060+958075924
3849+958438917+958964421+959446375+959672079+959406896+958758029+958334801
3839+958702392+959692508+960580020+961036947+961291291+961581895+961833546
3829+961749860+961147434+960169864+959179156+958483716+958259128+958456324
3819+958748439+959060260+959624061+960362855+960860443+960953260+960730052
3809+960294737+959824410+959577357+959609084+959744730+959823885+959825198
3799+959983769+960565832+961456628+962099911+962110816+961695010+961296349
3789+961263045+961722993+962484712+963049236+963002991+962520184+962269058
3779+962784053+963885774+964905122+965441596+965473455+965092136+964380602
3769+963429898+962481559+961943245+962017341+962380991+962606301+962767105
3759+963232440+963945813+964413840+964423825+964102413+963593659+962982694
3750+962247250+961265738+960135969+959458199+960071791+961571582+962485698
3740+962131901+960736555+959292074+959122927+960280614+961523433+962366933
3730+962993926+963272969+962986372+962444248+962342038+962937566+963892934
3720+964783599+965338860+965372624+964812501+963878679+963149541+963226002
3710+964042637+965008712+965748031+966038175+965736667+965033804+964481499
3700+964466588+964814209+965110857+965015937+964368318+963310083+962340658
3690+962092817+962623577+963213784+963546626+963890240+964333044+964601314
3680+964269918+963025719+961044369+959535908+959937394+961537227+962889154
3670+963809378+964710356+965694036+966583584+967267003+967677356+967764853
3660+967563322+967181477+966656300+965856614+964717779+963442313+962301442
3650+961564159+961586362+962436760+963611132+964617736+965212870+965376828
3640+965342276+965316920+965177924+964760148+964222359+963780279+963398302
3631+963145600+963523307+964614255+965518320+965850439+965902004+965785999
3621+965312191+964500023+963890766+963829545+964128557+964653208+965339780
3611+965787970+965569162+964917799+964503242+964450297+964390718+964304207
3601+964610445+965447311+966334757+966867816+967179112+967458286+967540462
3591+967276790+966837271+966524859+966466330+966473753+966359128+966151487
3581+965939446+965743105+965615735+965741200+966227686+966883450+967351149
3571+967378870+966864335+965855037+964796276+964414694+964809742+965413285
3561+965790597+965989632+966213037+966338961+966126920+965730624+965555237
3551+965694561+965869554+965863117+965718274+965642996+965716829+965673541
3541+965243744+964644537+964467704+965054299+966058407+966743272+966713186
3531+966217373+965795261+965732594+965889458+966050788+966181310+966225321
3521+966044284+965708356+965472207+965391016+965297674+965156773+965106390
3512+965210111+965424320+965677942+965827448+965732463+965432597+965135818
3502+965032228+965134964+965307921+965468725+965736273+966247392+966862692
3492+967244997+967197570+966789976+966233860+965715844+965340437+965220950
3482+965503540+966156611+966842920+967191002+967110731+966750760+966277083
3472+965858453+965784751+966236619+966912353+967273769+967189425+966899215
3462+966442683+965741659+965155196+965313439+966323065+967510706+968054340
3452+967720907+966924505+966214088+965819828+965606933+965355479+965108689
3442+965191193+965797757+966688159+967427216+967752372+967650161+967348719
3432+967218459+967378738+967526274+967434573+967340376+967515829+967768728
3422+967676305+967136743+966487088+966180587+966412335+966948547+967275279
3412+967049838+966431910+965921513+965965853+966666482+967644644+968215802
3403+967983726+967247428+966603159+966320897+966309533+966407671+966439793
3393+966256194+965959021+965868569+966096309+966386388+966494642+966464754
3383+966421860+966354464+966269332+966329962+966656892+967138057+967579481
3373+967936102+968261520+968503712+968491889+968183089+967834154+967812411
3363+968186702+968633052+968856786+968954004+969130508+969256629+969077564
3353+968707477+968486174+968469358+968452410+968375818+968389809+968580699
3343+968831956+968923656+968713914+968263163+967801113+967546046+967520559
3333+967542761+967448565+967308189+967350295+967720579+968341266+968917416
3323+969122626+968972923+968903950+969253739+969827787+970190254+970178430
3313+969945895+969709943+969617323+969701009+969858661+969916795+969770967
3303+969460854+969130377+968935349+968953742+969127093+969304253+969389845
3293+969408763+969419405+969461248+969572589+969729715+969833174+969860894
3284+969887301+969891768+969799082+969745612+969984913+970481975+970867104
3274+970858893+970544904+970188415+969918437+969725708+969654765+969785747
3264+970074315+970415762+970814226+971284027+971684593+971862016+971855710
3254+971840142+971941893+972127987+972215156+972088049+971910691+971907013
3244+971946951+971711459+971255518+970994080+971105946+971341241+971430971
3234+971368830+971270364+971218273+971242249+971308923+971374085+971480369
3224+971701475+971996546+972210623+972219425+972049162+971894269+971967183
3214+972278019+972623341+972832164+972917953+972954344+972923405+972752353
3204+972442831+972138563+972047585+972226388+972433109+972329387+971873840
3194+971356087+971003998+970747749+970416747+970035756+969870945+970174161
3184+970813372+971263072+971142732+970655195+970360846+970654866+971457246
3174+972248985+972547275+972481587+972610204+973057671+973319635+973060233
3165+972569149+972290631+972337204+972557128+972729888+972627874+972154131
3155+971520832+971115340+971096159+971216697+971127032+970733429+970151695
3145+969404034+968346389+966899018+965204068+963498280+961883929+960232727
3135+958328561+956230352+954479895+953720409+954124851+955408528+957223030
3125+959223167+960951158+962051565+962544094+962675339+962592572+962298552
3115+961838407+961378196+961042464+960777544+960519653+960369227+960442469
3105+960738985+961261600+961948303+962438993+962283969+961394750+960004001
3095+958368105+956800853+955741238+955439533+955611438+955562763+954761763
3085+953299283+951711996+950391862+949310176+948216010+946835443+944858625
3075+941985888+938110027+933450114+928581247+924422533+922023275+922007182
3065+924062694+927129999+930178124+932708298+934617588+935881493+936354842
3055+935667678+933481316+930144623+926914280+925097741+924951388+925719216
3046+926725492+928026445+930010357+932790737+936008731+938959572+941056007
3036+942360704+943413225+944505749+945511237+946304617+946798789+946733495
3026+945962382+944756677+943441996+942064188+940749375+939992977+940225644
3016+941317380+942760285+944229925+945800396+947649778+949691824+951599012
3006+953110036+954186335+954901875+955368984+955790832+956354765+956973678
2996+957348232+957377134+957318672+957482170+957953876+958585401+959053429
2986+959067355+958741016+958559848+958796851+959186382+959268689+958801778
2976+957782496+956329869+954638072+952918489+951311364+949800144+948198865
2966+946304683+944125743+941943519+940157854+939043390+938565771+938432753
2956+938397479+938488522+938915495+939780739+940892510+941853723+942373973
2946+942464491+942263354+941745864+940763170+939300230+937476729+935301467
2936+932671644+929627986+926310212+922662027+918582402+914413507+910866875
2927+908377033+906822787+905906373+905556715+905945326+907277546+909572819
2917+912575554+915888664+919198556+922325703+925093603+927309131+928963945
2907+930333214+931724422+933193536+934601166+935827957+936841590+937724701
2897+938736758+940182158+942101959+944179016+946013356+947441875+948572762
2887+949601175+950638718+951628178+952389437+952837233+953106620+953277343
2877+953114962+952400473+951403525+950649688+950294972+950058495+949672118
2867+949070743+948189866+946904415+945242769+943471950+941908048+940703065
2857+939794073+939025785+938405033+938256183+938997539+940769410+943372169
2847+946452941+949627581+952556613+955024909+956918106+958232722+959208124
2837+960253813+961587413+963053768+964311038+965100084+965437589+965637675
2827+966011637+966542397+967028883+967435952+967833300+968106234+968047640
2817+967712237+967433785+967488766+967878887+968416873+968915577+969311413
2808+969657195+969969280+970124763+970030238+969829692+969769522+969915218
2798+970196429+970627146+971227798+971810648+972116361+972142833+972114719
2788+972149862+972149205+972014676+971838960+971835807+972117937+972559164
2778+972920580+973108842+973214600+973311950+973392483+973518999+973839359
2768+974368871+974911126+975268076+975440441+975564329+975736957+975960362
2758+976181863+976331697+976379715+976388189+976422478+976422872+976303320
2748+976145866+976142318+976364016+976726483+977121662+977450694+977610053
2738+977613469+977658794+977908737+978246177+978397128+978264767+977982373
2728+977662669+977314325+977012620+976930773+977119889+977424025+977663064
2718+977776507+977797264+977806658+977869061+977925028+977846268+977652028
2708+977539373+977653276+977934158+978182788+978208078+977987366+977721526
2698+977641058+977774273+977995051+978206501+978379983+978523512+978688783
2689+978890905+978996598+978806890+978265029+977539373+976917832+976642730
2679+976761823+977091117+977377977+977538716+977703265+978008780+978421498
2669+978803080+979071154+979236556+979349671+979445379+979506994+979527752
2659+979653741+980128403+980973218+981850877+982379469+982491730+982390636
2649+982255712+982127621+981995062+981837673+981613611+981385345+981424101
2639+981948029+982779181+983545958+984155741+984735110+985184745+985214107
2629+984837320+984501194+984623177+985165564+985716161+985914999+985749794
2619+985497551+985480275+985825532+986299209+986439584+986036588+985400070
2609+985015795+985071695+985420499+985832889+986205406+986619176+987194735
2599+987847149+988288507+988293894+987875198+987259438+986802445+986787074
2589+987173320+987626240+987815356+987617503+987136535+986655173+986446941
2580+986524913+986672449+986730845+986723423+986726247+986741290+986680594
2570+986459948+986157848+986031399+986291129+986909714+987648639+988189450
2560+988327526+988158510+988025032+988235431+988903545+989903449+990805609
2550+991060939+990518815+989638135+988990056+988706481+988570441+988470266
2540+988529845+988824194+989168334+989285587+989127081+988930214+988929032
2530+989061328+989052131+988787737+988492534+988485046+988850732+989375974
2520+989764387+989904829+989919937+989929724+989897603+989805902+989797363
2510+989947394+990064516+989930972+989669008+989647922+989960926+990158910
2500+989808136+989291236+989549062+990834315+992265396+992922146+992856523
2490+992692763+992821577+993303728+994015918+994605272+994762200+994710504
2480+995026070+995878241+996772519+997108514+996778168+996152161+995599724
2470+995160008+994748734+994491106+994585565+994878271+994909013+994479085
2461+993952857+993858201+994326557+995041703+995606884+995823457+995694643
2451+995329614+994857185+994380421+993996080+993800658+993789885+993784105
2441+993626059+993467685+993648196+994200239+994731458+994928063+994877220
2431+994728897+994417666+993952069+993633876+993718614+994102758+994533343
2421+994926683+995312470+995596768+995556238+995107917+994513111+994199779
2411+994349614+994762069+995192720+995663507+996277493+996910661+997318650
2401+997427035+997341312+997232927+997305052+997623443+997898413+997711662
2391+997058394+996422861+996238343+996479353+996851016+997176829+997477746
2381+997853022+998459061+999419355+1000510303+1001202721+1001387239+1001710030
2371+1002654757+1003734012+1004223914+1004203551+1004167291+1004134381
2363+1003860462+1003512643+1003417133+1003364516+1002814641+1001750823
2354+1000748554+1000194343+999987229+999980397+1000179826+1000522061+1000755385
2344+1000690288+1000552738+1000782186+1001449117+1002108954+1002261810
2336+1001895468+1001412266+1001067141+1000808855+1000658824+1000784419
2327+1001186956+1001767507+1002560626+1003550939+1004464726+1005041074
2319+1005262443+1005195901+1004952263+1004702517+1004419730+1003892912
2310+1003265065+1003078839+1003534583+1004164269+1004401666+1004143380
2302+1003725275+1003551990+1003690986+1003815400+1003714634+1003665499
2293+1003986057+1004506044+1004836849+1004897348+1004855111+1004821281
2285+1004839543+1004945892+1005098222+1005229861+1005411423+1005788210
2276+1006328101+1006778393+1006946751+1006924943+1006885661+1006753694
2268+1006428932+1006309182+1007034051+1008537980+1009875258+1010225507
2259+1009724307+1009173249+1009225800+1009958879+1011005487+1011937010
2251+1012557828+1012941578+1013267588+1013588803+1013744090+1013568899
2242+1013230146+1013240196+1014054926+1015663036+1017559780+1019122894
2234+1020062430+1020527239+1020695138+1020383711+1019409359+1018287144
2225+1018001532+1018946850+1020637793+1022388446+1023564723+1023473285
2217+1022072223+1020490914+1019862870+1020130483+1020791240+1021914441
2208+1023439324+1024342995+1023753642+1022509509+1022445069+1024127998
2200+1026217996+1027201478+1026843413+1025672128+1024097453+1022614347
2191+1022126219+1023227086+1025163702+1026127872+1025115619+1023200088
2183+1022260486+1022663745+1023049465+1022340953+1021152065+1020926098
2174+1021910828+1022657176+1022075245+1021072385+1021199294+1022661708
2166+1024707564+1026969337+1029311314+1031123255+1031832949+1031920643
2157+1032570101+1034003875+1034991036+1034343548+1032251054+1029909405
2149+1028310950+1027581484+1027113194+1026212150+1024893133+1023959311
2140+1024054953+1024847086+1025491552+1025658662+1025642831+1025652750
2132+1025584303+1025409376+1025190963+1024863442+1024468591+1024295109
2123+1024366315+1024246105+1023795879+1023605581+1024157492+1024955668
2115+1025013933+1024111248+1023127043+1022944956+1023397349+1023737745
2106+1023778406+1023840613+1023878121+1023596844+1023342960+1023881733
2098+1025207779+1026375845+1026686812+1026446525+1026373086+1026699556
2089+1027054140+1026957053+1026309828+1025479728+1024932743+1024762808
2081+1024673209+1024516412+1024673669+1025577406+1026936230+1027925099
2072+1028245328+1028501183+1029263034+1030130379+1030060684+1028658375
2064+1027016566+1026810372+1028327504+1030074413+1030736024+1030723608
2055+1031143355+1032120926+1032905570+1032839685+1031698748+1029973056
2047+1029134876+1030596174+1034144973+1037990748+1040319654+1040691317
2038+1040112342+1039794740+1039977747+1040194124+1040375752+1040989607
2030+1042265992+1043924879+1045475250+1046337603+1045942621+1044358749
2021+1042860207+1043088407+1045099251+1046737447+1045896048+1043169138
2013+1041079797+1041105678+1042567698+1044067751+1044871182+1044615984
2004+1043048469+1040949603+1040117466+1041549204+1044381609+1047019708
1996+1048600952+1049106619+1048839991+1048094760+1046999805+1045752191
1987+1044996909+1045367850+1046472132+1046897134+1045693597+1043531933
1979+1041967834+1041603856+1041568582+1041045442+1040230647+1039424982
1970+1038332918+1036595993+1034364831+1032225830+1030932300+1031005016
1962+1032216173+1033600353+1034376195+1034714883+1035139491+1035489083
1953+1035060074+1033678193+1032145821+1031459512+1031832226+1032528783
1945+1032438396+1030819382+1027978700+1025230113+1023659511+1023333698
1936+1023847313+1024912577+1026205975+1027210609+1027678308+1027804627
1928+1027640472+1026965790+1026047404+1025811584+1026770827+1028336109
1919+1029714639+1030724068+1031458527+1031858108+1031923664+1031877748
1911+1031864414+1031706105+1031171404+1030304321+1029245167+1027989998
1902+1026638531+1025730591+1025969958+1027545159+1029916170+1032300845
1894+1034306631+1036040534+1037666577+1039099498+1040227691+1041204867
1885+1042214493+1043135768+1043637363+1043548815+1043102530+1042812517
1877+1042977263+1043319629+1043337365+1042896335+1042148476+1041097401
1868+1039719265+1038407079+1037620530+1037325591+1037217731+1037129183
1860+1037108623+1037257012+1037651469+1038379228+1039424194+1040546803
1851+1041505653+1042312762+1043070671+1043756324+1044349816+1044907902
1843+1045288105+1045183923+1044554171+1043670141+1042921297+1042623270
1834+1042880767+1043554858+1044305805+1044738755+1044736784+1044488812
1826+1044080626+1043539159+1043130710+1043118558+1043401083+1043645574
1817+1043653128+1043546516+1043587834+1043907012+1044461486+1045094128
1809+1045576935+1045757446+1045708114+1045623114+1045601043+1045654710
1800+1045891187+1046445923+1047233195+1047986834+1048467343+1048559372
1792+1048359943+1048167411+1048150463+1048245054+1048338725+1048313304
1783+1047987294+1047119423+1045621931+1043899590+1042702161+1042458458
1775+1043085977+1044346597+1045985712+1047597961+1048853720+1049688025
1766+1050075978+1049927261+1049182620+1048025984+1046997440+1046432720
1758+1046030708+1045362792+1044391988+1043271414+1041925465+1040209167
1749+1038405831+1036997413+1035946929+1034933427+1033896278+1033035173
1741+1032534169+1032413566+1032578378+1033025582+1033990737+1035589651
1732+1037200061+1038333771+1039288220+1040338966+1041444234+1042441971
1724+1043201982+1043689453+1043913253+1043785686+1043329483+1043199552
1715+1044061511+1045474724+1046767598+1047637702+1047888762+1047216116
1707+1045275164+1042347248+1039608515+1037823112+1036865774+1036708582
1698+1037771547+1040385408+1044443750+1048805111+1052266151+1054805784
1690+1056838765+1058489178+1059662959+1060258159+1060365493+1060525444
1681+1060840944+1060739981+1059828559+1058030216+1055653949+1053648820
1673+1052864438+1053261326+1054743118+1057416755+1060592183+1063345040
1664+1065567531+1067686366+1069954839+1072019941+1073365102+1073741823
1656+1072882097+1069783327+1063903257+1059136535+1057606199+1057406770
1647+1057649159+1058730385+1060543311+1062215139+1063257280+1063442915
1639+1062406160+1059395806+1053607305+1046170296+1039175630+1031589181
1630+1020202346+1002269627+978947266+955841018+937696061+925345320+916598424
1621+908254000+898193999+886023768+873470708+861153730+844126061+815212592
1611+769853911+711081720+651720241+607331905+587192723+592567454+618863319
1601+657795865+700808759+741998019+777432018+803002817+815363740+815799515
1591+811271438+810397523+818363650+835108268+856671108+876064993+884112310
1581+874577552+849491794+818036589+795340038+795255366+812349051+834551824
1571+859391975+886043606+908375325+922952565+933002975+941627559+949459157
1561+957601656+970040945+986986832+999051962+1005568681+1010273787+1013873758
1551+1016164170+1017301034+1017429257+1016634826+1014899478+1011931755
1543+1007221853+999654321+989718406+982053787+976932875+968657817+949691824
1533+916161598+873320676+825021730+767808580+702526371+642855436+603539928
1523+589478997+599348173+623352903+650709564+679578038+708475808+733176108
1513+752563490+767330568+776640213+779871411+781494498+791424371+809646051
1503+830143693+851025611+871752176+891816210+910803749+927119883+938751012
1493+945069419+943669737+926542945+888759546+846432108+823270945+826504244
1483+848654073+877278778+902321445+920369643+932978539+941709538+945022452
1473+937871120+915765565+880587750+836210055+785093943+736083989+709654449
1463+718153503+748365298+783863277+821449151+864749430+906828108+935069588
1453+952322632+965214972+976005622+984671195+990800223+993654568+991385701
1443+980665995+959311780+930552152+902097317+882490668+879218810+891468392
1434+910276733+930135427+948952308+963544918+970479019+967322312+951587123
1424+923573843+888924883+854051993+825667444+814542770+824979558+849760852
1414+881579837+915403689+945809526+967893076+979706423+982512947+979421600
1404+974125234+968259156+958878107+939563180+904705134+853653594+793715834
1394+742976772+718803159+721508589+740784760+766551244+789348889+800865589
1384+796623189+774075882+732899364+680965370+635176497+611801388+616852803
1374+642753094+673111307+697131473+715712928+733230629+750730201+766904121
1364+781256444+794173680+806021908+817449600+829185764+841049362+851796986
1354+860209989+866473349+872172317+878866853+886997660+896037853+905138873
1344+913319866+919272718+921461051+919500261+916370749+917042279+923103516
1334+930866404+933927469+925845731+901399250+857123305+792241268+710154861
1324+619679230+534325826+468520970+432784478+429878173+452998971+489624223
1315+529223503+566755908+601041941+632650462+662841565+692684718+722321544
1305+750848768+776670824+798192018+814951153+828210098+839734352+849754217
1295+856572905+858531198+856441594+854159327+856392854+865172330+878145269
1285+890369956+897408763+896840496+888204482+872860137+854278682+837810414
1275+828818305+830092391+840875158+858119005+878172202+897198430+911075238
1265+916995180+916448130+915476668+920026095+930844136+943819243+954531920
1255+960886587+962306566+958611348+950015141+937027619+919510706+895996075
1245+865053238+828636480+794065295+771161826+766260115+778757604+802866711
1235+831799887+860542239+886334079+908160920+926157553+941044775+953680537
1225+964788854+974698494+983083251+989142124+992460621+993725642+994183751
1215+994280378+993242309+990165019+985102109+978752435+971146345+960564189
1205+943521741+916967657+883044156+852089561+837351714+843289195+859528212
1196+867691535+853818077+815582153+762110204+708973132+670177348+651120378
1186+648137613+654613605+666497567+681739242+696453047+704736775+703982807
1176+699048515+698387955+705359499+714871332+718671454+712110724+695868751
1166+673582291+649183761+625896083+606641786+594168601+589753376+592290447
1156+600055766+613225506+633209796+659453504+688315277+715404916+738078214
1146+755906291+769939896+781143264+788389055+788977620+782792955+774808567
1136+771173453+773054300+775724521+772852769+760277374+737079623+705477409
1126+669590228+632718252+595466073+556829845+516816796+478057929+445635565
1116+424934422+417712738+419409954+421805665+420043680+417078487+420515616
1106+435329202+460258392+490409820+521556422+551836302+581064352+609534558
1096+637328899+664393314+690796054+716459736+740688002+761936393+777631250
1086+784084448+776901192+752398087+710792298+659872528+614469967+589131967
1077+589228725+608684751+635643605+659883104+675928867+681013585+671443486
1067+642300306+593017155+534502560+488034210+472602992+491524777+531781234
1057+575682460+612442241+640713478+663773810+684267445+702736704+718862935
1047+732583404+744262945+754430017+763458058+771571326+779067520+786297415
1037+793575196+801178133+809113387+816952013+824027343+829713830+834095883
1027+838752512+845988713+856411640+865833087+862670139+832160646+771554707
1017+700806525+649352054+631858198+643113853+671197747+704562636+730277293
1007+738757560+733078430+727213468+732765623+749708751+769817060+785653671
997+794690842+797831062+797848009+798791422+803880541+813221586+824417268
987+835009079+843752099+850399866+855267879+858331244+857520652+849215181
977+833436966+818030020+813611839+823489161+841313954+858097985+868274057
967+870240298+865720235+859636926+857743861+862502372+871362645+878542223
958+877447071+863129299+836818721+809145771+794580158+799759796+819013896
948+841718921+861047906+875302092+884303529+886376908+878706706+861788737
938+843540583+835533467+843055411+860962577+880212080+895764590+907428694
928+916499104+923897488+930149944+935481912+939957637+943750073+947172751
918+950560549+954149484+957911573+961602193+965093384+968575050+972454326
908+977157988+982911937+989631041+997071991+1004971116+1012845411+1019194953
898+1019133995+1001229522+950202418+861151431+754537023+670111989+638366311
888+658403480+705406597+754768639+795519498+826821912+849952201+864278381
878+867155060+856870078+837268093+818975732+813392375+824218430+845729179
868+869139629+889107102+904679516+916847710+926655731+934658446+940485112
858+942000274+936063646+922350599+905780514+892231885+882423207+873647868
849+867194735+869519043+884671710+908715590+933254166+952527317+965777722
839+974335961+978371575+975905644+962105758+928212933+865775544+778989877
829+692199611+636919334+627753283+654127776+694901691+735513094+771385034
819+802127129+826239915+839875976+840701018+833947297+831839563+843383392
809+865782244+888615558+904698566+913871843+918395256+917926375+907358539
799+878997375+830730682+771059944+710813253+653338993+599872890+558687636
789+538012111+533434964+532350618+527507895+517408021+498894850+471589260
779+448045169+448123469+480618648+535739927+595403932+645998611+682956311
769+709705489+733511380+758998559+783507904+797865023+792839226+767639039
759+731423221+694739770+663015310+640066254+629963096+630183874+629922829
749+619271373+594096213+552771503+499014238+449314296+426654464+441538993
739+482192206+524185128+548887169+555524294+558660113+573525132+603057777
730+639057679+672746081+700767901+722917730+738172673+743659600+737538849
720+724232674+714839933+718699109+735648083+758208528+779263402+796284896
710+809955442+821403367+831252902+839867108+847504335+854422670+861025047
700+867610213+873967835+879561111+884090699+887686597+890532534+892050717
690+889923474+879652220+855812236+816169339+767162275+724753975+705799018
680+715940734+746692419+783769540+817059019+843398631+863234269+878187835
670+891197888+905331405+919113424+928544527+934442924+938984730+941802224
660+939388646+926059021+897798425+858201904+819946602+797693183+798261122
650+817276249+844309134+868332913+877438269+859771652+814291579+760628280
640+728362222+731365153+756483296+779735305+789941133+794601178+805899662
630+826287933+849048136+868021683+882331966+893506234+902530464+910104170
620+917114733+924089626+930801964+936343215+939494207+938720861+931110829
611+912694909+883282210+851396026+829965810+824166930+826251214+825414085
601+820269590+817856801+821407636+823401993+812150213+783640003+747492106
591+721603705+718737405+738324675+770281540+803306559+830761556+851682820
581+867686279+879210665+883483150+876906458+862153043+850339301+851297888
571+864453965+881586209+895424589+904216481+910044920+915280721+920726330
561+925856767+930021589+933059795+935174361+936795674+938000722+937334908
551+932161445+921983403+911241626+906327959+908796780+913349622+913340426
541+907138156+899734385+898963141+908608387+924827500+940388288+951325093
531+958168807+962976453+967359426+972105982+977052755+981467193+984921927
521+987659084+989983786+990420743+983732249+961284065+914459094+842159557
511+760900163+703154875+694433532+730685347+784367236+831691436+866045654
501+889820672+905756998+915481398+918602699+912678093+897491071+879543112
492+869814902+874860733+891382406+911196563+928428653+941275997+950216475
482+956469982+961361643+965592745+968646584+968966945+964702868+955252059
472+943570482+935172981+933395659+937763654+945506376+953291072+958450281
462+958387614+948432977+922460758+882490077+847066195+835552188+850940150
452+883133295+917853001+945595843+964436043+976118933+983348237+988755944
442+993618965+997601765+999670809+998577037+992771785+979923128+955124098
432+909720880+836796518+743651783+656726463+608815011+618179505+672204286
422+738955872+799325006+852327155+895792902+924756032+942335677+953245616
412+960189110+965957248+972020785+975770524+972562449+960914241+944539841
402+929648218+922190714+927803828+948136724+972267969+987524555+995456064
392+1001622862+1004718611+998447368+979256657+950159326+919954560+900137447
382+894674102+895824432+894342640+885291740+865867507+837743215+816721907
##END=
