##TITLE=JB-264
##JCAMP-DX=5.0
##DATA TYPE=LINK
##BLOCKS=1


$$ === CHEMSPECTRA SPECTRUM ORIG ===
##TITLE=JB-264
##JCAMP-DX=5.00
##DATA TYPE=INFRARED SPECTRUM
##DATA CLASS=XYDATA
##$CSCATEGORY=SPECTRUM
##ORIGIN=Angelika Moesle
##OWNER=
##XUNITS=1/CM
##YUNITS=TRANSMITTANCE
##XFACTOR=1
##YFACTOR=9.1845825e-010
##FIRSTX=3997.453
##LASTX=373.96442
##MAXX=3997.453
##MAXY=0.9861870357043898
##MINX=373.96442
##MINY=0.7294144590551925
##NPOINTS=2559
##XYDATA= (X++(Y..Y))
2559A048549296A047869441A047257597A047016313A047174595A047557743A047931482
2552A048116761A048100797A047989499A047806621A047477272A047098666A047001192
2545A047357862A047873854A048073994A047798639A047277975A046840573A046713052
2538A046956154A047416075A047800910A047945889A047998585A048217675A048550918
2531A048630157A048294512A047902278A047938166A048439231A048974886A049142644
2524A048988774A048833996A048772864A048630092A048345910A048119941A048116956
2517A048273161A048423397A048486671A048566947A048829064A049189109A049340578
2510A049163670A048769035A048256872A047728486A047416983A047516210A047943293
2503A048371674A048517821A048389002A048136684A047776444A047225409A046531017
2496A045911516A045585801A045675553A046264618A047418476A048967942A050286378
2489A050628187A049862864A048549361A047432948A047121704A047669106A048396010
2482A048830167A049121098A049384642A049407551A049118048A048780651A048647095
2475A048700569A048703425A048452211A047972042A047608363A047680203A048003517
2468A048038431A047619914A047133386A047145262A047876709A048724581A048938025
2461A048529308A048157776A048498417A049655779A050614559A050372950A049640399
2454A049195469A049252254A049668369A049979742A049811077A049419037A049426565
2447A050033412A050807300A051257747A051263588A050862334A050165022A049440713
2440A048957170A048738534A048528139A048128507A047899553A048614971A050172809
2433A051171565A051116533A050586524A049896350A049097605A048492187A048381344
2426A048706345A049099877A049208189A049013435A048794539A048831920A049069440
2419A049181841A049161009A049159971A049142968A049142514A049395804A049877920
2412A050086821A049633325A048832958A048337928A048301262A048341108A048270436
2405A048349090A048784545A049342654A049693549A049804847A049886421A050051064
2398A050042692A049637933A049206307A049253616A049692835A050048013A050125565
2391A050078969A049981949A049637868A048872026A047674881A046236388A045252493
2384A045543553A046709547A047874243A048605820A048659295A048213067A047758792
2377A047496157A047465850A047872296A048870468A049831584A049909589A049336489
2370A048822704A048705242A048966190A049453757A049949630A050176119A049949825
2363A049453173A049154844A049280094A049557656A049569208A049232720A049021093
2356A049391976A049970981A050172809A049905501A049499898A049400607A049768115
2349A050310454A050799319A051367812A052028068A052365334A052027872A051411098
2342A051376313A051774907A051432319A050376195A049470760A049003960A048692847
2335A048275628A047827648A047679814A048183734A049078915A049588028A049511190
2328A048993901A048210795A047533083A047241244A047270577A047382004A047374800
2321A047166872A046812149A046684497A047331515A048586611A049611001A050019783
2314A050106031A050409811A050992516A051404543A051421676A051017696A050306431
2307A049584458A049085794A048739312A048333450A047820249A047299650A046747382
2300A046025150A045457241A045875823A047001646A047696752A047491679A046680993
2293A046022619A046190960A046989446A047634191A047862043A047917140A048045829
2286A048306194A048583561A048606989A048186849A047537366A047027150A046764709
2279A046581572A046381236A046417059A047006513A047971847A048534434A048146354
2272A047189132A046523944A046679500A047234105A047379278A047165250A047100938
2265A047407898A047951145A048424175A048582523A048409379A048056083A047651324
2258A047261102A046992625A046987044A047204967A047328529A047218140A047072124
2251A047009758A046917086A046710391A046559766A046646468A046861470A046969912
2244A046935387A046867440A046805983A046778208A046858679A046998271A047006903
2237A046813771A046495908A046101468A045696125A045523371A045768290A046189013
2230A046370074A046267019A046171816A046190895A046115356A045816897A045419212
2223A045070069A044765316A044460757A044266846A044378663A044762330A045107450
2216A045204924A045182859A045249183A045369956A045411749A045446274A045669972
2209A046007303A046079079A045740774A045321348A045215437A045451920A045790939
2202A046061492A046242683A046379614A046541401A046772756A047034094A047197698
2195A047090619A046594486A045799440A045083568A044929244A045472297A046260269
2188A046698904A046645170A046388699A046298299A046568722A047049020A047332877
2181A047274146A047236636A047557743A048041676A048240648A047948095A047263308
2174A046405053A045593978A045028536A044906465A045345684A046165326A046838302
2167A046800402A045877251A044516762A043535269A043465635A044068458A044576402
2160A044554013A044384049A044680237A045396044A045918265A045932153A045692361
2153A045463082A045245030A045120299A045263136A045497088A045394811A044900235
2146A044423182A044299879A044497878A044811846A045038205A045005303A044644284
2139A044017320A043247648A042484402A041886381A041541651A041340797A040958492
2132A040124508A038991806A038007977A037337597A036743016A036012866A035103733
2125A033921190A032361924A030446247A028189345A025637747A023122298A021045223
2118A019318914A017382989A014828082A011837850A009070148A007122152A006011320
2111A005316799A004848377A004836176A005425630A006434445A007689606A009202926
2104A010920929A012644772A014270622A015830602A017253910A018335149A019004491
2097A019439102A019865601A020384383A020966049A021506637A021907242A022165400
2090A022330756A022403180A022385658A022402661A022620259A023052209A023514661
2083A023784825A023824866A023858807A024123130A024555924A024923887A025238634
2076A025733599A026383667A026786933A026650521A026125963A025590568A025303466
2069A025303142A025440268A025506527A025442020A025380563A025467524A025755275
2062A026264452A026941192A027550959A027851234A027928721A028129510A028555230
2055A028849666A028661336A028173964A027961169A028343863A029074921A029694163
2048A030018839A030168361A030292962A030503226A030896693A031398472A031734765
2041A031837496A032059312A032699970A033537847A034128599A034371570A034528491
2034A034867834A035465530A036154276A036576167A036572338A036526132A036929788
2027A037649230A038155876A038388854A038687053A038982656A038847931A038365621
2020A038241734A038916851A040019182A040780222A040788399A040306153A039921902
2013A039962332A040298561A040615644A040701113A040506294A040101016A039628895
2006A039234779A038976037A038798934A038668622A038676864A038901081A039256584
1999A039647909A040083234A040456843A040511810A040227759A039937023A039872321
1992A039931636A039993288A040110750A040319782A040504282A040518754A040314266
1985A039958763A039628765A039586582A040058963A041012032A042073672A042816996
1978A043116428A043156728A043188917A043366928A043685310A043982276A044090328
1971A044012972A043897845A043864683A043884736A043759421A043238108A042322420
1964A041433664A041058952A041204450A041422242A041414779A041317824A041283429
1957A041140397A040680736A039994781A039279362A038573744A037870332A037247910
1950A036768715A036441378A036298540A036308535A036266352A035976654A035498303
1943A035109833A035057851A035353000A035746077A035912082A035715187A035331519
1936A035123266A035313348A035727712A035973345A035934342A035930708A036299384
1929A036995139A037692710A038145168A038350630A038421756A038411308A038358028
1922A038394111A038600157A038825737A038861819A038687702A038361792A037823736
1915A036995463A035962182A034940972A034141773A033669068A033498715A033570620
1908A033869273A034347625A034851026A035206658A035328664A035260393A035232033
1901A035568780A036337089A037203261A037823736A038229987A038678811A039293705
1894A039952793A040417905A040507916A040257092A039936763A039824817A039925536
1887A040044167A040144821A040405769A040860434A041259157A041414260A041428342
1880A041467410A041553008A041658011A041811556A042014552A042157583A042102097
1873A041864836A041636010A041525946A041443593A041347936A041382460A041582990
1866A041696105A041481428A041015666A040581769A040353268A040274030A040222178
1859A040202968A040300118A040492147A040621031A040526736A040186095A039767124
1852A039518571A039537715A039685225A039732988A039552447A039195127A038818987
1845A038511573A038256725A038067746A037975529A037943340A038019593A038411308
1838A039139640A039813265A040016780A039824752A039723708A040014444A040391687
1831A040290254A039640251A038968314A038691466A038678227A038571797A038195398
1824A037545914A036643076A035510568A034249631A033070398A032202993A031779544
1817A031789213A032065802A032333370A032370750A032113241A031556754A030721213
1810A029754192A028864721A028101669A027390340A026769671A026354658A026051592
1803A025543907A024629711A023426337A022215305A021258213A020732487A020597697
1796A020502235A020042963A019173870A018269084A017806892A018004826A018692079
1789A019534564A020374063A021250945A022162804A023030404A023876069A024827840
1782A025923097A027020301A027943647A028706115A029516217A030477916A031370891
1775A031899602A032086179A032251146A032636112A033162681A033548750A033619422
1768A033497806A033441671A033521363A033576266A033474119A033231731A032838588
1761A032154515A031066267A029624139A027981092A026336552A024987940A024288616
1754A024416397A025207160A026277172A027329597A028344901A029484482A030824398
1747A032219996A033448031A034425695A035211655A035831935A036240393A036462274
1740A036645347A036941080A037425532A038121286A038975258A039851295A040660488
1733A041437298A042172380A042685516A042835491A042779031A042859308A043262315
1726A043882400A044471530A044840336A044981680A045047680A045170010A045315507
1719A045391047A045421548A045523825A045771599A046153645A046576964A046893529
1712A047036950A047113982A047252406A047402252A047396216A047185303A046934868
1705A046864715A047013003A047219049A047353969A047470458A047666510A047906432
1698A048057186A048043233A047919995A047812072A047800716A047880863A047998260
1691A048069646A048009682A047851010A047768592A047866391A048021234A048051605
1684A047942449A047815836A047794680A047954260A048296329A048703684A048984686
1677A049026609A048890521A048724062A048605626A048539561A048546570A048629767
1670A048667797A048497184A048121888A047740102A047539767A047544699A047658203
1663A047776963A047851724A047912208A048046154A048260636A048397438A048344872
1656A048263881A048370506A048599980A048753265A048854244A049065612A049369262
1649A049575827A049574789A049425852A049262183A049188915A049235835A049368743
1642A049537603A049703154A049819578A049825094A049679596A049419946A049151664
1635A048985075A048975990A049084821A049186124A049203711A049226944A049392170
1628A049674080A049887005A049857283A049566742A049192808A048983063A049036213
1621A049261404A049533320A049762210A049873572A049877401A049888044A049943400
1614A049906215A049662399A049329221A049169250A049322212A049672782A049970852
1607A050067482A050002909A049877336A049719638A049558305A049504895A049626381
1600A049829183A050035943A050321552A050681532A050882711A050798670A050663751
1593A050762069A051082008A051428749A051629409A051551274A051224001A051004651
1586A051279163A051940717A052443405A052417057A051983419A051500460A051259824
1579A051372095A051720264A052089849A052420886A052786382A053139614A053350073
1572A053463836A053655151A053910129A053992677A053788902A053559948A053695451
1565A054189897A054571228A054485046A054148234A054054069A054403861A054995781
1558A055506710A055705488A055511058A055065285A054735611A054840354A055302611
1551A055728591A055851959A055753576A055667978A055728137A055861823A055864484
1544A055663046A055466020A055483542A055608403A055550969A055182553A054627429
1537A054170039A054041154A054114682A053980022A053528148A053187118A053328527
1530A053750224A054021945A054097809A054311188A054835876A055375425A055515341
1523A055231030A054814395A054473105A054330528A054579081A055205007A055777523
1516A055914714A055767917A055757210A056015433A056326936A056475030A056438752
1509A056290269A056087402A055894596A055768048A055699972A055687771A055763635
1502A055858449A055818018A055633258A055461932A055417153A055502297A055656167
1495A055772396A055807375A055856177A055978118A056082731A056087598A056001805
1488A055849493A055733458A055861953A056284753A056727087A056868367A056671990
1481A056348871A056089220A055915363A055769865A055680308A055751435A055989669
1474A056236665A056345691A056326806A056244063A056121928A056054111A056211355
1467A056585418A056921906A057042289A057038330A057069286A057164424A057266701
1460A057328677A057354895A057391951A057442246A057453083A057447502A057496759
1453A057506233A057296358A056960779A056820214A056943841A057038201A056901399
1446A056680037A056610663A056794644A057240158A057816763A058214448A058246961
1439A058119829A058139817A058291675A058339049A058193292A057999122A057975889
1432A058210944A058480783A058384736A057850249A057335491A057285456A057561331
1425A057667371A057403308A057045857A056952667A057189279A057538941A057753943
1418A057773542A057739796A057806769A057952331A058024691A057986402A058059800
1411A058570794A059616665A060858523A061679397A061655386A060863260A059658783
1404A058332884A057156117A056446345A056290399A056429342A056592168A056657583
1397A056587625A056525194A056779653A057497278A058355014A058744196A058520240
1390A058178950A058074856A058077906A057986662A057881854A057973293A058204129
1383A058245469A057963039A057555685A057062212A056268659A055274251A054622951
1376A054648259A055101821A055639294A056198117A056788414A057308819A057586575
1369A057464505A057015682A056684256A056880437A057445620A057847329A057861931
1362A057704687A057570351A057474759A057510711A057834609A058368707A058854067
1355A059186856A059419445A059519320A059394265A059072443A058653148A058215097
1348A057921895A058014697A058525367A059226183A060001371A060905378A061699191
1341A061881030A061488212A061210001A061355759A061467251A061249588A061004280
1334A060886233A060687196A060525474A060815107A061432012A061706264A061363676
1327A060877342A060768965A060955413A060924392A060371345A059429244A058345798
1320A057309597A056656739A056829039A057963623A059724393A061481268A062574124
1313A062785621A062697427A063105366A063909433A064042600A062676920A060254337
1306A058233268A057920986A059491869A061948652A063940518A064731475A064593246
1299A064387589A064656001A065080294A064968088A064208994A063413105A063083885
1292A063062664A062921515A062475481A061759739A060965861A060555651A060938150
1285A061833396A062343547A061899072A060954829A060638589A061682902A063643747
1278A065284912A065846331A065643789A065265443A064634455A063268386A061209028
1271A059264861A058225351A058181870A058805070A059880404A061221942A062454520
1264A063343017A063998470A064374415A064139231A063526544A063442178A064286351
1257A065447542A066065746A065900130A065373366A064888590A064325029A063408887
1250A062250745A061129660A060088981A059228519A059030001A059839844A061306243
1243A062723580A063617918A063775422A063144434A061993366A060834186A059945625
1236A059218655A058691177A058868214A059984692A061210391A061428832A060801284
1229A060606205A061350697A062065920A061797314A060887142A060336366A060578494
1222A061266137A061791733A061732158A061071577A060187299A059551379A059392837
1215A059618417A059955164A060139535A060092680A059984238A060054261A060330590
1208A060539167A060409894A060097807A060067954A060526837A061288267A062105637
1201A062678737A062630908A062028215A061461670A061165483A060828605A060561946
1194A060989548A062077472A062896594A062772642A062032044A061627545A062214728
1187A063337111A063649068A062466136A060863000A060489067A061328243A061887455
1180A061739102A062088504A063605717A065304251A065904803A065376027A065082176
1173A066663312A070094710A073129590A073741823A072352131A070722647A069738428
1166A069030538A067806073A065656574A063186162A061731704A062125625A063906382
1159A065764367A066281396A064554827A061139913A058384347A058682027A061944045
1152A065586161A067239332A066650917A065062058A063795085A063534396A064174599
1145A065073025A065607772A065528338A064853610A063844212A063182398A063624862
1138A065176405A067052885A068608776A069784635A070641657A071182373A071682855
1131A072367512A072825810A072549806A071688371A070668653A069544453A068257557
1124A067128230A066474204A066076973A065591677A065143892A064875416A064370522
1117A063435040A062895556A063544520A064758278A065217679A064690007A064244558
1110A064847251A066223314A067095262A066712374A065711801A064973020A064534904
1103A064009503A063427577A063155985A063334061A063814359A064298876A064403100
1096A063985232A063445358A063311088A063526609A063549971A063000429A062072540
1089A061423446A061592825A062584572A063848690A064602137A064353908A063247165
1082A061896346A060881171A060394578A060350968A060631255A061054834A061336939
1075A061391517A061567256A062291630A063497470A064513229A064667488A064073101
1068A063391105A063057602A063044623A063081160A062951367A062637593A062257235
1061A061932039A061802506A062057354A062732926A063466969A063648549A063125549
1054A062382096A061878629A061785892A062071112A062561859A063068310A063484426
1047A063794047A064037473A064202505A064137673A063722142A063121006A062700802
1040A062704306A063063054A063443411A063614154A063639139A063590272A063332568
1033A062729097A061981360A061487628A061447328A061749096A062116475A062391051
1026A062605015A062805415A062955715A062992771A062932417A062904771A063031774
1019A063216079A063223672A063006075A062744607A062596448A062574189A062669652
1012A062877839A063124835A063273902A063143006A062613906A061876812A061312538
1005A061083713A061133618A061412413A061806464A062004983A061838588A061423511
998A060941850A060544359A060290419A060132397A060015843A059892345A059688830
991A059397964A059068809A058632056A057962261A057276954A056910874A056762780
984A056496640A055933988A055068530A053953415A052734595A051530312A050241015
977A048694599A046845181A044673747A041926682A038089097A032967602A027219597
970A021428436A015502550A009301568A002838794I95925769I88676515I82016911
963I76351454I70725454I64098752I57208700I50877146I44495493I37868985
956I31672806I26698950I23591710I22607945I23415711I25754967I29743046
949I34525262I37781894I38744827I38148948I36314132I33040952I27602243
942I18333024I04357387H88396439H73823171H61710645H53734097H52020248
935H54754594H58240439H60298434H61678521H64699125H70712232H78379937
928H85373953H91748274H98523589I03213588I03579733I01130802H97230009
921H92123050H85990599H80325337H77384816H78811823H86141029H98284770
914I10176388I19876974I29710663I41693590I54269152I64199211I70910928
907I75578603I79467974I84704790I93206480A000424518A003367051A005034435
900A007833806A011702281A014650396A016269626A017310824A018130660A018823884
893A019695767A021238225A023109708A024320934A024899356A025308593A025703358
886A025929457A025861251A025613606A025330787A024979763A024460202A023690401
879A022438549A020415274A017837653A015091432A012067583A008460835A004285206
872A000132549I96796614I94640236I93352821I91924840I88929417I83369547
865I75285595I65518426I55145124I44955803I35247689I26388550I19498109
858I16055874I16815875I21420276I28855003I37832189I47007893I55777539
851I65199979I76962843I89142601I97730993A003170869A007815376A012412962
844A015955333A017986266A019048425A019420541A019095605A017867765A014770843
837A009301893A003561935I97688810I90832634I83226774I75225501I67139149
830I59823506I53876204I49125982I45586466I43953024I45506968I50706793
823I56145762I59882886I63624554I69198442I76200051I82230550I86759930
816I91154260I96183538A001066344A004953898A008559608A012784559A016842985
809A019956326A022621362A025060753A026963451A028381113A029584228A030650801
802A031772989A033543039A035640166A036926868A037565708A037977735A038309031
795A038668038A039158915A039653490A039975831A040231263A040603639A041070763
788A041352738A041290178A040960439A040314720A039186496A037543773A035529518
781A033157035A030135393A026013887A020000261A010762776I98524416I86245171
774I75784000I67543453I63026923I64437641I70687749I77908578I84235784
767I90024933I95666962I99624021A000885737A001004757A001363699A002471805
760A004298380A006482403A008504251A010032756A011088426A011767178A012076279
753A012009501A011424135A009885831A007319437A004375801A001734777A000162661
746A000500577A002873903A006812856A011841160A017055262A021306496A024339300
739A026611648A028128926A028528104A027874662A026303649A023695398A019864108
732A014843398A008938019A002599197I96700048I92613456I91141606I92133612
725I95127478I99345421A003884470A008266990A011970239A014300085A015155030
718A014841451A013647551A012259677A011832528A012842901A014611717A015950011
711A016031391A015018877A013856323A013587912A014825097A017386623A020663113
704A024283359A027905812A030954386A033040351A034094334A033946435A032435192
697A029975359A027517667A026206175A026916272A029487727A032663952A035177520
690A036580580A037080348A036997215A036436640A035307313A033465617A030734322
683A026916856A022039306A016470156A010622275A004825468I99509544I95210351
676I92342579I90996173I90917648I91680376I92893354I94289795I95710702
669I97034914I98094997I98687047I98697041I98121215I96969174I95291342
662I93216344I90740611I87490598I82894570I76712992I69407538I62018238
655I55655988I50958462I47852000I45662914I43420743I40201881I35354509
648I28501513I19526728I08810643H97500627H87319353H80007864H76866099
641H78403884H84021058H92099753I00845258I09370958I17943710I27033037
634I36162080I43777933I48024495I47366250I40874338I28837092I13584813
627H99356015H90417508H88608066H92716593I00008938I07949014I14839066
620I19570663I21300542I19606226I14834977I07995415I00232376H92573432
613H86202681H82647850H83265794H88347637H96785858I06649853I16087673
606I23887572I29546280I33001365I34232255I33005713I28976814I22019854
599I12436730I00986213H88913858H77909114H69690697H65231146H64166520
592H64994533H65996145H66082262H65003878H63128113H61115221H59587689
585H58876424H58946383H59472368H60016004H60249113H60048389H59394168
578H58288203H56881509H55668465H55443599H56889621H60083627H64394955
571H68882607H72782427H75677067H77330173H77470998H75812311H72347492
564H67603564H62454618H57540986H52852090H47937615H42508965H36763556
557H31199532H26261694H22126041H18676667H15648535H12844037H10302693
550H08354957H07490148H08084664H10235331H13706899H17718601H20718437
543H20798974H16843278H09539447H01363342G95464064G94172690G98110475
536H06369192H17332078H29382498H41243939H52106690H61625501H69773246
529H76685687H82654015H88148535H93686275H99578999I05765444I11869082
522I17486385I22476660I26977096I31207304I35337441I39437142I43418277
515I47081160I50282501I53022622I55393742I57461926I59119575I60094773
508I60248253I59852385I59508758I59804946I61026166I63111937I65835510
501I68917959I71958551I74500284I76294734I77357673I77756915I77493047
494I76459506I74361146I70880686I66081791I60422370I54161619I46854088
487I37743930I26967621I16344014I08590710I05513646I06980954I11464582
480I17170145I22702824I27254723I30617136I32991825I34715344I36214451
473I38044854I40522924I43158821I44757415I44372839I42224183I39648380
466I38094954I38111438I39319095I41257032I43909543I47361708I51329085
459I55215277I58452634I60753147I62192485I63061577I63615014I64055012
452I64705274I65951025I67880331I70099788I72009819I73156733I73197294
445I71703248I68391065I63687373I58872384I55455393I54263376I54998004
438I56590432I57965976I58590020I58631294I58873552I60270448I63219470
431I67242464I71470335I75304480I78474345I80662198I81515975I81274431
424I81093824I82259039I85009674I88414788I91351351I93364373I94691180
417I95801298I96979557I98164306I99046897I99344707I99097192I98727152
410I98693147I99048130I99419727I99391432I98802887I97777458I96622692
403I95701422I95244032I95171932I95131113I94812990I94200887I93407983
396I92386578I90925630I88754845I85572196I81288448I76448799I72226508
389I69808338I69708852I71502394I74048735I76011397I76406811I75022375
382I72573574I70355090I69453939I70170655I72124426I74718660I77404074
375I79677784I81062609I81098821I79323125I75552904I70606239I66491872
368I64987768I65701499I66220800I64659911I61673703I59675153I60416400
361I63437717I66302245I66080753I61266867I53031837I44785126I40161256
354I40906202I46273655I54178232I62704452I70615455I77125928I81927224
347I85327406I87866543I89876126I91599645I93360674I95320675I97311956
340I99043458A000323410A001088992A001254154A000440028I97749553I91708670
333I80859872I65687156I50330394I40578151I38366546I38804727I34146462
326I21246873I04980328H94219334H94417463I04006103I17322652I29754922
319I39774993I47674508I54085625I59669247I65074340I70544523I75736106
312I80035169I82609869I82147288I77729919I70856675I65659121I65739593
305I70845642I77315425I81408377I81383132I76889186I68244984I57238357
298I47510191I42861531I45021478I52942215I63569976I73329228I79882208
291I83071802I84279589I85180091I86985769I90102419I94115419I98289686
284A002085152A005160334A007247013A008240772A008015841A005926760A001020397
277I93178120I83512384I73069967I61917843I50630151I42025146I39654026
270I44334031I53146509I61661243I66193024I64275854I54523805I37113786
263I14748535H93051459H79027409H77548809H88306428I06113094I24216403
256I37140262I41456524I36385194I25131572I14426130I10590298I15361093
249I25603953I36345217I43513740I45005773I41206283I34774789I28844815
242I25329116I25049153I28411631I35094988I43544566I51636499I58030872
235I62695562I66297767I69465945I72510041I75457246I78207881I80639419
228I82555097I83701751I83941998I83286220I81842469I80011352I78540734
221I77963416I78121958I78520292I78810184I78565200I76785741I71972374
214I63075919I51175865I40077799I33918870I34873302I42203546I50033558
207I52870959I52244319I51438046I52287994I54934600I58137043I60601160
200I61908368I62060031I60613101I56821333I50761761I44029407I38839316
193I36317507I36076611I37307826I39585106I42642506I46068322I49466363
186I52619420I55418922I57781800I59624663I60922008I61806221I62443374
179I62786222I62675314I62224868I61933029I62290154I63231671I64115884
172I64470219I64456331I64286367I63762069I62735992I61496990I60450211
165I59608634I58141261I54365848I47026193I37123260I28069822I23522595
158I24950770I31078225I39204294I47042547I53585403I58735193I62827885
151I66464810I70078372I73464213I76030866I77569624I78574545I79506004
144I79740929I77641530I71640364I60835890I45391258I27862413I13326460
137I06220173I07165195I13513297I21968002I30293367I37588762I43857950
130I49542292I55161088I60761259I65564827I68672132I70189864I71161104
123I72284266I73085931I72404779I69433367I64532909I59579950I57316168
116I59455478I65055909I71124372I75113814I76612467I76701440I76231460
109I74966305I72258502I68314163I64151318I60430417I57160222I54509334
102I53375723I54706100I58527590I63947608I69602097I74302285I77855104
95I80960851I83958481I86187543I86883752I85996618I83446773I78250777
88I69857270I60297185I53738170I53175388I57954814I64716695I70262418
81I72853148I71739266I67200216I60708369I53655297I46425317I39710551
74I35731557I36863285I43296077I52259635I59548994I63497616I66324958
67I70416093I75391441I79196967I80959488I81837342I83513422I86386386
60I88994313I89698115I88919358I88048772I87573341I87304605I87370929
53I87967457I88360470I87196228I83867756I78844644I72665013I65311147
46I57005314I49389461I45157891I45877592I50952880I58513637I66180694
39I71449698I72160249I67690249I60992031I57972790I63300461I74752990
32I80323179I74599640I64232049I53687745I44013118I36304787I31342613
25I27527612I21855406I13707532I06264108I03325274I06123672I13304720
18I21935229I29491507I36035142I41457302I44058870I43017347I39659412
11I36024045I33735863I34775179I39888951I45327270I47208747I46900229
4I49363243I59194011I73653580I79063540
$$ === CHEMSPECTRA ===
##$OBSERVEDINTEGRALS= (X Y Z)
##$OBSERVEDMULTIPLETS=
##$OBSERVEDMULTIPLETSPEAKS=
##END=


$$ === CHEMSPECTRA PEAK TABLE EDIT ===
##TITLE=JB-264
##JCAMP-DX=5.00
##DATA TYPE=INFRAREDPEAKTABLE
##DATA CLASS=PEAKTABLE
##$CSCATEGORY=EDIT_PEAK
##$CSTHRESHOLD=0.93
##MAXX=3997.453
##MAXY=0.9861870357043898
##MINX=373.96442
##MINY=0.7294144590551925
##$CSSOLVENTNAME=
##$CSSOLVENTVALUE=0
##$CSSOLVENTX=0
##NPOINTS=0
##PEAKTABLE= (XY..XY)
##END=


$$ === CHEMSPECTRA PEAK TABLE AUTO ===
##TITLE=JB-264
##JCAMP-DX=5.00
##DATA TYPE=INFRAREDPEAKTABLE
##DATA CLASS=PEAKTABLE
##$CSCATEGORY=AUTO_PEAK
##$CSTHRESHOLD=0.93
##MAXX=3997.453
##MAXY=0.9861870357043898
##MINX=373.96442
##MINY=0.7294144590551925
##NPOINTS=51
##PEAKTABLE= (XY..XY)
1722.5027812822514, 0.8473768786007962
1698.421739116497, 0.782545025942646
1672.9241650586396, 0.805841322679932
1587.932251532447, 0.8413590749362605
1542.6032309851444, 0.866981442505248
1466.1105088115714, 0.8845000224014647
1402.3665736669273, 0.9103221849489496
1327.290383385457, 0.910116488876196
1281.9613628381544, 0.8053649027718668
1257.8803206724, 0.8161494092342445
1239.4654060750586, 0.8106751996772625
1212.5513001250974, 0.79370086966779
1201.219044988272, 0.788842137353298
1187.05372606724, 0.7856892309112418
1150.2238968725565, 0.741645988224321
1134.6420460594213, 0.7294144590551925
1089.3130255121187, 0.8812687347323536
1056.7327919937447, 0.8316764786562795
1032.6517498279904, 0.8616010497846706
995.821920633307, 0.876451070360052
973.1574103596558, 0.901093716676848
922.1622622439404, 0.8906370952174291
910.8300071071149, 0.8904029682695468
893.8316244018761, 0.886300976668686
886.7489649413601, 0.8814215615928622
875.4167098045345, 0.8634988619035621
838.586880609851, 0.8618504956977046
831.5042211493351, 0.8213031246218055
807.4231789835808, 0.8869175863701982
793.2578600625484, 0.8659789517545807
756.4280308678653, 0.8630329923254145
740.8461800547302, 0.8059919434037243
728.097393025801, 0.8363391715680585
713.9320741047691, 0.8496190262283623
685.6014362627047, 0.898218567623382
671.4361173416728, 0.8577654909821775
662.9369259890536, 0.8738561227125795
644.5220113917121, 0.8597472860049907
621.8575011180606, 0.8834953264325393
597.7764589523063, 0.8482169464391588
566.6127573260355, 0.8323253942082772
538.2821194839717, 0.879254932357986
517.0341411024233, 0.8756357981390648
492.953098936669, 0.875451798805551
477.37124812353386, 0.8594303683119953
450.4571421735727, 0.9067980597252413
434.8752913604376, 0.8680880625415508
422.12650433150884, 0.8798580122510176
402.29505784206367, 0.8296665503388105
386.71320702892854, 0.8575974066932197
379.63054756841257, 0.8696883272519392
##END=

##END=

