##TITLE=X7736
##JCAMP-DX=5.0
##DATA TYPE=LINK
##BLOCKS=1


$$ === CHEMSPECTRA SPECTRUM ORIG ===
##TITLE=X7736
##JCAMP-DX=5.00
##DATA TYPE=INFRARED SPECTRUM
##DATA CLASS=XYDATA
##ORIGIN=ComPlat
##OWNER=
##XUNITS=1/CM
##YUNITS=TRANSMITTANCE
##XFACTOR=1
##YFACTOR=8.4272689e-010
##FIRSTX=3997.453
##LASTX=373.96442
##MAXX=3997.453
##MAXY=0.9048711071597205
##MINX=373.96442
##MINY=0.45861721108562137
##NPOINTS=2559
##XYDATA= (X++(Y..Y))
2559I95803899I96124510I96471079I96405301I96043102I95805101I95856308I96049184
2551I96233007I96343485I96363430I96397168I96545626I96604752I96273673I95713720
2543I95427270I95567807I95837353I96015164I96115032I96109303I95856450I95313536
2535I94739579I94612127I95121865I95835797I96151101I95847538I95054320I94091849
2527I93493629I93781776I94937123I96147921I96453962I95840748I95368071I95890753
2519I96846434I97163933I96737371I95960632I94933445I94024021I94213219I95682317
2511I96996590I97028488I96327925I96008089I96226995I96202594I95529756I94694101
2503I94386079I94761505I95404213I95966149I96586578I97496002I98272387I97929070
2495I96056469I93546746I91940153I91956137I93220264I95257239I97379301I98497232
2487I98106246I96855699I96154499I96833208I97762507I97534408I96508706I95673122
2479I94812854I93463994I92857570I94275318I96347375I97102895I96674918I95825046
2471I94575136I93380322I93682191I95421612I96582688I96464855I96105343I96190499
2463I96305291I96052367I95363120I94088596I92465098I92045255I94674014I98325999
2455A000099794A000351658I99954448I99087602I97701610I95876607I93899468
2448I92473586I92672898I94702447I97015404I98233982I98425726I98079228I97402995
2440I96683193I96406221I96496187I96153721I95261625I95021926I95914871I96390661
2432I96288387I97435388I99888034A001214472A000226469I97737257I95272446
2425I94561556I95833321I96689063I95661027I94472155I95315307I97514109I99663398
2417A001711834A003302018A003638614A002941728A002112793A001568255A001161992
2410A000794983A000472250I99974676I99158118I98458190I98504659I99136616
2403I99534887I99355379I98848752I98448147I98570365I99147367I99582983I99854509
2395A000456831A001033408A000695680I99565301I98676529I98357544I97742420
2388I96235412I94202610I92781395I93337390I95175619I95718742I94669699I93973662
2380I94880682I95791450I95054603I93143029I91218582I90428052I91386562I93369925
2372I95258795I96760145I97788535I98253503I98361788I98293889I97893566I97330569
2364I97285161I97885715I98469153I98485845I97820433I96708372I96062764I97092780
2356I99367332A001100741A001624343A001269711A000624598A000464399A001030437
2349A001380260A000815918I99924317I99495704I99618417A000024327A000754173
2342A002188472A004169855A005497142A005395010A004190578A002531929A000869743
2335I99254874I97526274I96169776I96752789I99314852A001005117A000954970
2328A001046563A002636536A004582837A005550896A005492120A004673369A003237656
2321A001282584I99195957I98139984I99112286A000670784A000284961I97729406
2314I95296847I95658623I98187513A000376201A001743167A002527331A002684207
2307A002433333A002319956A002400657A002017309A000626225I98337316I95601686
2300I93247141I93080576I95921520I99009659A000191883I99887185I99238960
2293I99288682A000484273A001927414A002305881A001621372A000776735A000417435
2286A000663075A001669185A003429683A004872823A004763760A003356267A001855200
2279A000905814A000241322I99697562I99601372I99983800A000289627I99970220
2272I98956188I97768660I97504844I98849742A000802692A002004295A002182177
2265A001842257A001725131A002072195A002301708A001997930A001639196A001585867
2258A001305924A000474442A000062945A001248139A003101928A003775120A003235039
2251A002550884A002414378A002767242A003116074A002994916A002367273A001732699
2244A001507853A001373399A000859063A000223286A000111465A000593478A001312785
2237A002235011A003421974A004555465A005153756A004976865A004063762A002709952
2230A001504954A000983049A001059012A001126062A000916140A000872643A001472419
2223A002453067A003028371A002820783A002286003A002082592A002172629A001905488
2216A001018555A000144848A000022488A000468360A000693980A000436461A000176110
2209A000242666A000270745I99897511I99398665I99292289I99649396A000075959
2202A000234461A000176181A000220245A000560801A000972933A001027042A000597297
2195I99986912I99527390I99261098I99153874I99367969A000026165A000809765
2188A001194456A001115453A000984959A001028811A001047554A000850717A000469279
2181I99942565I99385156I99210315I99766098A000763718A001477370A001558071
2174A001354797A001389454A001779238A002193704A002178429A001537064A000565399
2167I99920993A000076666A000771006A001212421A000944502A000289983I99878910
2160I99965976A000303209A000523881A000516030A000393388A000171230I99681932
2153I98919551I98259019I98150239I98731343I99769773A000773128A001237954
2146A001033125A000469491I99950982I99798350A000244009A001200963A002161029
2139A002620976A002454269A001765234A000690445I99462815I98418795I97803529
2132I97599902I97589222I97614119I97705641I97863224I97926526I97895900I98166648
2124I99105284A000426982A001288313A001144664A000361631I99788802I99898926
2117A000482859A000973501A000973784A000644827A000435259A000337795I99979203
2110I99591753I99927288A000911260A001444057A000910836I99935846I99333595
2103I99226441I99386994I99651306I99842131I99854155I99825015I99900411A000015133
2095A000075888A000006221I99554550I98579206I97579673I97394790I98257110
2088I99506808A000305117A000446080A000390205A000593195A000969965A001056607
2081A000563631I99703504I98991057I98733960I98858795I99288258A000056438
2074A000823345A000899378A000156023I99353894I99246882I99839019A000602531
2067A001002641A000777018I99994834I98972527I98149037I97926242I98388664
2060I99197796I99927712A000412131A000655929A000629266A000367501A000157721
2053A000372169A000995073A001465629A001250402A000500187I99839797I99649892
2046I99909818A000520769A001289162A001759929A001611046A001199619A001216028
2039A001702144A001860504A001042461I99566574I98256403I97433549I96713960
2032I95683519I94500659I93791251I94009946I94900698I95724612I96169352I96662399
2024I97455334I97959344I97600256I96874796I96822457I97763355I99119146A000179505
2016A000638178A000655012A000702612A001160648A001878258A002349308A002398818
2009A002379721A002512973A002473790A001978692A001381391A001218645A001433730
2002A001471428A001008512A000258721I99534392I98768405I97733367I96674281
1995I96272544I96800814I97687461I98139699I97930840I97411058I96889932I96190924
1987I95027655I93756314I93202299I93562872I94107692I94222414I94125516I94264635
1979I94523363I94462961I94041986I93663236I93610331I93773925I93914321I93975784
1971I94150129I94667860I95415176I95902211I95802625I95223714I94307217I93140553
1963I92170232I91977709I92527268I93226205I93607997I93507068I92921791I92061240
1955I91170346I90283979I89549253I89443443I90097539I90802700I90777450I90120243
1947I89531005I89376393I89467986I89534824I89504764I89343434I88985407I88565422
1939I88419722I88642021I88878819I88710628I88020530I86913280I85575808I84328443
1931I83592727I83625616I84221361I84751186I84709669I84205942I83668053I83256768
1923I82949807I82854890I82924769I82739320I82061177I81248296I80772507I80678650
1915I80708781I80608559I80156888I79193215I77826107I76472082I75508694I74961752
1907I74651112I74427683I74049781I73101739I71378020I69176035I67056237I65472984
1899I64573108I64111111I63705838I63279063I62939072I62492706I61663487I60765379
1891I60531905I61236995I62455995I63706262I64919182I66173690I67330946I68222264
1883I68976299I69782743I70457208I70686863I70631695I70788570I71269593I71637946
1875I71516647I71024449I70544628I70291704I70251106I70435989I70913618I71468481
1867I71607321I71178424I70674415I70633037I71048355I71603855I72120596I72535700
1859I72729001I72608692I72254414I71850131I71420881I70694714I69424787I67819608
1851I66262807I64584990I62051361I58076713I52512022I45242991I35830469I23603171
1843I08203568H90296293H71686332H54598373H40954671H32071125H28253282H28443753
1835H30793630H33866705H37153730H40644598H44420216H48659317H53566235H58998805
1827H64299609H68716450H71937205H74082960H75360455H75918926H75868426H75242197
1819H74064925H72485137H70604825H68182169H64787422H60322910H55184640H49858445
1811H44563300H39370428H34392499H29636869H24986200H20710883H17779198H17236287
1803H19281043H23139484H27849635H33052339H38918262H45382970H51768958H57312289
1795H61828573H65715873H69471121H73248225H76758754H79626433H81846736H83759512
1787H85624900H87431865H89042280H90354502H91403757H92408169H93656029H95258874
1779H96971772H98259734H98662956H98157461H97046107H95447011H93132639H90060980
1771H86896878H84733653H84297259H85565132H88076768H91379709H95156318H99139522
1763I03033258I06505735I09256288I11138510I12268465I13025470I13837926I14846583
1755I15804527I16386125I16575536I16737292I17300148I18331013I19477377I20430936
1747I21339229I22595151I24326863I26244873I27958337I29401973I30890733I32667287
1739I34534514I36172581I37631211I39149748I40643459I41772990I42459691I42998712
1731I43630669I44244661I44585077I44576872I44348349I44106458I44097122I44479833
1723I45123602I45726066I46216707I46833388I47767426I48926875I50053719I50906348
1715I51317280I51251361I50918867I50745441I51059051I51760817I52394967I52570373
1707I52285692I51881621I51718168I51889684I52230736I52530550I52684670I52702494
1699I52656874I52608849I52559905I52471990I52310800I52127685I52140769I52565066
1691I53307008I54079786I54819816I55627463I56337858I56590641I56353206I56049357
1683I56135363I56685346I57365681I57796983I57978684I58258202I58863212I59659966
1675I60424327I61090729I61606268I61763992I61394083I60595631I59571697I58358212
1667I56970027I55719622I55041124I55012904I55374325I55959674I56761308I57642583
1659I58381764I58977367I59608122I60337543I61084576I61760314I62264324I62488038
1651I62479267I62527147I62954420I63797077I64734722I65389030I65649522I65614016
1643I65315967I64723901I64018315I63622378I63762986I64133673I64257730I64099087
1635I63948789I63812708I63414861I62788633I62329606I62224504I62283916I62371053
1627I62584723I62937728I63210598I63296108I63440819I63953033I64843361I65876984
1619I66811514I67508828I67965874I68224952I68204653I67799450I67179588I66733787
1611I66694674I67013942I67478910I67796338I67781061I67598582I67622064I68020476
1603I68658514I69316785I69836496I70122522I70180872I70154986I70254147I70643718
1595I71400370I72486191I73730090I74922993I75943249I76660929I76822826I76336003
1587I75581827I75061550I74772130I74347123I73752440I73358200I73305648I73345186
1579I73435789I73934919I74931622I75924152I76491535I76827423I77308940I77967988
1571I78667845I79422162I80240559I80942821I81441455I81992216I82843644I83783482
1563I84337921I84362039I84195757I84239467I84506537I84692694I84676073I84690855
1555I84833302I84827856I84631585I84707688I85239494I85724408I85909359
1548I86386283I87522533I88408193I87759827I85621639I83324738I81909181
1541I81384165I81403191I81808181I82441271I83020606I83321484I83291071
1534I83134479I83310097I84132384I85385336I86559002I87362192I87879640
1527I88409466I89183871I90115645I90905256I91431828I91818429I92119166
1520I92238485I92139182I91819066I91190574I90356051I89885637I90340773
1513I91497959I92467927I92673676I92425137I92472525I93189144I94222555
1506I94907700I95000920I94813702I94582209I94146451I93450273I92877232
1499I92782668I93053204I93341351I93468379I93499853I93637773I94079825
1492I94884713I95973574I97176664I98146279I98468729I98204629I98068265
1485I98598940I99367615I99492167I98805537I98046905I97976601I98627443
1478I99387631I99682922I99567281I99503343I99566715I99292853I98453027
1471I97459365I96788437I96541241I96727893I97377816I98167992I98507983
1464I98222948I97772338I97699134I98133265I98759634I99062917I98757300
1457I98133194I97815199I98124848I98878741I99746365A000538381A001173733
1450A001623282A001906690A002003730A001814744A001353100A000878159A000623962
1443A000497146A000276615A000003462I99934149A000260135A000996488A001917653
1436A002575426A002708113A002551945A002410912A002154664A001567336A000876179
1429A000485051A000443958A000548919A000727013A001048615A001526314A001973104
1422A001913692A000809553I98673275I96225086I94116180I92258218I90225769
1415I88006669I85933622I84109893I82314030I80381096I78380263I76303539
1408I73771395I70567120I67575949I66268395I66867110I68084981I69058343
1401I70290148I72301873I74655354I76650673I78009647I78644009I78367391
1394I77051841I75047404I73403608I73093323I73955852I75083334I75944381
1387I76722180I77721783I78726761I79213938I79177654I79219667I79576703
1380I79772692I79653090I79952766I81358562I83579572I85903067I88130726
1373I90254909I91844104I92454347I92290541I92062796I92384114I93494973
1366I95319622I97465872I99297170A000379383A000911826A001479208A002381914
1359A003430461A004287263A004744169A004806339A004785403A005142793A005989553
1352A006893319A007368825A007387002A007219659A007012284A006748114A006462301
1345A006216944A005968546A005651188A005325343A005159556A005309426A005771426
1338A006361866A006977839A007782586A008835872A009681712A009740628A009010076
1331A007955163A006835392A005659531A004699044A004341795A004453192A004711348
1324A005490635A007343292A009620602A010853255A010698289A010337151A010683154
1317A011231086A011118840A010546506A010449679A011154841A012065043A012527889
1310A012458929A012313580A012769143A014078607A015713492A017036677A017874030
1303A018004099A017062352A015537449A014807533A015627062A017267747A018491912
1296A018973993A019442288A020391887A021096058A020540628A018963387A017613113
1289A017308062A017821620A018331430A018124832A017088592A015648564A014291287
1282A013248257A012580157A012447613A013177529A014756185A016452249A017705555
1275A018876320A020075236A020062717A017703079A014090419A011817636A012148220
1268A013924066A015422587A016403871A017663967A019697900A022668914A026148676
1261A028301574A027680934A025718928A024925995A026172157A028437231A029779089
1254A028976959A026786147A024804343A023497637A022536086A021791388A020712357
1247A018483637A015930838A015425699A018005726A022087315A025450163A027098840
1240A027143894A026138064A024675051A023109551A021713162A020920934A020850135
1233A020916054A020742558A020978012A022235561A023746389A024112478A023079279
1226A021731481A021132058A021341060A021741736A022077413A022799690A024163120
1219A025462399A025751322A025042202A024267586A024150530A024561391A024992409
1212A025244130A025426752A025670694A026071582A026458607A026186586A024976283
1205A023838053A023987429A025081032A025894124A026377552A027425109A028946475
1198A029832559A029741178A029582252A030089940A030813278A030831667A029850878
1191A028260976A026781765A026363760A027544074A029269774A029271684A026540440
1184A022901256A021484215A023729343A028300089A032873028A036411565A039261067
1177A041207156A040714251A037091759A032215325A028593541A026859071A026633447
1170A028009113A030221282A031113095A030210107A030193132A033033369A036481020
1163A036666682A033065409A028953265A027607235A029325154A031622410A031626866
1156A029149890A027359969A029064945A033016606A035596775A035265554A033549473
1149A032573210A032825640A033026650A032087944A030867244A031158008A033271511
1142A035659369A036673047A035510274A032263350A028228229A025299085A024639334
1135A026673904A031603879A038171992A043008323A043947100A042524541A041024253
1128A039418437A036914160A034412005A033422870A033752534A034244660A034765151
1121A035879264A037404590A038414803A038156786A036393529A033632650A031368707
1114A031210700A033291598A035982032A037556939A037866867A037987604A038575073
1107A039351808A040196166A041412265A042720247A043192146A042501343A041368629
1100A040611199A040446898A040594225A040564660A040141917A039716557A039710404
1093A039904977A040085193A040729667A042102081A043280698A043232603A042199969
1086A041409085A041636053A042429200A043047648A043518204A044146766A044675319
1079A044694345A044454714A044500761A044789969A044794567A044286313A043549536
1072A042908172A042481822A042450701A043247951A045061354A047184122A048393718
1065A048283099A047613090A047213967A047246788A047510463A047863680A048292293
1058A048744177A048839023A048102034A046968472A046581588A047352951A048726424
1051A049893724A050389388A050275232A050010638A050111990A050725557A051505268
1044A051976319A051936428A051484191A050895590A050619467A051063287A051935296
1037A052470144A052522129A052499991A052589250A052473822A051862870A050956346
1030A050250194A050245314A051177018A052734738A054216426A054938208A054720365
1023A053965128A053103799A052336538A051636328A050660701A048993351A046632159
1016A044076816A042028878A041019938A041170165A042174649A043522942A044906529
1009A046407667A048157061A049928451A051341532A052268709A052859927A053422500
1002A054217274A055111422A055806256A056302274A056661645A056722117A056437081
995A056212449A056391179A056733363A056876163A056902899A057092097A057465189
988A057714789A057640595A057488529A057448214A057278112A056731383A056033860
981A055687079A055825777A056078065A056194272A056214995A056186350A056069295
974A055759788A055155061A054459872A054142797A054241746A054317779A054089185
967A053764967A053744738A054109201A054613706A055217443A056270800A057925064
960A059469629A060516549A061588508A062868902A063884278A064293653A064319327
953A064238626A063943053A063339457A062955261A063691543A065369360A067019946
946A068449507A069856646A071109245A071863774A072174908A072603168A073320070
939A073741823A073303944A071991227A070262627A068430127A066781309A065760770
932A065395742A065469865A065871955A066334235A066453978A066293284A066721897
925A068178264A069545157A070115158A069954747A069095893A067432009A065030076
918A062019879A058253739A053797714A049412205A045507013A041576287A037445471
911A033928789A032103009A031784943A031851074A031596665A030906922A029923162
904A028754943A027019270A024028595A018947261A010426339I98158090I83876206
897I67592146I47823655I24815879I00298973H74776664H48505130H26472131
890H12095471H00750651G86785771G66849018G41221748G13574478F86992518
883F63481368F45994714F35385044F29144190F25046475F22613139F21702936
876F22242876F25388588F32896964F45466020F61821516F79581111F96814557
869G12587677G26561397G38876256G50395280G62252032G74999960G88332670
862H01387347H13395740H24242350H34319578H43909275H52864610H60832790
855H67624971H73264139H77786577H81534187H85992970H93380047I02626146
848I09254237I12317621I13952294I15862383I17768793I18504365I17791426
841I15846752I12843840I09234999I07024241I09063341I12528109I14341157
834I15273499I16101727I17090509I18376915I19639133I20342101I20521822
827I20617588I20878505I21913331I24565642I27029745I27332604I26024555
820I24540675I24097208I24502269I24852233I25187485I26098678I27416132
813I28345289I29114250I30846811I33532860I36472894I40075794I44519441
806I48700615I51664768I53182597I53259055I52880729I55382318I61957080
799I67507481I70191552I71399804I72318140I73802727I76361678I79222072
792I80842104I80779863I79758546I79200146I80531323I83523555I86736247
785I89328651I91202810I92464391I92810818I91216885I86419101I77171375
778I61081888I34929956I01936119H72684588H51812315H37373909H27584475
771H21564930H17317059H12591206H06519391G99517149G94358227G94923700
764G99479451H04346478H07967838H08183135H01617921G86427533G65671180
757G45884724G32348316G27094972G28807021G34812774G44216809G56877812
750G69649647G79675031G87950808G96077561H03398294H07700273H07361343
743H01306717G89002184G70948289G47089510G17973850F90814110F74503809
736F68774179F69740823F75485447F84710752F95416542G05791606G15269482
729G23903145G31107530G36189783G39455238G41646330G43441910G46280378
722G52487282G63038814G76195552G90085388H03953299H14848641H15586408
715H01707959G78548894G55744816G39427088G30277604G26617060G28208447
708G35767959G47221348G57123452G62577311G66803328G75135829G89246268
701H06581493H24759939H42900194H59494469H72926553H83390947H92105381
694H99997670I07430649I14360043I20595945I25902831I29856544I31929520
687I32063125I31169190I30908627I32960031I38227026I46054033I54523040
680I62199961I68902741I74952133I80497162I85487539I89860458I93510038
673I96158460I97439208I97049283I94718994I90274360I84156573I77839687
666I73196798I71309413I71840866I73070831I72506702I67847829I57647958
659I41194291I17719001H86162931H46578703H01894540G57720752G20114725
652F93194895F78118237F73792421F78416003F90397308G08255427G30251859
645G54454449G79210063H03447380H26438252H47244610H64234398H74861325
638H75837022H63839521H36869263G96125020G47302402F99441195F61269765
631F37804942F29373562F32795539F43459741F57060865F70515793F82289227
624F92183834G00733118G08661619G16522646G24341943G31384573G36136525
617G36247851G28606789G10418650F81471961F45921722F11441249E85641190
610E72348336E70711117E77321632E88837332F03144041F19166336F36221760
603F53604585F70669061F87058861G02621634G17221654G30842228G43687266
596G55852889G66786565G74948046G77690394G71470335G53037053G21911789
589F82787083F45129069F18785959F08631143F12943165F26327223F43625809
582F61640593F78765118F94250798G07881486G19764195G30086779G39002577
575G46654319G53247682G59097267G64527432G69686850G74569508G79231140
568G83802805G88263074G92403226G96051392G99167256H01766309H04001039
561H06292284H09081597H12358436H15648366H18548227H21063750H23373665
554H25546297H27661144H29977850H32713409H35628971H37834987H37904159
547H34329126H26542151H16093176H06554050H01441454H01894398H06437348
540H12659317H18787005H24164903H28974711H33605010H38113091H42266398
533H45915979H49091255H51889479H54497585H57150038H59865652H62332655
526H64138490H65008307H64776530H63230763H60128054H55533048H50211238
519H45543736H42870064H42865538H45494650H50338266H56757072H63855860
512H70647192H76443730H81065612H84691145H87614417H90103275H92350455
505H94484823H96571237H98563654I00348482I01892976I03265035I04507448
498I05671283I06969147I08652905I10698580I12812790I14843541I17015749
491I19581418I22348946I24834763I26853491I28608613I30179489I31265169
484I31413132I30159402I26986813I21400267I12926592I00762597H83333091
477H58411831H24491880G83021753G39330120G00659631F72878189F58575228
470F57079891F65364721F79390003F95628656G11916819G27311047G41645694
463G55160458G68021269G80010071G90782557H00263828H08564714H15715767
456H21772942H27049769H31933629H36469153H40359563H43528757H46548573
449H50244622H54827957H59633380H63798782H67017839H69558612H71766679
442H73755488H75497739H77041596H78614452H80566695H83109165H86027698
435H88859023H91464512H94118663H96854433H98983848H99219588H95664925
428H85520505H65737020H35524081G99300155G66571197G46953853G44066087
421G54232925G70671459G88075785H03918289H17506187H28917208H38391194
414H46144148H52476523H57781854H62384357H66456044H70047416H73182165
407H76008114H78764326H81480858H83851742H85549928H86588008H87280084
400H87907869H88546192H89188546H89824889H90324372H90515692H90542427
393H90887723H91873110H93342844H94976455H96661557H98340011H99654709
386I00066984H99292367H97277742H93548734H86588998H74123983H55057612
379H32462394H14245682H08608919H17584341H35657121H54844932H70232653
372H81013839H88377009H93695566H97928018I01417116I03960436I05435121
365I06357276I07535398I09282387I11271264I12980275I13881707I13224500
358I10063935I04089303H96810299H91429431H90562797H94013773H99312666
351I04162860I07858978I10803894I13467805I15862028I17669066I18777874
344I19572436I20523873I21625254I22518623I23106871I23651691I24236968
337I24605108I24679727I24775776I25074179I25281200I25041997I24426802
330I23821792I23500896I23450257I23493259I23383277I22841144I21801792
323I20616881I19643871I18595466I16722297I13786080I10486466I07676359
316I05428755I03176271I00550482H97588310H94112792H89459153H83072457
309H74998326H65407426H53803811H39122808H20707137G98963064G75045085
302G50168950G25254480G00931157F77735880F56271042F37083018F20504728
295F06807131E96406180E89787920E87278444E88834644E94043288F02469293
288F13840565F27718449F43280586F59443840F74477427F84894292F84974710
281F68877160F35778788E94249815E59615402E44206215E49758493E69308574
274E94749298F21630652F48447077F74081490F97128874G16816169G33438095
267G47817799G60675357G72345456G82810133G92045553H00258241H07527837
260H13409108H17290253H19041769H19028543H17707904H15595815H13373532
253H11363009H08639545H02835439G90932289G70483251G41007583G05434711
246F70659655F45480236F35864157F41555523F57506736F77871891F98648613
239G17939900G35047662G49941629G63236924G75639981G86982750G96340812
232H03312572H08617831H13334063H18092736H23024975H27981614H32755563
225H37282811H41539453H45302906H48357449H50912155H53488292H56396782
218H59478485H62266595H64176047H64243168H60832649H52785677H41641160
211H31712603H28648087H37808393H55747425H70041262H77172161H81105291
204H84991882H89565669H94028060H97412338H99584687I01313570I03327912
197I05606000I07898375I10417081I13420983I16511244I19037730I21064025
190I23286308I26000295I28802268I31435765I34234484I37474831I40888390
183I44071377I46799085I48701040I49214810I48025160I44695625I37306002
176I22035408H94616519H52735460G99264154G44960659G05283423F90797205
169G00519872G24534607G52001167G76945555G98314202H17027073H33762239
162H48513403H61238700H72367585H82460021H91651235H99677129I06263915
155I11551631I16343759I21494336I26738203I30613761I31524176I27912364
148I16714659H92554860H50451714G91456032G27497416F78857419F60689934
141F71959146F99963169G31319855G58216982G79013579G95429265H09188113
134H20720222H30020570H37396118H42932729H46515825H49183697H53147806
127H59301523H65639415H69434413H70618405H71573379H73825439H76826228
120H79941103H83521936H87558542H91172402H94055007H96841985H99714898
113I02092147I03867216I05745687I08150027I10391124I10920596I08241620
106I01372557H89514883H72519723H52752789H35763284H26967724H27447050
99H34104635H42988322H51586762H58633423H63045384H63509857H57295739
92H39150392H06362303G67197214G37892850G30559315G45803387G73854868
85H03170125H27965771H47993410H64571347H78104218H88015517H94186137
78H98128321I02002676I06555599I10575442I12439062I12222633I11620099
71I11711833I12149217I12922702I14792900I17375827I18960424I18274784
64I14859809I07970165H96105987H77559681H53174825H29153017H12581162
57H06182514H09008393H17381563H27210674H37425753H49186385H62356278
50H74528478H83421219H89184939H93473408H97132254I00072359I02720356
43I06099684I10034158I12846103I13812818I14301338I15063506I14279978
36I10249172I04132659H98238799H95156388H97944003I05535555I13487892
29I18987796I21384849I21103350I18539449I14235136I10178939I09339394
22I12883872I18631749I22628464I21793234I17501582I16237455I20040233
15I23905818I24790629I24150962I22839444I18694627I11581693I08116926
8I15881550I32183646I46950797I53365784I49656296I36488808I16747335
1H95580546
##END=


$$ === CHEMSPECTRA PEAK TABLE EDIT ===
##TITLE=X7736
##JCAMP-DX=5.00
##DATA TYPE=INFRAREDPEAKTABLE
##DATA CLASS=PEAKTABLE
##$CSTHRESHOLD=0.93
##MAXX=3997.453
##MAXY=0.9048711071597205
##MINX=373.96442
##MINY=0.45861721108562137
##$CSSOLVENTNAME=- - -
##$CSSOLVENTVALUE=0
##$CSSOLVENTX=0
##NPOINTS=33
##PEAKTABLE= (XY..XY)
385.29667513682534, 0.7652945528043402
405.12812162627006, 0.7663247594601047
419.29344054730245, 0.7543723589228734
453.2902059577791, 0.6793916827956015
497.2026946129786, 0.6156619794904804
515.6176092103201, 0.6969079381768984
573.6954167865515, 0.5567811733341252
613.3583097654414, 0.5821533801903425
670.0195854495696, 0.6983240252619595
718.1816697810787, 0.5358598234910817
764.9272222204845, 0.45861721108562137
786.1752006020324, 0.49491533667615917
874.0001779124314, 0.7505012162655114
906.5804114308053, 0.681436479535132
970.3243465754495, 0.6270444994519795
1038.3178773964032, 0.5537388930239691
1104.8948763252538, 0.7103054535269169
1141.7247055199373, 0.6753962640464981
1202.635576880375, 0.5129098302975353
1235.215810398749, 0.48095360471783616
1264.962980132916, 0.5303900245524822
1293.2936179749804, 0.5678229931403544
1342.8722341985927, 0.78450173210588
1378.2855315011725, 0.6123397360374703
1415.115360695856, 0.5635939839809734
1442.0294666458167, 0.6127424844881971
1457.6113174589523, 0.6694270381856241
1614.8463574824077, 0.5239257817591491
2364.1917284050173, 0.8154022703395687
2878.392805238467, 0.7452210789125946
2927.97142146208, 0.6887069945386575
2974.7169739014853, 0.6979913124721531
3052.6262279671696, 0.8096628198643414
##END=


$$ === CHEMSPECTRA PEAK TABLE AUTO ===
##TITLE=X7736
##JCAMP-DX=5.00
##DATA TYPE=INFRAREDPEAKTABLE
##DATA CLASS=PEAKTABLE
##$CSTHRESHOLD=0.93
##MAXX=3997.453
##MAXY=0.9048711071597205
##MINX=373.96442
##MINY=0.45861721108562137
##NPOINTS=124
##PEAKTABLE= (XY..XY)
3990.370340539484, 0.8391917358118659
3974.788489726349, 0.8388733274682904
3962.0397026974197, 0.8381863845429951
3952.1239794526973, 0.8372437962019839
3943.624788100078, 0.8388234388791292
3933.709064855356, 0.8376907718026247
3925.2098735027366, 0.8393627992578132
3918.1272140422207, 0.8379958878149644
3903.9618951211883, 0.8359346402038142
3892.6296399843627, 0.8394861829017781
3881.297384847537, 0.8367077721790573
3871.381661602815, 0.8371483093462586
3864.299002142299, 0.8394447578187734
3854.383278897576, 0.836023212485407
3840.217959976544, 0.8363841785369276
3827.4691729476153, 0.8396983157999828
3821.8030453792026, 0.8385317331797902
3817.553449702893, 0.8395990139196264
3807.6377264581706, 0.8381437670014409
3801.9715988897574, 0.838068426374748
3780.7236205082095, 0.8414275652537292
3772.2244291555903, 0.8414191017475728
3752.392982666145, 0.8366435774582116
3745.310323205629, 0.8376483329191712
3736.81113185301, 0.8346603520307183
3721.229281039875, 0.8404390221726793
3712.7300896872557, 0.839408875350524
3677.3167923846754, 0.8394990572404767
3657.4853458952307, 0.8411594045009698
3650.4026864347147, 0.8387634164991159
3629.1547080531664, 0.8368957053318887
3588.0752831821737, 0.8406241549440552
3419.507988021892, 0.8411680466652267
3391.177350179828, 0.8406952625535796
3384.094690719312, 0.840953708350751
3333.0995426035965, 0.8405314094789031
3293.4366496247067, 0.8409792783700474
3248.107629077404, 0.8374946111071663
3233.942310156372, 0.8400490890697688
3198.5290128537918, 0.8395856625975082
3184.36369393276, 0.8369982845771201
3178.697566364347, 0.8377763043683253
3170.198375011728, 0.8373421441155007
3151.7834604143864, 0.8359662896548951
3137.618141493354, 0.8338305955502823
3129.118950140735, 0.8337740907123078
3119.2032268960124, 0.8329678783357246
3107.870971759187, 0.8289000398513291
3095.1221847302577, 0.8282782447709921
3086.6229933776385, 0.8264442688038985
3051.2096960750587, 0.8094660650464255
3034.2113133698203, 0.8179774296627786
3022.8790582329943, 0.8176566970784404
3012.963334988272, 0.8179785606022649
2974.7169739014853, 0.6979913124721531
2927.97142146208, 0.6887069945386575
2878.392805238467, 0.7452210789125946
2816.0654019859267, 0.7956160314810107
2797.6504873885847, 0.8012187486756085
2787.7347641438623, 0.8020384918751375
2772.1529133307267, 0.8023836028629497
2757.987594409695, 0.8056885013111098
2729.656956567631, 0.8048150544977886
2711.2420419702894, 0.8111071593683897
2695.660191157154, 0.8120704897463444
2681.494872236122, 0.8108924637377126
2654.5807662861607, 0.814659596199584
2647.4981068256448, 0.81542134377727
2636.165851688819, 0.8175756941697736
2612.084809523065, 0.8202308417584747
2583.7541716810006, 0.8294082294478058
2578.088044112588, 0.829813004656703
2572.421916544175, 0.8297755134228207
2555.4235338389362, 0.8270388252656969
2545.507810594214, 0.8285138619394403
2518.593704644253, 0.834203244324679
2511.511045183737, 0.836343349261834
2495.929194370602, 0.8366446502495426
2477.51427977326, 0.8410989649711459
2469.015088420641, 0.8410217172535009
2453.433237607506, 0.8398121007846705
2443.517514362783, 0.8407878883515133
2435.018323010164, 0.8408856994480012
2362.7751965129005, 0.8143003594236417
2342.943750023456, 0.8200519097715555
2331.6114948866298, 0.8251793391129161
2325.945367318217, 0.8255800018145901
2311.780048397185, 0.8360379947577845
1614.8463574824077, 0.5239257817591491
1559.6016136903827, 0.7643737186152674
1532.687507740422, 0.7787615661555232
1508.6064655746677, 0.8030182132911029
1490.1915509773257, 0.825198293726126
1457.6113174589523, 0.6694270381856241
1442.0294666458167, 0.6127424844881971
1415.115360695856, 0.5635939839809734
1378.2855315011725, 0.6123397351947434
1342.8722341985927, 0.78450173210588
1314.5415963565283, 0.8185485608452157
1293.2936179749804, 0.5678229914549007
1264.962980132916, 0.5303900245524822
1235.215810398749, 0.48095360471783616
1202.635576880375, 0.5129098302975353
1141.7247055199373, 0.6753962640464981
1104.8948763252538, 0.7103054535269169
1038.3178773964032, 0.5537388930239691
970.3243465754495, 0.6270444994519795
906.5804114308053, 0.681436479535132
874.0001779124314, 0.7505012162655114
837.1703487177479, 0.7782163631513108
786.1752006020324, 0.49491533667615917
764.9272222204845, 0.45861721108562137
718.1816697810787, 0.5358598234910817
670.0195854495696, 0.6983240252619595
613.3583097654414, 0.5821533801903425
573.6954167865515, 0.5567811733341252
515.6176092103201, 0.6969079381768984
497.2026946129786, 0.6156619794904804
474.5381843393275, 0.7682467708917622
453.2902059577791, 0.6793916827956015
419.29344054730245, 0.7543723589228734
405.12812162627006, 0.7663247594601047
396.6289302736509, 0.772137940953665
385.29667513682534, 0.7652945528043402
##END=

##END=

