##TITLE=X7835
##JCAMP-DX=4.24
##DATA TYPE=INFRARED SPECTRUM
##DATE=30/10/2018
##SAMPLING PROCEDURE=Diamant-ATR
##ORIGIN=ComPlat
##XUNITS=1/CM
##YUNITS=TRANSMITTANCE
##RESOLUTION=4
##FIRSTX=3997.453
##LASTX=373.96442
##DELTAX=-1.4165319
##MAXY=0.85281491
##MINY=0.32535547
##XFACTOR=1
##YFACTOR=7.9424578e-010
##NPOINTS=2559
##FIRSTY=0.78293842
##XYDATA=(X++(Y..Y))
3997+985763399+986167595+986772837+986947919+986505975+985797170+985265922
3988+985170089+985530082+986116414+986635804+987021689+987317368+987332302
3978+986849234+986150109+985808802+985927524+986123468+986254122+986526388
3968+986912722+987017936+986612165+985990487+985682800+985844148+986107558
3958+986123693+985890902+985472447+984874109+984340234+984330178+984970242
3948+985649855+985532934+984694750+984351942+985484905+987366748+988499486
3938+988414835+987433614+985851728+984291680+983866622+984821502+985788464
3928+985603102+984683268+984157273+984408451+984758989+984622331+984308190
3918+984512539+985345095+986116338+986296673+986219301+986448115+986641057
3908+985645202+983101307+980424130+979592775+980828251+982870392+985231251
3898+987637588+988923719+988370633+986733063+985640925+986041968+986854862
3888+986669950+985847075+985465018+985278454+984429914+983752327+984511789
3878+985634921+985436726+984331604+983476385+983090875+983359839+985154404
3869+987754659+988895877+988201480+987153769+986663421+986166319+985034106
3859+983285994+981095188+978928096+978472870+981779904+986617043+989378796
3849+990060134+989570237+988366581+986819516+985266147+983755254+982425296
3839+982099673+983486591+985690980+987151592+987364422+986764882+985950938
3829+985349373+985249112+985407083+984923939+983668727+983245244+984693474
3819+986054276+986371719+987523819+990017433+991514668+990698022+988402602
3809+986213297+985766851+987045253+987508884+985816907+983937690+984315920
3799+986359261+988597421+990956779+992988413+993636282+992906914+991763895
3789+990911527+990383356+989977134+989548324+988899629+988025498+987588283
3779+988397875+989973007+990837307+990502003+989668772+989233732+989672599
3769+990548081+990848488+990492322+990249625+990186061+989738564+989064955
3759+988884620+988991560+988252061+986191759+983282767+980831253+980957554
3750+983585051+985207386+984485673+983401114+983804034+984389539+983289446
3740+980764087+977881961+975974602+976467502+979313080+982600753+984901876
3730+985973001+986057803+985796869+985933527+986512504+987036848+987412076
3720+987879985+988458511+988786761+988236076+986507251+984591037+984609723
3710+987032270+989648284+990794981+990393712+989195534+988392696+988711265
3700+989468325+989700891+989456843+989237485+989255646+989425099+989800101
3690+990926311+993014079+994703731+994702080+993225182+991089085+988955463
3680+987097334+985438677+984321998+985135568+987799761+989238010+988465040
3670+987825877+989564458+992519979+994385837+994623057+993765435+992429924
3660+990890589+989422997+988965594+990168876+991420711+990460052+987352565
3650+984437569+984357720+986422374+987972216+988727700+989412266+990142009
3640+990713857+991075276+991182366+990830703+989812934+987871655+984817750
3631+981569926+981017291+984685294+988811151+990394763+989994094+989121314
3621+989200487+990897193+992883425+993165521+991808021+990363619+989872896
3611+990146887+990972013+992706242+994854647+995868813+995163310+993635457
3601+992283360+991145369+989899612+988835841+988516822+988870362+989064655
3591+988459262+987502431+987652297+989708846+992243061+993635081+993797855
3581+993404541+993174752+993425704+993814365+993917103+993833427+993622549
3571+992763127+991036327+989580443+989976083+991604723+992470674+992410712
3561+992549697+993445216+994644144+995376289+995242258+994477768+993796579
3551+993579247+993372497+992755172+992093195+991947231+992320358+993057831
3541+994218336+995525180+996263328+996092524+995475499+994979523+994605721
3531+994098113+993444315+992825114+992371314+992258520+992842825+994259611
3521+995862735+996579420+996033989+994993181+994462309+994511764+994408576
3512+993820144+993354186+993689639+994563695+995115055+994958435+994472515
3502+994142314+993988171+993880706+993949823+994349365+994926541+995387696
3492+995593171+995557975+995396026+995331787+995521577+995808477+995885774
3482+995726002+995590619+995565779+995485706+995404356+995654408+996265129
3472+996794201+996897013+996554805+995757146+994554615+993407543+992895882
3462+993040870+993342328+993499399+993702172+994159500+994710710+995073555
3452+995219069+995304320+995401354+995428371+995215917+994665382+994026294
3442+993854064+994375031+995022599+995056070+994540206+994205353+994398295
3432+994742154+994873033+994937272+995164360+995388897+995217268+994484597
3422+993487992+992804026+992782413+993286720+994004456+994710034+995168563
3412+995214191+995007365+994833184+994693749+994446774+994245202+994435968
3403+994991831+995351899+994985452+993953800+992789092+991938976+991467239
3393+991185668+990928712+990738772+990792204+991061843+991169458+990794080
3383+990206248+990058859+990496750+990850740+990554610+990007077+989992518
3373+990603840+991277149+991604573+991696729+991939051+992526208+993159667
3363+993482889+993863295+995077683+997013634+998415110+998313123+997172205
3353+996209445+996030086+996370718+996794501+997081475+997117272+996911647
3343+996705722+996747072+996989694+997142112+996931084+996371844+995910389
3333+996107458+996995623+997952154+998386068+998348995+998308621+998555746
3323+999009922+999347252+999185078+998436198+997537302+997015660+996931909
3313+997056260+997245975+997269464+996734164+995657935+994706732+994480770
3303+994831383+995070703+994744180+994051284+993435460+992942035+992300921
3293+991526675+990999630+990937868+991143418+991345140+991518420+991716991
3284+991864681+992028956+992662565+994043930+995585291+996316986+996089297
3274+995725851+995913315+996496945+996974835+997131080+997010032+996786021
3264+996859790+997567245+998576758+999101627+998873564+998373385+998013541
3254+997636662+996947819+996089297+995651031+996143780+997382858+998415185
3244+998347269+997383834+996683208+996966055+997729869+998165509+998273874
3234+998503364+998930749+999403761+999885479+1000251251+1000346934+1000359016
3224+1000526443+1000624152+1000395113+1000267085+1000931089+1002288964
3216+1003448343+1003842257+1003828599+1003938241+1004012836+1003568266
3207+1002690157+1001999213+1001790286+1001690925+1001324703+1000987898
3199+1001305942+1002337518+1003363467+1003568191+1002735485+1001370856
3190+1000229638+999614489+999274908+999097950+999384324+1000196092+1001069398
3180+1001684321+1002243936+1002941635+1003563013+1003907022+1004185741
3172+1004698453+1005371386+1005934904+1006342927+1006704721+1007038374
3163+1007365573+1007780650+1008265520+1008686075+1008916690+1008795867
3155+1008301091+1007874757+1008046837+1008712866+1009302650+1009476455
3146+1009246741+1008818606+1008585139+1008790464+1009177699+1009475930
3138+1009927554+1010750654+1011536157+1011779605+1011632815+1011680094
3129+1012264024+1013257778+1014215059+1014675989+1014542858+1014178437
3121+1014037126+1014243426+1014574452+1014829908+1015077708+1015383069
3112+1015466444+1014995458+1014159000+1013593682+1013670979+1014041704
3104+1013975138+1013200443+1012303423+1012001589+1012192956+1012258545
3095+1012119711+1012273179+1012829943+1013265207+1013281192+1013368545
3087+1014177987+1015566630+1016663196+1016852837+1016319713+1015601977
3078+1014996584+1014466162+1013837205+1012957145+1011646249+1009555854
3070+1006470579+1002945012+1000169451+998931499+999017201+999640530+1000053205
3060+999875272+999252994+998609628+998146447+997929190+998351246+999864316
3050+1002139698+1004031898+1004630836+1003999403+1002568058+1000237142
3041+996645310+992032483+987125477+982330814+977766241+973941167+971657154
3031+971247705+972307875+974092609+975986684+977805414+979793447+982254192
3021+985207686+988268271+990525417+990784324+988498436+984371604+979753298
3012+975816856+973486240+973484214+976018804+980621951+986342901+992018299
3002+996632477+999694563+1001305641+1001946981+1002190879+1002344272+1002315455
2992+1001970695+1001473894+1001136714+1001196975+1001791186+1002807304
2983+1003829350+1004540482+1004975071+1005143848+1004821903+1003900268
2975+1002397705+999910919+995636547+989157411+980715457+970593008+958815428
2965+945802372+933027586+922658461+916438307+914776798+916596278+919917571
2955+922878045+924501656+924538654+922673846+918210284+910583400+899883850
2945+886800852+872255515+857025388+841464609+825687774+810289995+796678225
2935+786119311+778349090+771567370+764071441+755682620+747586926+741283997
2925+737913475+738276620+743036387+752473220+765884993+781500630+797305381
2915+811970641+825045009+836557528+846606433+855224744+862522928+868806570
2905+874374953+879228226+883028385+885170336+884927939+881965890+876930180
2895+871329678+866680528+863793374+862799095+863619044+866252018+870717381
2885+876882376+884318119+892312275+900157166+907421054+913818391+919052521
2876+923034365+926001142+928244480+929979984+931412980+932475776+932525831
2866+930673030+926355808+919445985+909975306+897927487+883363614+866967203
2856+850568015+836857035+828236023+825711489+828694701+835714616+845285931
2846+856235308+867581001+878464938+888297937+896955571+904732771+911918912
2836+918440449+924097461+929003116+933516883+937847089+941914560+945527330
2826+948599171+951205729+953432632+955258041+956657191+957718861+958615806
2816+959547722+960646765+961884417+963182556+964576453+966116388+967731519
2806+969297195+970693344+971773025+972437253+972741938+972871992+973052327
2796+973430106+973978014+974570424+975134917+975671643+976230808+976903817
2786+977711833+978517447+979133571+979457243+979490488+979337470+979175747
2776+979129819+979134397+978935826+978341615+977563918+977151017+977481518
2766+978529079+980083724+981836714+983302879+984096186+984346914+984569349
2757+985095568+985763099+986171872+986198964+986183729+986521510+987174481
2747+987778748+988209885+988727250+989432078+989954470+990016908+989980511
2737+990386132+991189120+991863030+992087566+991981377+991773725+991574329
2727+991467389+991582434+991934623+992339869+992643054+992912092+993275013
2717+993711027+994113572+994445949+994760315+995137569+995631819+996228582
2707+996828196+997245074+997301509+996991871+996469328+995858157+995255766
2697+994902226+995058846+995641951+996236387+996581972+996809135+997034722
2687+997019112+996549852+995934253+995705064+995964121+996378148+996682983
2677+996851460+996881629+996744971+996561184+996584373+996938888+997475615
2667+997932717+998158229+998207159+998297814+998591843+998998215+999336595
2657+999617866+999959849+1000408246+1001035552+1001908408+1002823213+1003451720
2647+1003783347+1004036776+1004251631+1004325026+1004250806+1004068520
2639+1003754304+1003250298+1002478079+1001469241+1000620625+1000521790
2630+1001319750+1002535263+1003671529+1004660329+1005475625+1005769053
2622+1005350674+1004702955+1004461083+1004608923+1004711435+1004696201
2614+1004820101+1005060322+1005159908+1005169514+1005370111+1005708116
2605+1005850778+1005771605+1005767777+1005859258+1005639074+1004899875
2597+1004104467+1003948597+1004569824+1005498364+1006336848+1007086328
2588+1007777573+1008215014+1008254113+1008077681+1008096142+1008599172
2580+1009520582+1010638987+1011904180+1013218529+1014123579+1014297384
2571+1014108494+1014047557+1013996601+1013731015+1013619873+1014015288
2563+1014317496+1013495522+1011477246+1009320586+1008025524+1007807591
2554+1008414335+1009441484+1010396139+1011038829+1011566100+1012151981
2546+1012726680+1013376800+1014346689+1015514323+1016428529+1016858390
2537+1016936287+1016909421+1016960227+1017118123+1017351590+1017750157
2529+1018370634+1019014900+1019525886+1020010755+1020400767+1020313039
2520+1019757551+1019399209+1019713650+1020376903+1020756183+1020629656
2512+1020269437+1020094881+1020324746+1020812392+1021191748+1021229646
2503+1020944848+1020344933+1019309454+1017963286+1016917301+1016747022
2495+1017328701+1017974468+1018102196+1017577102+1016617344+1015644077
2486+1015123561+1015347047+1016198514+1017014485+1016859140+1015345996
2478+1013151438+1011300814+1010032093+1008840744+1007571198+1006821793
2469+1007095859+1008043535+1008847423+1009164716+1009463773+1010384882
2461+1011858477+1013109337+1013661448+1013936865+1014530025+1015401455
2452+1016251796+1017176808+1018379039+1019595528+1020323095+1020441142
2444+1020320318+1020413750+1020880684+1021540935+1022052145+1022162087
2435+1021976274+1021971246+1022506621+1023349759+1023946146+1024016088
2427+1023604313+1022728381+1021338312+1019562658+1017850568+1016798053
2418+1016657568+1017033697+1017326674+1017419656+1017613124+1018066549
2410+1018683499+1019367915+1020069741+1020751380+1021428141+1022035860
2401+1022339945+1022301447+1022306625+1022624818+1022924926+1022750370
2393+1022161562+1021532680+1020964209+1020079722+1018227072+1015012268
2384+1010845512+1006675604+1003012253+999569161+995914666+992007192+988012666
2374+984000203+979919074+975757195+971745858+968114552+964521669+960509582
2364+956826794+955120108+955872440+957904899+960348384+963755304+968718819
2354+974696951+980667878+985825312+989443035+990913628+990106888+987657325
2344+984944727+983377324+983505577+984876210+986511228+987820624+989063304
2334+990633032+992450562+994360547+996232334+997357868+996940915+995514748
2325+994782303+995849677+998382540+1001638694+1005304596+1008966596+1011916413
2315+1013859493+1015156356+1016320088+1017699276+1019580744+1022207415
2306+1025486457+1028744111+1031134838+1032515527+1033612018+1035116607
2298+1036954549+1038531857+1039315033+1039174548+1038581312+1038368558
2289+1038913839+1039742643+1040208000+1040186988+1039817013+1039095750
2281+1038159856+1037507785+1037580279+1038371785+1039486212+1040327923
2272+1040430436+1039845905+1039062505+1038525478+1038407657+1038681048
2264+1039115111+1039227155+1038432122+1036513881+1034059965+1032100675
2255+1031176188+1031104670+1031549540+1032314480+1033417950+1035275554
2247+1038197529+1041480624+1043860169+1045074857+1046111462+1047633086
2238+1048887323+1048731228+1047397218+1046381851+1046595956+1047543857
2230+1048354049+1048700910+1048679747+1048310373+1047268590+1045367910
2221+1043303556+1042013072+1041326255+1040568144+1040163423+1041182768
2213+1043885460+1047775673+1052331241+1056972810+1061010639+1063992200
2204+1065885225+1067024117+1067775924+1068216216+1068479326+1069084043
2196+1070357792+1071994687+1073364419+1073741823+1072766005+1071172562
2187+1070141211+1069782192+1069438634+1068982957+1068488031+1067743729
2179+1067290078+1068394524+1070952979+1072929004+1072810882+1071246107
2170+1069467901+1067555290+1065172367+1062925202+1061811900+1062038688
2162+1062828993+1062420145+1059035889+1053770915+1050274841+1050185237
2153+1052184601+1054953484+1058344569+1062121463+1065470373+1067642267
2145+1068220944+1067528498+1066785997+1066739169+1066720332+1066252423
2136+1066222180+1066896014+1066248296+1061863006+1053110439+1040389236
2128+1023572569+1002004166+975480277+945185647+913759630+883766008+855794265
2118+828377183+799345421+766515376+727723334+681828301+630384698+577783930
2108+529120428+487745429+454829119+430708040+415732204+409640791+410908874
2098+417440430+427811018+441252058+456576818+472049719+486410180+499303013
2088+510739661+520844400+530201685+539832436+550533262+562475867+575515264
2078+589492806+604033152+618516763+632598093+646245209+659092264+670486061
2068+680423673+689680247+698616376+706361981+711654647+714190212+714741197
2058+714494222+714859769+717147384+721223485+725089609+727246944+729102146
2048+733895534+743448012+756744215+771283548+784867550+796277632+805011138
2038+811049306+815350394+820000594+826675525+835006336+843428402+851120050
2028+857729691+862287134+864637112+867038496+871823553+878132636+883217275
2019+886139325+888245780+891125805+895528129+900841957+904954606+906323287
2009+906176723+906892733+908939302+911199150+913217951+915569955+918794964
1999+922587843+925642799+926743943+926345526+926231232+927321344+928840417
1989+929943362+930591981+930512208+928943455+926000767+923499873+924013485
1979+928945556+936932733+944433465+948879766+950388183+949988940+948057867
1969+945155479+942916193+942730681+944119099+945795543+947554836+949867742
1959+952443982+954338508+954889943+953939190+952041362+950737745+951605422
1949+954744504+958667513+961681644+963184057+963793427+964488274+965692981
1939+967246274+968822682+969960073+970230387+969713699+968981479+968690377
1929+969284588+970632932+971983978+972780737+973195364+973440913+973308457
1919+973010977+973503126+975069477+976395833+975986835+973492094+969321810
1909+963845433+957509334+951389141+946635753+943364366+940836005+938778705
1900+937876357+938757317+941101666+943921354+946412192+948556920+950989898
1890+954236221+958185345+962577838+967331226+971807996+974927716+976676654
1880+978261992+980351561+982403233+983855965+984865028+985766701+986638506
1870+987411250+988024223+988566877+989296245+990312363+991355797+992039987
1860+992275030+992377392+992763127+993611592+994732773+995672119+996037891
1850+995732606+994860426+993680034+992853256+993290472+994897123+996375746
1840+997076522+997425784+997856321+998096992+997596213+996361187+995090365
1830+994753035+995814105+997764015+999762329+1001188345+1001797340+1001796515
1820+1001572503+1001475620+1001704734+1002079511+1002214368+1002064953
1812+1001987956+1002276881+1002899910+1003633030+1004138387+1004101390
1803+1003612168+1003223206+1003344780+1003716256+1003782971+1003272661
1795+1002291215+1001389017+1001394345+1002352302+1003345456+1003781996
1786+1003573519+1002652860+1001084482+999300573+997735873+996396609+995020723
1776+993504577+992069180+991232121+991366528+992008243+992536714+992931454
1766+993064209+992622716+991916237+991706935+991925092+991647724+990702525
1756+989721454+988967696+988187222+987374253+987038199+987701301+989124616
1747+990529770+991424763+991872335+992323059+993230060+994468237+995270625
1737+995306647+995410585+996836826+999152058+1000932590+1002179472+1003205345
1727+1003831076+1004062291+1004194521+1004103716+1003310334+1001932647
1718+1001290782+1002977432+1006148258+1008682473+1010216630+1011226143
1710+1011795664+1011813600+1011632815+1011872061+1012353178+1012339670
1701+1011765946+1011262540+1011150272+1011515519+1012626044+1013740921
1693+1013724486+1012648107+1011238376+1009782041+1008032278+1006263303
1684+1005953215+1007662904+1009493791+1010411598+1010643940+1010690243
1676+1011111924+1011841667+1011981927+1011438672+1011695854+1013776117
1667+1015981032+1016594605+1016030037+1015610532+1016045046+1016774189
1659+1016940940+1016144781+1014550663+1013566140+1015694133+1018936102
1650+1019342399+1018051765+1018153002+1021525325+1025728104+1028095942
1642+1028838143+1028790414+1028419914+1028392072+1029945666+1032969853
1633+1035159759+1035675697+1035352776+1035097621+1035172441+1035197732
1625+1035092443+1035372438+1035997793+1036094076+1035393526+1034822729
1616+1035574085+1037095635+1037853595+1037606695+1037003704+1036584799
1608+1036301802+1035623540+1033916253+1030512035+1024391316+1014056863
1599+998253537+977017136+952192279+927494775+907581877+895741934+892428521
1589+895978928+904002202+914422283+926089696+938668238+951736152+964142914
1579+975024750+985566179+998447830+1012557302+1022533713+1027005755+1027616776
1570+1024428164+1014973095+996223554+967234793+931686371+895182319+858076476
1560+819577863+798473091+809411436+834746603+862949112+889459792+911748708
1550+929836722+943696743+953014253+958945031+963010851+965849826+969370665
1540+976732563+984987127+989712073+991950758+994825755+1000253952+1006554930
1530+1011503662+1015456013+1019558680+1023617596+1026800730+1029741392
1521+1033858918+1038787312+1043387157+1048267147+1054026370+1059332319
1513+1062585020+1063340429+1061425190+1056176577+1046532768+1029966303
1504+1002854282+964959710+922096595+886198011+865324380+848159126+816226552
1494+774707278+741210452+725832935+732941104+758887517+789830015+816039988
1485+837061384+854785727+869682802+880725836+887591157+891978473+896377645
1475+902998693+913377048+925866735+935910237+941973020+945830214+949656563
1465+954378357+958656331+960645264+959973306+957174706+953516533+950620824
1455+947528946+942247612+934976520+928340463+926577792+932575511+944216283
1445+956204066+964877085+968376686+965246234+954341585+935365931+913336298
1435+900055855+901442697+914961110+936202690+958516446+974918711+983354736
1425+985508019+983294174+977787779+968735929+954693098+935012617+910213126
1415+879195357+840976813+799369961+763706044+743120138+740333320+752401776
1405+774062786+798246603+819384095+837569443+855432845+872800947+887147037
1395+897681863+905462665+911468713+916614815+922201509+929474027+938308469
1385+946735414+953120668+957532748+960777945+963497072+965956766+968283254
1375+970997278+974895972+979830370+984674488+988859855+992498891+995512647
1366+997811819+999941237+1002674173+1005938731+1008836316+1010762737+1011762494
1356+1012205263+1012531036+1013126823+1014266766+1015973602+1017910229
1347+1019509300+1020203622+1019661568+1018113302+1016575168+1016589051
1339+1019124842+1023502476+1028222244+1032438455+1035957268+1038561125
1330+1039866168+1039452591+1036594030+1029879326+1017358419+997602291+972177295
1320+948284430+936668048+942487758+959178273+975027152+983610641+986176525
1310+986707923+987343559+987956306+987610271+985662313+982216444+977850367
1300+972659988+965398652+953622573+934703054+906543171+867514810+816958621
1290+757374072+696511197+645761240+614083858+602562783+605056661+613154906
1281+620023191+621505754+616335563+606650104+597784255+596138355+605901111
1271+626884347+655179987+685967816+715862078+743299196+767722784+788758214
1261+805912586+818836862+827618172+832531782+833700167+831415029+826689408
1251+821024291+815405027+809603178+802615608+793990017+784868976+777687713
1241+774720035+776793620+783087769+791863225+801496978+811139661+820635930
1231+830053252+839377741+848447376+857006326+864860073+871912182+877976841
1221+882788615+886367839+889148428+891569099+893660995+895007688+894904800
1211+892698385+888416133+883277912+879422745+878752362+881616627+886448888
1201+890845509+893209971+893408166+891941775+888791962+883118965+873855938
1191+860838379+845919541+832660335+824068366+820748274+821730770+826306450
1181+834174831+844648794+856749670+869615036+882288961+893706622+903290620
1171+911138963+917442643+921965640+924097986+923392933+920386681+917058559
1162+916033662+918689825+923898965+928952085+931964490+933305630+934746430
1152+937570921+941656328+946078990+950167774+953785197+956903266+959399132
1142+961286454+962719074+963465628+962325385+957372526+947801887+936238562
1132+928231422+928030300+934983049+944772146+953569741+960211951+965289010
1122+969583494+973407968+976668774+979252594+981329856+983211174+985008290
1112+986557231+987587832+987942648+987753533+987103188+984980448+979097624
1102+968367606+955970674+948236401+949194958+956999549+966242089+972499616
1092+973884883+969793322+960036419+944912481+924659552+898864506+868207856
1082+837651393+816147153+810955874+822068776+842915090+865846697+886156511
1072+902308423+914629409+924199448+931938149+938134213+942847452+946549000
1062+949975657+953491543+957028442+960525491+963944043+967042451+969667020
1052+972078085+974594589+977134657+979310754+980809790+981677617+982237232
1043+982494038+981692926+978549041+971607999+959912594+944883664+931525473
1033+925749214+929561080+939728632+951247080+961019517+968316575+973529992
1023+977328124+979525234+977983197+970817544+961072574+956311832+961048409
1013+971821279+981885568+988330934+992540691+996188433+999404361+1001824432
1003+1003616520+1005349848+1007373978+1009561332+1011623585+1013404342
994+1014865704+1016097052+1017298908+1018541362+1019665620+1020503354
986+1021035052+1021354446+1021554068+1021590465+1021293059+1020530821
977+1019199512+1016949045+1012905664+1005697985+994339009+979795548+965262069
967+953888835+946581345+943118516+944671210+953134326+967871479+984962362
958+999974483+1010257305+1014704431+1011825908+997413402+966196687+920791027
948+878121379+859387448+871065743+900137654+928059192+944450200+947980870
938+941108345+927479991+912029229+900663049+898343239+906548049+922553698
928+941500834+959238535+973773665+984957785+993302329+999176523+1002890154
918+1004937623+1005827814+1005874117+1005197055+1003697194+1000972214+996509027
908+990165724+982438579+974144615+965772904+956836926+945443129+928636893
898+903825470+870317013+830094151+788151845+752152325+730068208+726432099
888+740291369+766433801+798228517+829913292+857734494+880299727+897996604
878+911280574+919169517+919617689+911355470+895560399+876313080+858951658
868+846424748+836275507+821296256+794477438+755926218+716226949+691070616
858+690267554+711634910+745020067+780582597+813030285+840441363+861863652
849+876431577+883449616+883178176+878652402+876092972+881147893+894160123
839+910317589+923958026+931359998+930765111+922987161+912678073+906562908
829+908737204+918038279+930101558+941068721+949209442+954253856+956199188
819+954767919+949768156+941659030+931322625+918845095+901949405+876134697
809+839208514+797586202+765160503+751706554+752967245+755384088+750472204
799+742187096+740589976+751072719+770985091+794590307+818227717+840790775
789+861884590+880908797+897147088+909947389+918951209+924323198+926506949
779+925625914+921383812+913761731+903655567+892784312+883277461+877187061
769+875673317+878390868+883964204+891164003+899473801+908622459+918022745
759+927039248+935657183+944328251+953112788+961521196+969286314+976762056
749+984353743+991809297+998300516+1003342304+1007454802+1011505988+1015665765
739+1019642356+1023611368+1028133015+1033311386+1038620336+1043530944
731+1047749407+1050285273+1047982799+1034152497+997328525+923585650+808272919
721+672032450+559366841+508653131+523241281+576853514+639091413+691206374
711+727389756+751019437+770112011+791450024+816187678+840769162+861298634
701+876407338+887030041+895001384+901916910+908488878+914625431+919964550
691+923958101+925451508+923076015+917244747+911558993+910515409+915255739
681+922623715+928561247+931203978+930595058+926726833+918593617+905063047
671+885054316+855448905+813547274+769137019+736943810+717129823+707260577
662+710309680+727942992+755548138+785441424+810827697+826566333+827985896
652+810462150+773015225+723938034+680573839+659604900+666548494+694644513
642+732149523+769545867+801726617+827171501+846013723+857891114+862276478
632+860797855+856759576+851604169+843885055+832532908+819687429+809650531
622+806129317+810870998+823666346+842419189+863346553+882539388+898127483
612+910394436+920096330+927713457+934064566+940364043+947284297+954388188
602+960561738+964936146+967541654+968980278+969256296+966944141+959366412
592+943974411+921171958+896250218+877263683+870528041+877102335+892246610
582+908876564+922276930+932191803+941117576+950878381+961173885+970950675
572+979777462+987297706+992521255+994803766+995231676+995890351+997589158
562+999285414+1000032568+1000250350+1000485693+1000637360+1001272471+1003758507
552+1007862600+1010813618+1010127776+1006517032+1002687681+999992719+997773020
543+995388972+993153589+991155950+988287558+982614786+972347198+956798127
533+936736639+913498622+887148613+854968538+813245891+764459802+721980545
523+701474862+708905727+737541849+772283830+799868113+817646039+829334090
513+834352764+827435886+809086489+790951721+786170642+795372882+804991626
503+797708827+766653610+724884509+695679917+693700064+717578596+755025896
493+793870695+828335833+857376826+881540006+901186792+915692579+924234119
483+927105963+925268922+919271804+910148811+901180638+897306559+902332588
473+916534441+935486380+952891028+965903409+975256116+981791761+984824879
463+983468505+979161113+976127245+978208334+983883282+984886191+974209830
453+953926958+934685118+928177314+936973033+954273293+971368379+981470416
443+978423190+957383558+921435894+883777040+860827873+862987835+886363862
433+915538811+937287024+948062070+952444732+957748129+967618651+979334018
424+987384909+989588323+988328157+988773628+995450209+1005743613+1013775667
414+1016576744+1013994125+1007729169+999459970+990095631+981898776+978900029
404+983004348+990966385+996532817+994795736+986929908+981019542+980491296
394+979045017+970040747+952758198+931603446+912816232+902158632+903043945
384+913056003+925109826+935911588+946929031+958704510+969248641+976948244
374+983308658
##END=
