##TITLE=RB- 722Fr.5
##JCAMP-DX=4.24
##DATA TYPE=INFRARED SPECTRUM
##DATE=14/11/2019
##SAMPLING PROCEDURE=Diamant-ATR
##ORIGIN=Qais
##XUNITS=1/CM
##YUNITS=TRANSMITTANCE
##RESOLUTION=4
##FIRSTX=3997.453
##LASTX=373.96442
##DELTAX=-1.4165319
##MAXY=1.0023578
##MINY=0.53227639
##XFACTOR=1
##YFACTOR=9.3351849e-010
##NPOINTS=2559
##FIRSTY=1.0023578
##XYDATA=(X++(Y..Y))
3997+1073741823+1073272913+1072956858+1072758925+1072593554+1072441848
3989+1072327302+1072299719+1072388215+1072546434+1072628544+1072433292
3980+1071895552+1071206106+1070572783+1070013079+1069567027+1069378288
3972+1069358430+1069200722+1068914804+1068914102+1069447053+1070295868
3963+1071019857+1071216066+1070711656+1069789031+1069052145+1068885561
3955+1069145939+1069441882+1069544360+1069487279+1069437029+1069493153
3946+1069532165+1069321525+1068825415+1068294954+1068022700+1068047665
3938+1068127413+1067980815+1067679317+1067782562+1068769994+1070254877
3929+1071216066+1071171691+1070351481+1069388887+1068673773+1068169873
3921+1067725736+1067441478+1067598101+1068258049+1069018113+1069298859
3912+1068838377+1067905344+1067147451+1067113994+1067788755+1068601048
3904+1069018049+1069166499+1069431155+1069675187+1069564089+1069146578
3895+1068616117+1068123071+1067972131+1068295784+1068479479+1067853435
3887+1066683904+1065893129+1065976963+1066568273+1067243992+1067813976
3878+1068020529+1067738697+1067095861+1066237022+1065411193+1065239055
3870+1066208928+1067640689+1068292144+1067935034+1067138257+1066249537
3861+1065148644+1063754428+1062284486+1061118658+1060720302+1061504628
3853+1062957778+1063608468+1063375226+1063236992+1063706796+1064674243
3844+1065702730+1066303553+1066235490+1065858267+1066031555+1067126956
3836+1068284419+1068580297+1068155060+1067608955+1067133852+1066596431
3827+1066025553+1065529059+1065085370+1064864578+1065313184+1066243216
3819+1066652491+1066328710+1066004035+1066128223+1066473201+1066733324
3810+1066781658+1066671709+1066713658+1067012410+1067146047+1067043568
3802+1067275342+1067864609+1067962490+1067417407+1066873410+1066577020
3793+1066265691+1065924543+1065779988+1065798696+1065819383+1065942357
3785+1066299148+1066799217+1067457057+1068443021+1069516841+1070062115
3776+1069899810+1069280279+1068354398+1067381651+1066933300+1067227008
3768+1067677721+1067779306+1067669676+1067538976+1067329359+1067060042
3759+1066843975+1066595728+1066198521+1065884254+1066075738+1067014964
3751+1068475456+1069663120+1070002097+1069823765+1069906706+1070618180
3742+1071216066+1070981611+1070099914+1069072768+1068324452+1068007312
3734+1067892766+1067707858+1067387334+1066970014+1066660663+1066829800
3725+1067562728+1068356122+1068721213+1068735387+1068718403+1068811496
3717+1068919018+1068845272+1068631440+1068750009+1069450757+1069921646
3708+1069295666+1067886828+1066531113+1065802144+1065911837+1066659450
3700+1067426537+1067706390+1067507754+1067183399+1067095414+1067345959
3691+1067743039+1067982092+1067925010+1067820042+1067979027+1068311299
3683+1068457706+1068277268+1068063180+1068249940+1069043014+1070020421
3674+1070039576+1068851849+1067721330+1067655821+1068112536+1068034384
3666+1067714435+1067888552+1068394367+1068513127+1067991924+1067221708
3657+1066684862+1066612265+1066880880+1067192529+1067302223+1067025818
3649+1066561824+1066663728+1067552002+1068603347+1069227284+1069201680
3640+1068594089+1067728609+1067033608+1066761992+1066871047+1067105949
3632+1067219154+1067239267+1067440265+1067795587+1067910261+1067752170
3623+1067574349+1067529718+1067676763+1067939823+1067958276+1067553279
3615+1067176950+1067311353+1067747189+1067934843+1067870100+1067987391
3606+1068309895+1068416906+1068232764+1068207863+1068620458+1069031330
3598+1068841441+1068132521+1067478255+1067168330+1066957372+1066496953
3589+1065737847+1065033332+1064858065+1065187656+1065617619+1066013804
3581+1066460878+1066780700+1066509723+1065463103+1064065438+1062985808
3572+1062619312+1062944880+1063676276+1064434169+1064945603+1065201448
3564+1065296328+1065221560+1064908123+1064300341+1063446035+1062623271
3555+1062222615+1062407140+1062967292+1063501967+1063699134+1063517355
3547+1063217581+1063196128+1063593910+1064089446+1064195691+1063711138
3538+1062857726+1061995248+1061238759+1060516430+1059956279+1059899262
3530+1060428510+1061111443+1061459742+1061538916+1061780458+1062290168
3521+1062716491+1062808051+1062726324+1062727154+1062808690+1062783788
3513+1062541480+1062146571+1061773371+1061558581+1061454443+1061318507
3504+1061191958+1061286646+1061568925+1061635584+1061222478+1060606650
3496+1060336822+1060606458+1060997728+1060935857+1060340972+1059657847
3488+1059258852+1059035570+1058685867+1058223597+1058031218+1058426063
3479+1059247742+1059949383+1060037687+1059432075+1058532309+1057903775
3471+1057777161+1057935955+1058149212+1058453263+1058858835+1059155415
3462+1059243975+1059339621+1059625922+1059944595+1059974412+1059588889
3454+1058967890+1058421849+1058172070+1058286169+1058672586+1059038762
3445+1059043551+1058622783+1058035113+1057570800+1057323000+1057234824
3437+1057256022+1057409708+1057665042+1057799572+1057582740+1057136560
3428+1056880459+1057071816+1057585613+1058124821+1058447900+1058457669
3420+1058244986+1058024514+1057924270+1057909776+1057936338+1058034283
3411+1058150361+1058060525+1057666446+1057290118+1057331492+1057640268
3403+1057648951+1057224097+1056938115+1057290820+1058031090+1058516538
3394+1058528031+1058366236+1058259288+1058099345+1057826070+1057633117
3386+1057605534+1057550815+1057368014+1057187256+1056995452+1056520349
3377+1055621987+1054521094+1053549050+1052803863+1052093794+1051240190
3369+1050378542+1049783337+1049448319+1049134882+1048733525+1048240671
3360+1047479330+1046180760+1044326827+1042239844+1040309739+1038650611
3352+1037056800+1035413571+1034058686+1033511176+1033889165+1034864210
3343+1036121087+1037527243+1038910861+1040085244+1041098471+1042115976
3335+1043066247+1043698804+1043924703+1043827716+1043458091+1042882041
3326+1042311547+1041940262+1041684226+1041249156+1040492667+1039621952
3318+1038940104+1038436970+1037772936+1036647079+1035053396+1033169965
3309+1031104308+1028772972+1025982241+1022499317+1017971944+1011960262
3301+1004178099+994446421+982248877+966721009+947404570+924950314+901205596
3291+879009930+861722435+852155744+851395935+858519427+871217679+886633235
3281+902169212+916148156+927798638+936714384+942684819+946018207+947434005
3271+947458395+946298570+944245874+941675933+938632805+934800752+929786718
3261+923147333+914420454+903495940+890848385+877336500+863967765+851780756
3251+841695224+834458463+830672127+830631391+834135449+840629321+849498649
3241+860095104+871632509+883325706+894643788+905321204+915208739+924197401
3231+932217978+939267468+945462653+951007020+956041613+960569178+964556385
3221+968081960+971330684+974431405+977357051+980047731+982505296+984696609
3211+986565036+988240893+989979513+991787091+993387542+994665425+995864453
3201+997236770+998718716+1000066067+1001175706+1002197361+1003379470+1004822276
3191+1006380331+1007830863+1009123495+1010389566+1011727531+1013059239
3183+1014249010+1015308272+1016361405+1017380315+1018139038+1018554123
3174+1018884161+1019436522+1020261138+1021217475+1022170811+1023081624
3166+1024016060+1025011090+1025901790+1026513979+1027031989+1027850092
3157+1029056017+1030379042+1031593267+1032654955+1033510283+1034124450
3149+1034710716+1035607418+1036821260+1037928729+1038572459+1038897708
3140+1039395223+1040428945+1041933366+1043404330+1044204172+1044102779
3132+1043533625+1043213867+1043581895+1044624812+1046011750+1047311853
3123+1048227837+1048674081+1048668781+1048326101+1047934513+1047764035
3115+1047760331+1047653830+1047335605+1046881635+1046337638+1045792236
3106+1045531602+1045792044+1046417066+1047006205+1047360698+1047578871
3098+1047764354+1047843719+1047672666+1047137416+1046113590+1044489260
3089+1042353496+1040126427+1038415261+1037683738+1037935433+1038643268
3081+1039091874+1038870380+1037918577+1036163291+1033530523+1030436251
3072+1027767407+1025997820+1024538413+1022241620+1018448771+1013455552
3064+1008240648+1004038971+1002041122+1002968791+1006525333+1011311488
3055+1015618070+1018494743+1020139952+1021445035+1023272214+1025930267
3047+1028951432+1031304986+1031982174+1030409051+1026383981+1020081657
3038+1012449285+1005174789+999659857+996101271+993911043+992858357+993442963
3029+996223096+1001067290+1007093146+1013129537+1018141975+1021427987
3020+1022768123+1022501998+1021261531+1019442716+1016936242+1013438185
3012+1009040554+1004437392+1000530891+997934197+996781906+996723101+997044072
3002+997009146+996137921+994149904+990909161+986598876+981782137+977095779
2992+972810523+968494492+962759917+953293405+937686556+915077592+887349052
2982+858559269+833288677+815678807+808965356+814067119+828255553+846337654
2972+863740142+878407766+890420657+900695184+909965741+918371649+925684199
2962+931764391+936692101+940615394+943712731+946272200+948667002+951145510
2952+953628679+955826377+957635232+959282292+960950296+962416343+963259092
2942+963347140+962942143+962330465+961541797+960458080+958955447+956804742
2932+953641129+949252054+943801418+937667018+931167143+924509178+917895077
2922+911613951+906151311+902350544+901376010+904180278+910743491+919917700
2912+930134634+940150506+949164453+956685280+962603933+967201221+970847663
2902+973763221+976090086+977987820+979542171+980684948+981214771+980868643
2893+979510118+977350219+974744523+971566991+967049834+960640945+952961452
2883+945590352+939978304+936948137+937102014+940920658+948041341+956877275
2873+965432463+972411145+977475109+980819479+982775316+983586395+983293262
2863+981894640+979726504+977498286+975764646+974494935+973363076+972331333
2853+971776992+972206954+973998889+977217540+981508734+986276309+990998997
2843+995328693+999073655+1002288028+1005243938+1008162369+1011068605+1013894326
2833+1016514771+1018703147+1020298298+1021407555+1022273864+1023026458
2825+1023689598+1024286399+1024826246+1025364752+1026070672+1027009195
2816+1027937438+1028552373+1028835417+1028979972+1029169861+1029550148
2808+1030185003+1030929488+1031516328+1031835511+1032018185+1032266176
2799+1032661276+1033106435+1033460991+1033747483+1034137284+1034690923
2791+1035252990+1035662137+1035905276+1036041658+1036160163+1036403429
2782+1036834924+1037328288+1037739351+1038066643+1038317763+1038395915
2774+1038236164+1037936582+1037736542+1037892079+1038460722+1039179476
2765+1039686185+1039840190+1039752716+1039637787+1039675777+1039854492
2757+1039944839+1039791089+1039542843+1039465713+1039630700+1039897782
2748+1040110017+1040221626+1040269450+1040269769+1040201450+1040098205
2740+1040054596+1040088373+1040091565+1039985575+1039816438+1039645193
2731+1039489273+1039448601+1039681715+1040125214+1040446696+1040429009
2723+1040228586+1040124894+1040175655+1040203110+1040015584+1039607522
2714+1039201248+1039070101+1039285210+1039653877+1039911510+1039944328
2706+1039804689+1039532882+1039072719+1038451975+1037917491+1037722750
2697+1037844447+1038047744+1038153926+1038163248+1038230226+1038577694
2689+1039295171+1040196597+1041003910+1041626697+1042113677+1042438671
2680+1042533615+1042441863+1042254593+1041981253+1041632188+1041327882
2672+1041188435+1041196480+1041284911+1041467585+1041766145+1042065726
2663+1042180974+1042050019+1041804518+1041665901+1041789577+1042166481
2655+1042661059+1043133417+1043528326+1043901717+1044372671+1044947954
2646+1045414375+1045571955+1045513022+1045486780+1045595324+1045797727
2638+1046046357+1046283621+1046489408+1046758214+1047148143+1047544265
2629+1047837398+1048061828+1048277384+1048537698+1048953805+1049521491
2621+1049995445+1050221728+1050416149+1050824786+1051330601+1051678581
2612+1051875109+1052092517+1052347978+1052500962+1052494130+1052486212
2604+1052748953+1053363887+1053986802+1054102370+1053651720+1053213138
2595+1053361205+1053996124+1054519434+1054570769+1054362237+1054274189
2587+1054311285+1054105179+1053437697+1052596289+1052087409+1052103754
2578+1052459651+1052931498+1053365866+1053528938+1053232038+1052668503
2570+1052306476+1052338465+1052471080+1052393758+1052241924+1052386288
2561+1052898616+1053460236+1053718890+1053581167+1053254002+1053080140
2553+1053209563+1053454425+1053582954+1053627713+1053772204+1054073191
2544+1054362045+1054349850+1053913503+1053317851+1052976768+1053009906
2536+1053201071+1053270731+1053057537+1052639259+1052331122+1052332080
2527+1052424342+1052267017+1051872811+1051547689+1051469729+1051517297
2519+1051453703+1051187131+1050880973+1050846431+1051260622+1051987548
2510+1052723158+1053290077+1053685688+1053899648+1053884835+1053708929
2502+1053524213+1053353224+1053120110+1052933797+1053028805+1053325833
2493+1053412540+1053106701+1052651455+1052228516+1051789423+1051470942
2485+1051573548+1052031604+1052477146+1052791093+1053021590+1052978300
2476+1052544571+1052136637+1052224940+1052623489+1052779345+1052557788
2468+1052286938+1052193718+1052212362+1052256546+1052301177+1052215938
2459+1051858764+1051394387+1051194219+1051317129+1051438251+1051401219
2451+1051414755+1051488756+1051164593+1050159411+1048942504+1048324122
2442+1048649435+1049568675+1050437986+1050837045+1050808696+1050669823
2434+1050647667+1050792606+1051128773+1051644804+1052196910+1052639323
2425+1052960869+1053127836+1053001924+1052618061+1052299836+1052293387
2417+1052510858+1052755785+1052986281+1053256109+1053510677+1053516679
2408+1053039596+1052122973+1051094230+1050236732+1049539688+1048791691
2400+1047876026+1046965214+1046386930+1046299392+1046604273+1047134224
2391+1047771122+1048491471+1049348778+1050234242+1050788264+1050872354
2383+1050873503+1051186812+1051733300+1052262995+1052706493+1053009650
2374+1053130964+1053333112+1053922825+1054678866+1055078883+1055077989
2366+1055112532+1055347434+1055514720+1055603598+1055978650+1056524818
2357+1056499278+1055555328+1054107861+1052610144+1051249448+1050214960
2349+1049698609+1049713231+1050013770+1050185525+1050007130+1049669238
2340+1049468687+1049506614+1049688840+1049827585+1049807281+1049727214
2332+1049751093+1049839844+1049775037+1049420417+1048869269+1048405594
2323+1048304265+1048592545+1049087889+1049593832+1049833204+1049412436
2315+1048202042+1046637219+1045419419+1044929630+1045026042+1045319494
2306+1045497762+1045434423+1045225316+1045174620+1045539328+1046219261
2298+1046847093+1047169979+1047258602+1047386748+1047672027+1047822776
2289+1047528430+1047086783+1047127264+1047735366+1048456418+1049052453
2281+1049543072+1049695608+1049231806+1048480745+1048156070+1048441477
2272+1048872908+1049245916+1049983314+1051267007+1052469995+1052910173
2264+1052580773+1051796638+1050814251+1050118100+1050348341+1051586574
2255+1053211861+1054719092+1056266802+1058138102+1060019554+1061172739
2247+1061307908+1061088458+1061516313+1062655962+1063339981+1062638403
2238+1061194703+1060366320+1060509088+1060916703+1061046955+1061100397
2230+1061520782+1062280272+1062721535+1062209590+1060934197+1059893707
2221+1060020639+1061265704+1062515429+1062733092+1062120073+1061648737
2213+1061751853+1062132652+1062506107+1062878669+1063216624+1063129788
2204+1062102259+1060297682+1058783556+1058488380+1059411899+1060997089
2196+1062430382+1062810158+1062127352+1061577736+1061906497+1062325222
2187+1061963642+1061379228+1061604361+1062374960+1062396541+1061308738
2179+1060374557+1060894738+1062783788+1065018200+1066660472+1067223752
2170+1067012346+1067237415+1068725555+1070451852+1070411882+1068250004
2162+1066048794+1066006206+1068031894+1070231572+1071216066+1070783997
2153+1069001065+1066356038+1064054839+1063382696+1064568189+1066459665
2145+1067422068+1066695270+1064959267+1063596464+1063351665+1063804166
2136+1064187199+1064303150+1064340438+1064373257+1064498465+1064872112
2128+1065278003+1065198192+1064471904+1063398212+1062250007+1061158373
2119+1060300364+1059771818+1059467128+1059311464+1059382145+1059693092
2111+1060083212+1060342632+1060312112+1059982138+1059572097+1059272962
2102+1058922110+1058331438+1057865912+1058080191+1058683249+1058605863
2094+1057356840+1055612282+1054223811+1053402005+1053092910+1053348627
2085+1053999572+1054683911+1055488988+1056775746+1058169771+1058722069
2077+1058272378+1057663637+1057518315+1057773969+1058397075+1059651845
2068+1061571798+1063639818+1065084284+1065470829+1064915466+1063665869
2060+1061997418+1060687228+1060599499+1061492752+1062346292+1062985106
2051+1064089893+1065605423+1066527346+1066469562+1066205353+1066335670
2043+1066446895+1065883552+1064870197+1064472670+1065213835+1065919499
2034+1064718299+1061631561+1059078988+1058907871+1060092725+1060449708
2026+1059679492+1059347602+1060313836+1061712011+1062500297+1062709787
2017+1062905996+1063439075+1064431040+1065582757+1066075228+1065749404
2009+1065834579+1067190614+1068781104+1069377394+1069295794+1069178950
2000+1068852998+1068168021+1067563431+1067407510+1067626195+1067825533
1992+1067452013+1066358719+1065230244+1065012773+1066095276+1067879613
1983+1068919402+1068265966+1066957946+1067089795+1069147472+1071216066
1975+1071111672+1068421312+1065010666+1063194915+1063149518+1062968186
1966+1061668402+1060456987+1060352018+1060627337+1060321690+1059773478
1958+1059864911+1060594007+1061093949+1060634105+1059192767+1057342027
1949+1055937339+1055656465+1056501577+1057910415+1059348943+1060585771
1941+1061672999+1062830909+1064099853+1065119018+1065504924+1065308332
1932+1064882328+1064487930+1064216889+1064152210+1064444385+1065149985
1924+1066013357+1066596111+1066669985+1066312173+1065729930+1065169268
1915+1064823459+1064781382+1065002876+1065129043+1064644298+1063710180
1907+1063331361+1064038622+1064977464+1064919616+1063815979+1062734497
1898+1062442960+1062669115+1062748160+1062494295+1062202886+1062121733
1890+1062228362+1062343482+1062346228+1062257477+1062056288+1061562987
1881+1060757143+1060077721+1060075231+1060809882+1061800251+1062535542
1873+1062932238+1063318783+1064037600+1065028671+1065866248+1066290911
1864+1066429847+1066532709+1066743284+1067079452+1067494729+1067873803
1856+1068067075+1068045111+1067921371+1067804015+1067790288+1067997352
1847+1068370041+1068616564+1068552778+1068374191+1068337031+1068483821
1839+1068798088+1069230604+1069582925+1069615488+1069265849+1068708634
1830+1068239341+1067994478+1067805675+1067516310+1067226306+1067117187
1822+1067225667+1067443904+1067575243+1067456036+1067177525+1067009664
1813+1067006025+1066862172+1066196414+1064923192+1063369990+1062100088
1805+1061597529+1062029088+1063254167+1064903462+1066446321+1067489238
1796+1068068161+1068442638+1068654746+1068500996+1068021934+1067586608
1788+1067376926+1067255740+1067025754+1066681670+1066366700+1066103321
1779+1065757321+1065300670+1064898099+1064698314+1064684395+1064692695
1771+1064597560+1064474075+1064434169+1064438575+1064416993+1064417632
1762+1064440745+1064264074+1063747021+1063106867+1062619440+1062239152
1754+1061691388+1060829357+1059718185+1058463990+1057103869+1055668086
1745+1054171199+1052599801+1051083759+1049973992+1049542944+1049687116
1737+1050224282+1051176341+1052349638+1053131858+1053423331+1053662064
1728+1054074084+1054631937+1055311359+1056092429+1056847002+1057465576
1720+1058018001+1058688357+1059557028+1060457114+1061188063+1061725356
1711+1062204610+1062808881+1063594102+1064411439+1065048145+1065489090
1703+1065938271+1066539285+1067070449+1067150580+1066894544+1066685565
1694+1066642530+1066664494+1066709125+1066751393+1066717936+1066655428
1686+1066755288+1067031884+1067164946+1067023967+1066701655+1066169278
1677+1065371543+1064381812+1063327722+1062213230+1060986171+1059718951
1669+1058531862+1057333024+1055893538+1054066869+1051800916+1049127284
1660+1046129872+1042973665+1040035569+1038016394+1038291968+1042152561
1652+1047126881+1050301859+1052480274+1054961336+1057821473+1060173814
1643+1061618089+1062296425+1062354465+1062022384+1061740169+1061961152
1635+1062553419+1062886522+1062839976+1062705892+1062660750+1062635530
1626+1062559166+1062636551+1063116252+1063788523+1064202842+1064336160
1618+1064525984+1064829269+1064679032+1063515056+1060957311+1056324905
1609+1048983495+1039714981+1031401016+1027518650+1029705047+1036548176
1601+1044633304+1051063327+1055004562+1057142817+1058374026+1059115063
1592+1059408068+1059216009+1058526945+1057501523+1056739671+1057135985
1584+1059107273+1062012806+1064680500+1066519301+1067803313+1069018049
1575+1070121367+1070733811+1070921784+1071045014+1071216066+1071100243
1567+1070379128+1069064212+1067269787+1065006771+1061781799+1056364237
1558+1049030233+1042773625+1038090715+1033896572+1029957380+1026536262
1550+1023947614+1022510937+1022382728+1023532465+1025793055+1028975311
1541+1033545208+1039840190+1045750542+1049628566+1052315543+1054907447
1533+1057444889+1059286435+1060331459+1060972826+1061480302+1061919139
1524+1062331734+1062746628+1062992704+1062792472+1062183731+1061454953
1516+1060797879+1060215955+1059616919+1058884949+1057930272+1056820505
1507+1055955983+1055785377+1055873170+1055240295+1052509198+1044372224
1499+1024408224+988768672+948955410+925640079+926802331+947215001+976552165
1489+1002893448+1019919671+1029562407+1035395438+1039324158+1042163863
1480+1044221411+1045626227+1046483342+1046790650+1046279407+1044214452
1472+1039717088+1032567801+1022488398+1007964436+987484468+963982442+946083078
1462+939214282+940646872+943489386+940333626+929384531+916974879+908033018
1452+904985484+909557168+918740827+922709836+911679907+884638962+849112296
1442+816620905+797394558+795423653+808759122+829186095+843279074+844631533
1432+837429634+830178187+831515195+844733245+866794572+892957268+918515566
1422+940019806+957633572+973468939+987301731+997309814+1003985402+1009060028
1412+1013517039+1017733977+1021839752+1025721416+1029337593+1032840821
1404+1036194514+1039207633+1041924683+1044474191+1046771048+1048699110
1395+1050281618+1051432760+1051909971+1051643144+1050784816+1049500229
1387+1047889052+1045981485+1043586876+1040231906+1035415614+1028794490
1378+1020051393+1009139904+997444983+988489267+985709326+989328887+997208548
1368+1007187516+1017525508+1026959776+1034967838+1041417718+1046203618
1360+1049437401+1051537920+1052951036+1053940320+1054597522+1054970403
1351+1055132261+1055126260+1054878588+1054211425+1053019483+1051428163
1343+1049646444+1047699419+1045405883+1042547023+1039046094+1035184288
1334+1031628128+1028917144+1026729726+1023753065+1018366022+1009478562
1326+997003783+981645755+963665621+941725672+914363819+883711165+855939590
1316+835544095+820221823+802907511+777950739+744801955+706968919+669271245
1306+636044564+610340306+593821367+587045791+589550286+599727569+615118799
1296+633407326+653518052+675792891+700968092+728903569+758121462+786298736
1286+811216305+831608160+847504375+859983495+870389041+879274458+886081448
1276+890353871+893314314+897621790+905283150+916096821+928247436+939989286
1266+950490925+959599305+967522894+974767573+981848541+988829393+995317838
1256+1000939974+1005666111+1009722403+1013317765+1016457626+1019031908
1248+1021073495+1022808029+1024446789+1026041046+1027507285+1028690415
1239+1029426599+1029557235+1028876089+1027240777+1024895587+1022606520
1231+1021320081+1021629815+1023570966+1026789553+1030647912+1034053194
1222+1034934955+1029078556+1009878642+972366514+919738985+863903022+817516777
1213+786914500+772783212+773619895+786556752+807316444+830735274+850800156
1203+861830851+861921326+855047486+848905104+849924844+858604283+868912714
1193+873195990+867330077+850625528+823865775+790831856+759916525+740348839
1183+736080822+744021140+757577784+771546639+784608450+798419342+815018220
1173+834953552+857025350+879147270+899495069+917194329+932153362+944344777
1163+953328586+958652098+960806570+961481140+962439584+964053507+964907940
1153+962593717+955056672+942312066+927877620+917883584+916994672+924513200
1143+935114253+943393548+947164369+947079768+944580637+940449066+934244432
1133+924226133+907728009+881999744+845119662+796611955+738411646+676582135
1123+621531519+584161775+570183023+577918767+600955139+631668769+662321678
1113+685379568+696584253+699322628+703749758+718786432+745040497+776303743
1103+806240070+832060852+853566242+871319966+885871575+897444672+905812909
1094+910419519+910401194+904311425+889951045+865497279+832416238+797677794
1084+771563304+761682027+768831250+788356540+814308214+841879494+867295024
1074+887191343+898681563+899441372+887195430+859862309+818340243+770509150
1064+730687842+711561674+714900107+730399562+743444516+744132302+731336361
1054+711472732+694266454+687844795+695462865+715233146+742283733+771457633
1044+798928797+822606153+842156983+858758160+874202705+889847736+905952739
1034+920977984+930702383+928344870+907562831+868906201+825151958+796869907
1024+797688457+823513007+858117048+887773778+908481880+922208107+931137773
1014+935980115+937119828+936067653+935676256+938463795+944631014+952332152
1004+959981252+967611901+975754366+983823341+990300484+993962889+994179850
994+990426779+982479501+971439292+960396465+953477036+953166536+958266256
984+965354056+972449901+980181176+989363238+999049009+1007466474+1013618432
975+1017483942+1019672127+1021359604+1023830706+1027493046+1031523415
966+1034738108+1036724911+1037961994+1038997121+1039892865+1040503139
958+1040871167+1040980605+1039960290+1035612270+1025717904+1011270880+997930877
948+991935605+994187065+1000446929+1007247662+1014761274+1023722991+1032856783
938+1040541640+1046827363+1052664225+1058330481+1063310099+1067090753
929+1069599398+1070980590+1071216066+1070148950+1067633027+1063521633
921+1057100293+1046393953+1027846581+997197822+952337196+897249739+843110894
911+802739715+781936031+777447095+784073327+800866500+828651292+864653827
901+902638378+937125638+965811410+989096284+1008641048+1025695876+1040003389
891+1050340679+1055831988+1056273379+1051183747+1037931283+1010084684+960421814
881+891171144+821955783+780938766+783259502+820132434+869894590+915510428
871+950579037+974965889+990302847+998679959+1002205279+1002392485+999899228
861+994747535+986650403+975233099+960413832+942998894+924942780+908992484
851+897888234+893268534+894859407+900737133+908322320+915206504+919778700
841+921490312+919958691+913498659+899070151+874305949+840219791+802606078
832+770617119+752632516+752016688+766039560+788559645+813671763+837499485
822+858165191+875350399+889792634+902557927+914478876+925883474+936429552
812+945409403+952520955+958152285+962918008+967270561+971423457+975158076
802+977562710+977276281+973689283+968378605+964830299+965954496+971864274
792+980142164+987816102+992999209+995393947+995955247+995891973+995290192
782+992823751+987951335+983505626+984394155+992801340+1005783594+1018195034
772+1026919487+1031988048+1034970200+1037193949+1039074379+1040412153
764+1040925375+1040417261+1038638607+1035184926+1029281789+1019339024
755+1003219400+980231234+953552059+930120396+916972452+916619939+925596470
745+937523931+947355406+952887770+953690740+950072775+942882943+933341856
735+922599185+910898135+896531305+875383664+841804407+792441628+733530867
725+684229958+666418451+687465210+734448000+785441174+825171560+850401033
715+864447466+870889429+871800944+868479240+861838003+852039027+838202659
705+818531409+790957767+755233104+716030306+682417400+660394127+646115666
696+631248767+615790049+610195049+622767964+649417066+678143509+700058365
686+713445361+720411209+723486837+724672202+725075922+724770083+723570671
676+721886897+720383306+719138881+717677175+715444232+711943686+707470265
666+703389583+700476005+698826199+698327790+698496863+698820069+699362726
656+700591572+702755302+705676032+709047921+712726097+716664395+720746354
646+724858515+729051444+733540189+738551796+744070049+749630059+754462250
636+758063806+760749186+763410750+766504640+769413685+770373916+766098366
626+752676253+729995969+705154254+687736187+681144625+681275516+683176634
616+685669061+689880124+697419404+710534975+730649468+755894776+781811780
606+804609291+823019834+837728258+849831113+859589289+866476538+870234397
596+870739510+866142413+852546119+828136920+798773004+776998297+772774081
586+785709853+806562254+825264270+837338584+844051907+848947309+854833654
577+862546923+871117499+879044472+885989952+893087649+901197040+909315498
567+915761228+920605742+925314766+930079532+933023502+932028920+926050887
557+915323796+902186962+890435215+880873568+868639821+848620463+823479294
547+803733340+799906076+815469891+845387893+879174662+906577570+922819274
537+928600715+925618051+914409791+896615076+876700814+860163359+850815097
527+849740638+855217261+863459076+870825005+875296829+875908315+871361212
517+858492930+832341982+790446716+738761158+691898533+664157797+658274006
507+664009475+669501805+673519596+684670009+709462879+744276857+780677686
497+813815360+842860796+867662924+887371782+901359856+910704352+918065747
487+925804811+934567702+943301541+950373570+955282507+959263329+963640273
477+968044736+971314786+973865954+977525358+982763503+988044236+992560308
467+996937316+1000905368+1002948359+1002771113+1001750735+999929876+993502918
458+976054586+944049537+901780880+861416405+838590353+840568026+859043184
448+881585872+903946462+927357757+950599533+969832138+983758278+994217265
438+1002850286+1010401825+1017536235+1024137694+1029221132+1032501844
429+1034753623+1036208050+1035767680+1032535174+1028088442+1026556056
421+1031498706+1040954937+1045748499+1040968601+1031932116+1025036247
412+1022979975+1024626334+1027182610+1029627470+1033315989+1039188351
404+1045333669+1048146493+1045442021+1036945064+1022230127+1002301053+983998033
394+976036964+981031842+994168484+1008439539+1019863228+1027566984+1031861945
384+1034687283+1039526561+1048199807+1058944712+1067763088+1071216066
375+1072310829+1071216066
##END=
