##TITLE=HMS-Q231
##JCAMP-DX=5.0
##DATA TYPE=LINK
##BLOCKS=1


$$ === CHEMSPECTRA SPECTRUM ORIG ===
##TITLE=HMS-Q231
##JCAMP-DX=5.00
##DATA TYPE=INFRARED SPECTRUM
##DATA CLASS=XYDATA
##$CSCATEGORY=SPECTRUM
##ORIGIN=Angelika Moesle
##OWNER=
##XUNITS=1/CM
##YUNITS=TRANSMITTANCE
##XFACTOR=1.0
##YFACTOR=8.4735613e-10
##FIRSTX=3997.453
##LASTX=373.96442
##MAXX=3997.453
##MAXY=0.9098417149090688
##MINX=373.96442
##MINY=0.3065434099065476
##NPOINTS=2559
##XYDATA= (X++(Y..Y))
2559A072752042A072642871A072784399A072885692A072894344A072994651A073182183
2552A073280380A073249852A073162979A073065767A073052894A073243802A073567305
2545A073741822A073547117A073049026A072564651A072366356A072404272A072390836
2538A072152448A071820152A071668073A071758885A071817620A071626501A071450857
2531A071674474A072146398A072377120A072256624A072131767A072282721A072621558
2524A072847917A072764000A072408914A071930167A071532173A071502348A071968574
2517A072654126A073130200A073182816A072783696A072001846A071182925A070794145
2510A070881018A071091270A071174062A071174977A071184613A071124119A070844651
2503A070353524A069872385A069613949A069565061A069615426A069785513A070193566
2496A070830934A071476603A071807210A071525842A070578829A069383790A068664122
2489A068903144A069921343A071053426A071606032A071200229A070184703A069520957
2482A069626118A070022917A070194340A070135112A069866828A069092364A068045676
2475A067681938A068190299A068734815A068815146A068764078A068831395A068755215
2468A068593709A068792707A069274620A069432959A068884785A067978570A067502918
2461A068047927A069637654A071654779A072830684A072032162A070340581A069497181
2454A069547406A069970371A070370406A070421966A070039799A069519550A069048400
2447A068415815A067690519A067484699A067911745A068287512A068081973A067558418
2440A067320240A067565944A068170111A069074427A070126812A070800687A070721693
2433A070279735A069738454A068894422A068085841A067914278A068171025A068377831
2426A068506486A068654204A068633172A068383247A068250934A068527448A068979184
2419A068971868A068288918A067370745A066808714A066774598A067061171A067507420
2412A068083590A068744874A069312533A069519339A069320623A069008446A068815568
2405A068682833A068465899A068137965A067847875A067899506A068356798A068621987
2398A067996648A066793450A065988598A066025949A066732815A067791250A068766259
2391A069140267A068974752A069162635A070307802A071971669A072998942A072371914
2384A070580165A069135976A068265565A067157821A065805075A065406939A066218475
2377A067321506A067970903A067893527A067251938A066595437A066385185A066605355
2370A067008696A067354567A067435742A067232453A066978238A066828198A066729368
2363A066627935A066462983A066180983A065910940A065770045A065494374A064722021
2356A063829171A063669144A064496786A065886250A067098874A067394732A066588544
2349A065427410A064871427A065183322A065943157A066593678A066948483A067144596
2342A067110903A066458974A065290664A064417722A064440091A065261192A066233598
2335A066702075A066501249A065707230A064446422A063541543A063969292A065438524
2328A066863651A067398742A067116882A066580454A066146163A065946181A065856777
2321A065553040A064879657A064115884A063893112A064629099A066015327A067296676
2314A067661891A066810613A065706667A065476297A066014905A066546479A066478388
2307A065843834A065264006A065293619A065826741A066310692A066412337A066162905
2300A065509077A064374110A063348876A063156492A063674701A064536811A065435640
2293A065817807A065233547A064208947A063634746A063447426A063108448A062612608
2286A062374008A062581869A063115271A063660491A063812500A063434483A062820679
2279A062314569A061942109A061675373A061737836A062249644A062956228A063630737
2272A064280485A064771401A064802211A064417863A063975131A063494063A062826799
2265A062223336A062166500A062709891A063309978A063433217A063143478A062949546
2258A063169786A063588321A063604429A062801546A061641186A060997768A061089564
2251A061577457A062145327A062616688A062865417A062942441A063059772A063242660
2244A063240480A062854936A062140473A061435225A061295386A061900818A062603604
2237A062656150A062109101A061636051A061694998A062058314A062165796A061854604
2230A061517807A061509295A061688386A061714553A061488333A061076481A060534708
2223A059970988A059536767A059344523A059503988A060007636A060490041A060490533
2216A060111672A060010520A060479138A060937556A060724702A059954810A059281708
2209A059117389A059359295A059692434A059810538A059490623A058745914A057834282
2202A057024928A056523602A056579453A057309391A058380065A059242387A059738086
2195A060144311A060604347A060878047A060767751A060434330A060089725A059618364
2188A058831520A057982634A057613549A057867976A058350381A058674868A058776301
2181A058705889A058489447A058158348A057747692A057384868A057350612A057795876
2174A058486352A059020528A059114927A058670296A057897520A057277948A057055387
2167A057013041A056929615A056867222A056892545A056949452A057062421A057308617
2160A057579715A057622483A057345195A057009172A057021130A057425596A057717234
2153A057455351A056918149A056744053A057020356A057231593A057051799A056679901
2146A056380245A056113719A055778470A055504418A055486973A055652066A055675278
2139A055349103A054862196A054667349A055041216A055759478A056283243A056337407
2132A056217613A056362589A056693055A056716479A056355555A056215152A056747500
2125A057513875A057670104A056954587A055878707A055113106A054928247A055109518
2118A055185558A054755136A053792507A052742021A052229439A052502929A053115817
2111A053316644A052870747A052329184A052343815A052920056A053505231A053611236
2104A053205574A052686029A052540702A052880524A053396693A053836611A054204851
2097A054425021A054287081A053836330A053387056A053118139A052973727A052875037
2090A052818411A052887207A053227661A053854900A054499865A054787001A054571262
2083A054064871A053641975A053528021A053678764A053939803A054202319A054392594
2076A054473557A054471095A054347997A053938607A053234836A052586143A052315186
2069A052275162A052141582A051968260A052003572A052119847A051984720A051710527
2062A051794656A052376946A052936165A052846057A052097970A051348266A051201111
2055A051552821A051838479A051817658A051770880A051925843A052055836A051777141
2048A051060920A050293841A049859339A049807848A049994185A050400128A051087790
2041A051858315A052259686A052100713A051725791A051581942A051728253A051930908
2034A051967064A051719812A051273001A050956321A051011468A051284326A051442806
2027A051310704A050885065A050291379A049749887A049376231A049122930A049030641
2020A049211490A049507489A049567350A049357872A049220424A049366172A049619262
2013A049733779A049745526A049898238A050287440A050705482A050898500A050858124
2006A050764780A050732704A050728273A050652655A050448453A050170250A049940021
1999A049768458A049526059A049155639A048764890A048439277A048165225A048000554
1992A048099737A048519326A049166894A049927782A050665528A051102562A050911373
1985A050032662A048830589A047845239A047412285A047531233A047953847A048311817
1978A048320469A048017155A047709198A047597988A047572313A047460891A047315354
1971A047294322A047389635A047465253A047491490A047519275A047452661A047111714
1964A046553762A046103926A045996865A046154500A046363276A046540608A046704715
1957A046736721A046411812A045760024A045151637A044841499A044698072A044568784
1950A044597835A044913881A045290914A045396567A045185049A044828908A044445193
1943A044064081A043733403A043490724A043292008A043062271A042767046A042387622
1936A041893189A041303231A040749500A040403277A040280390A040148358A039760071
1929A039194311A038769586A038575794A038355554A037935683A037447369A036996548
1922A036455900A035719139A034851542A033884693A032719831A031308350A029776022
1915A028404706A027546676A027392135A027703046A027920191A027647757A026950317
1908A026142862A025399700A024650981A023809903A022985003A022422057A022288617
1901A022533690A022939773A023349374A023808074A024385300A024980392A025518508
1894A026154117A026985136A027772262A028229485A028376148A028383885A028325361
1887A028224631A028135578A028105542A028195932A028462245A028823241A029131549
1880A029414605A029843761A030522561A031472739A032635279A033705250A034274387
1873A034331504A034324892A034588956A035000878A035272397A035311226A035224284
1866A035167518A035252843A035518102A035927984A036397657A036836661A037187878
1859A037404179A037450464A037367461A037222627A036975868A036575622A036179457
1852A036041586A036222576A036589691A036993523A037324904A037584958A037912681
1845A038306877A038461911A038184131A037746604A037504417A037417052A037236836
1838A036890684A036449780A035988689A035631071A035498195A035514092A035461266
1831A035264168A035069110A035041817A035193684A035372424A035323607A034809617
1824A033801408A032567611A031476045A030674640A030055279A029510552A029060996
1817A028715899A028437345A028285055A028352653A028512681A028526820A028487077
1810A028766404A029357628A029698575A029492403A029311273A029894056A031122366
1803A032187764A032620859A032668551A032712515A032811838A032920726A033124297
1796A033419733A033559502A033388008A033131331A033117544A033411432A033913462
1789A034585157A035372072A036097508A036567392A036683316A036446614A035975535
1782A035482509A035129322A034947207A034936656A035117083A035382411A035437349
1775A035070024A034455447A034014473A033981202A034257645A034621594A034880031
1768A034883618A034626167A034302946A034082424A033895033A033639199A033463837
1761A033577650A033899535A034182872A034329535A034322008A034084182A033691041
1754A033466158A033597135A033867248A033928727A033660161A033205541A032838708
1747A032781309A033073580A033596220A034128216A034369911A034155509A033734794
1740A033562808A033735005A033929993A033950673A033981413A034223811A034581359
1733A034824179A034871660A034794354A034663376A034508274A034382432A034370333
1726A034516293A034747928A034869409A034681666A034209602A033772638A033673878
1719A033833624A033908468A033727971A033400529A033048679A032700698A032404769
1712A032221388A032117493A031999529A031839642A031724633A031791177A032079929
1705A032430585A032604118A032518020A032280827A032022391A031781540A031538579
1698A031307576A031194537A031328960A031678559A032000725A032072122A031928132
1691A031779781A031736450A031729417A031672510A031567490A031448049A031363990
1684A031416676A031658582A031952963A032057069A031863840A031501368A031193059
1677A031040910A030968388A030873215A030790493A030832839A031013125A031202485
1670A031231396A031011928A030636585A030359649A030383635A030634826A030799989
1663A030610136A030107543A029641247A029554867A029862402A030252870A030408255
1656A030288955A030118446A030123441A030314348A030524460A030591707A030445888
1649A030110427A029739866A029581034A029771168A030193220A030587838A030781419
1642A030759472A030564133A030212775A029776374A029442461A029365788A029461242
1635A029471371A029255562A028921930A028659766A028530407A028470757A028420463
1628A028363064A028281538A028176658A028128755A028256285A028573527A028922634
1621A029077245A028931849A028579858A028217316A028008963A028017263A028189812
1614A028403229A028547149A028555378A028425598A028284351A028326205A028581546
1607A028847720A028898857A028645768A028140221A027610335A027374549A027525503
1600A027830365A028049269A028164067A028241724A028303133A028359336A028391341
1593A028332324A028216190A028225827A028441495A028640844A028535191A028167584
1586A027938129A028186647A028794752A029249653A029113401A028400205A027523322
1579A026985418A027047319A027496100A027779086A027601402A027264112A027173160
1572A027291616A027375815A027422804A027551670A027705156A027722531A027560533
1565A027333751A027180195A027103592A027054845A027180617A027676738A028285758
1558A028398235A027845559A027141787A026746959A026554855A026332012A026238105
1551A026556473A027182234A027707126A027833319A027521775A027020940A026844101
1544A027267559A027802509A027711698A027029100A026513986A026651153A027180335
1537A027554484A027508199A027161765A026736478A026345729A026092146A026088769
1530A026248516A026399610A026599241A026916553A027113510A027036697A026977962
1523A027140944A027198202A026837418A026349527A026297474A026835027A027589655
1516A028107160A028221677A027976676A027465220A026936108A026762223A027021081
1509A027297525A027127367A026524256A025959833A025849255A026132381A026496331
1502A026933928A027674487A028511345A028761832A028144441A027277196A027003003
1495A027432019A027914564A027923005A027655212A027577415A027686234A027619128
1488A027317361A027136934A027320175A027667594A027788933A027538376A027128704
1481A026828415A026637366A026360993A025972213A025711948A025716168A025721233
1474A025388938A024824585A024474986A024540615A024773095A024883531A024924541
1467A025132542A025508167A025760765A025677621A025306075A024761558A024189679
1460A023893539A024096687A024599631A025023090A025253037A025324434A025118403
1453A024520778A023692010A022941532A022467709A022315419A022435914A022729310
1446A023134338A023667460A024285906A024747209A024754384A024259388A023535921
1439A022933583A022606845A022457861A022295793A022053254A021836531A021736786
1432A021654838A021427071A021113626A020985324A021136488A021324934A021366928
1425A021409274A021545245A021510426A021131424A020743558A020762058A021124530
1418A021490801A021733199A021946968A022198792A022536996A023067725A023794709
1411A024551588A025234678A025867474A026367112A026575676A026522638A026267086
1404A025591593A024385018A023086154A022174172A021493614A020595770A019427391
1397A018292916A017458732A017072274A017221891A017834499A018586524A019147712
1390A019389899A019220023A018635341A017961747A017599135A017569099A017542580
1383A017252841A016824389A016646916A016796815A016815878A016342406A015690759
1376A015428313A015584472A015824970A016092763A016509890A016969082A017263463
1369A017397324A017524432A017680591A017695151A017411181A017033586A017087116
1362A017771402A018564226A018827304A018589760A018287571A018011479A017601808
1355A017243556A017301448A017670110A017885145A017852577A018007047A018732905
1348A019919151A021093369A021873109A022270470A022546703A022859302A023186814
1341A023469448A023596626A023359433A022615568A021490378A020404159A019851974
1334A019991604A020468522A020807992A020908721A021056017A021539899A022201676
1327A022410802A021767033A020674342A019856335A019689485A020294144A021574156
1320A022867814A023317439A022744786A021619386A020424558A019492809A018987472
1313A018658906A017849200A015936252A012873636A009261016A005558711A001576303
1306I97462990I94473389I93703919I94910353I97426835A001091085A005534443
1299A009733221A012910987A015141036A016891143A018476439A019869279A020842811
1292A021410329A022026665A023168103A024728849A025911438A025858259A024514377
1285A022585743A020607517A018692670A017345903A017472027A018967144A020314543
1278A020456915A020073904A020099367A020305961A020354357A020869259A022301350
1271A023604223A023199124A020993202A018680923A017805025A018038138A018234110
1264A018675225A020680462A024063485A026692936A027020378A025652931A024073544
1257A023145312A022907346A023023269A023036212A022221794A020115405A017564245
1250A016221277A016677304A018013308A019241407A020309338A021560158A022741480
1243A022911496A021550028A019493372A018125362A017749877A017387476A016208405
1236A014594832A013611663A013775278A014496283A014688878A013863206A012467130
1229A011237764A010613621A010734327A011418191A012042335A012048033A011714964
1222A011901792A012930191A014195782A014869587A014594761A013569106A012296691
1215A011277015A010757259A010760073A011206392A011840313A012219315A012113662
1208A011846433A011961020A012592972A013408797A014086471A014519566A014563952
1201A014013386A012922031A011684998A010815713A010831470A012056615A014097796
1194A015773481A016180971A015640675A015038408A014625501A014175172A013908295
1187A014282021A015072453A015652000A015876321A015798312A015055853A013671805
1180A012774243A013419981A015373024A017450221A018470178A017938112A016294644
1173A014531735A013578532A014029635A015764758A017756419A019128015A020050128
1166A020861452A021270489A021011350A020166755A018785240A017278094A016667315
1159A017264940A018060507A018315848A018551705A019209894A019519258A018647088
1152A016985472A015499499A014741917A014714132A014759221A013925951A012281287
1145A011203578A011620565A012688284A012907470A011797686A010044414A008744354
1138A008534877A009095783A009718168A010167442A010554956A010766052A010506771
1131A009826073A009355978A009731463A010731936A011548254A011771026A011388226
1124A010362992A009101551A008491194A008806607A009353375A009342472A008420712
1117A006665400A004640819A003084927A002397123A002634176A003645411A004997031
1110A006192140A007066067A007745429A008322444A008685971A008665431A008365142
1103A008135686A007983607A007408210A006145151A004656365A003722506A003872123
1096A005045918A006439532A007009372A006565303A005868989A005574960A005653602
1089A005844299A006020083A005981184A005515521A004762089A004026594A003307137
1082A002484207A001712908A001168883A000724956A000196969I99485391I98345921
1075I96680929I95137135I94630392I95267268I96295243I96937818I96934512
1068I96450348I95962598I96084008I97007316I98202917I98963524I99194034
1061I99449376A000160040A001037696A001430273A001175425A000948924A001426827
1054A002319536A002866515A002770287A002342679A002035566A001994205A002044288
1047A001976760A001808362A001761092A001948061A002209803A002395224A002596261
1040A002883749A003015921A002761354A002292947A001821375A001306894A000730582
1033A000270758A000054949I99970961I99850676I99647598I99362925I98957403
1026I98469020I98134263I98207137I98599716I98892338I98770013I98375044
1019I98114849I98166832I98374199I98466066I98256588I97849801I97617461
1012I97775660I98125471I98321584I98272485I98186246I98288312I98616105
1005I99091546I99600681I99953305I99998535I99913773I99967092A000035886
998I99775270I99104067I98364633I97939064I97869284I97918806I97915430
991I97942933I98131450I98401844I98525013I98393684I98051682I97569347
984I97079627I96685923I96301575I95792018I95271277I95002009I94997296
977I95015444I94898887I94736398I94660288I94662398I94643265I94556885
970I94439695I94305202I94081796I93696252I93205125I92758664I92436569
963I92224558I92078247I91930107I91746233I91488219I91003493I90231069
956I89316624I88307851I87109998I85853059I84715701I83337070I80870882
949I76898394I72087922I67027947I61325048I54263846I45468786I34373124
942I19503127I00560684H80047860H58077410H29277605G91833976G54367837
935G20059767F84472110F50738524F24472364F04293944E87905582E76341548
928E71129424E74110092E88127194F10176146F33480982F57025613F81971807
921G09334949G39967934G70870751G96855192H18118424H38304722H57510102
914H72825927H84151677H93546964I02233486I09959981I16107583I20807055
907I24554590I27716389I30713165I33787176I36235075I37913784I39680421
900I42035328I44623277I46784532I48544205I50265612I52133893I54082504
893I55917232I57493735I58739560I59686080I60499867I61304930I62121881
886I62975550I63840826I64439365I64434300I63906244I63192624I62176677
879I60010778I55640859I49033714I40582204I29710300I15895009I00441385
872H86381656H76255798H70773209H69809666H73605456H82017784H92965377
865I03065279I10373944I15896205I21968611I29634331I38056719I45765840
858I51902609I56552209I60187408I63049620I65137860I66467885I67054255
851I66596892I64510199I61179158I58293030I56706961I56286809I57017169
844I58953259I61748928I64876610I67848134I70394722I72658606I74762673
837I76017854I76104445I75908894I75925073I76141163I76471207I76886084
830I77358641I77811854I78134231I78266614I78239532I78020136I77639516
823I77494893I77657735I77729835I77501223I77218660I77154087I77112937
816I76662045I75482341I73655843I71309940I67665525I61248656I50403341
809I30999105H96031229H42999200G80308595G22632523F84310324F75503025
802F99539206G49217121G96179065H16918884H18309965H10264117G96421182
795G80578778G70689902G74574464G91503650H15507262H42826933H70079497
788H90349713H97543580H91994588H78211795H62708510H53286141H55403784
781H68406275H87099073I05953588I21560065I33045702I40892201I45862349
774I48913640I50868231I52092532I52548347I52012201I50299728I46883503
767I39490357I23664554H99617681H76501924H60392432H52443164H53202856
760H60962131H69832949H73833434H73185726H73039766H76953449H83930100
753H91306996H98301655I05445930I12229282I17733114I21943147I24988741
746I26782178I27456124I27368618I26864759I26305189I25839033I24959830
739I22513057I17655103I10755970I02341461H92409887H81235372H69809174
732H59414890H51006149H45080406H42059925H42217772H45234877H50592117
725H57892340H66450277H75575311H85092289H94589642I03144273I10460534
718I17078512I23462110I29437303I34554185I38787853I42426710I45536807
711I47921116I49448591I50032921I49197751I46015624I39799018I30612506
704I19192216I07321668H97729915H92360296H91262822H93098534H95899901
697H98058623H98917357H98369253H96597552H94310666H92717984H93031076
690H95950475I01379254I08476752I16095835I23308554I29713325I35325484
683I40142216I43892001I46296288I47339950I47091996I45427354I42019290
676I36553512I28946880I19421882I08531407H97227112H86791960H78460665
669H73008464H70655387H71241124H74463627H79984341H87306089H95648358
662I04069339I11706712I17920082I22320109I24689928I24930919I23198891
655I20063260I16432492I13293695I11370970I10792900I11050211I11376386
648I11206510I10345244I08839927I06780949I04173797I00953263H97124483
641H92909174H88753866H85164671H82447926H80521331H78968885H77309450
634H75182943H72281269H68205589H62475115H54618628H44232505H31049517
627H15042091G96465568G75766337G53419698G29843202G05417327F80536761
620F55606395F30997631F07069495E84226770E62867697E43275718E25628726
613E10097622D96888502D86208244D78185856D72768087D69621553D68103750
606D67388830D66762611D65885835D64819452D63833962D63096497D62344648
599D60809154D57554434D51972698D44028319D34175314D23157735D11818831
592D00902787C90899746C82048378C74477760C68353653C63968644C61764551
585C62228702C65683755C72141881C81319495C92717557D05684770D19499463
578D33480198D47021683D59551195D70599587D80001873D87934083D94684022
571E00466197E05481856E10068148E14733013E20006053E26201170E33298563
564E41002654E48795588E55960298E61720174E65335959E65945085E62587420
557E54974175E44351140E33003056E22370033E11883743E00062329D86426023
550D71817486D57354171D44056842D33376866D26978883D25543205D28354208
543D34499066D44029690D57248799D72861888D87559509D97996317E03262918
536E05555680E08711956E15945285E28401781E45321894E65120080E86187973
529F07214259F27391342F46411442F64152163F80414297F94844094G06855396
522G15565343G19829821G18493254G11323373G00428116F90123801F83800275
515F80560256F76474658F70182293F65854718F68834120F79116207F90993367
508F98759606G01183940G00749368G00444295G01948908G05784934G11961164
501G20133768G29477776G38871023G47362979G54290320G58986557G61076415
494G61585760G63161419G68202472G76787279G86940993G96610754H04844836
487H11584365H17184213H22089999H26468290H30044543H32378276H33229343
480H32619971H30581181H26880564H21108237H13108603H03316096G92690599
473G82361383G73186688G65510346G59380682G54965813G52506660G51766171
466G51727624G51058321G49023329G46093729G43618468G42640153G42891625
459G42877416G40785167G35722167G29061774G24625099G26203149G34209816
452G45438987G56209247G64937834G71940230G78192711G84716922G92150233
445H00232377H08079298H15274079H22306722H29608775H36591475H42146094
438H45795361H47864187H48797413H48862269H48410814H47964284H47928128
431H48341105H48862057H48911578H47939594H45758080H42685968H39300975
424H35993780H32759177H29376295H25726042H21953606H18423216H15604053
417H13958685H13731973H14707475H16286229H17892205H19198806H20021595
410H20298672H20265470H20443997H21374270H23395404H26553544H30516748
403H34598196H38070343H40615102H42500617H44316775H46518336H49176133
396H52045732H54778515H57105144H58950353H60370908H61274168H61243147
389H59817035H56948211H53097484H49064924H45926901H44866848H46584246
382H50730198H55985020H60724657H63807813H65032605H64928922H64056331
375H62558471H60335244H57338820H53579819H49067315H43892824H38319353
368H32840422H28184842H25034792H23610228H23726855H25275713H28323980
361H32674697H37653638H42489151H46770371H50487589H53741675H56553734
354H58968782H61125887H62975457H64003575H63406653H60438084H54500243
347H45162214H32348451H16505765G98633505G80415585G64389307G53563196
340G50269577G54927829G65537850G78076154G87570201G89586974G81710931
333G64598786G42358856G21669472G09252016G08820890G19579263G37140823
326G55948349G71721748G82780691G89671595G93700076G95677739G95621395
319G93299057G88995328G83755137G78967386G75804462G74919913G76434233
312G80135273G85606888G92059984G98181840H02428733H03636503H01621770
305G97525620G93547082G91998434G94283703H00396907H08955336H17637004
298H24057251H26842720H26211261H23536721H20260757H17085805H13973528
291H10635874H06764959H01816758G95204689G87330756G79981013G74868704
284G71882690G69138230G64266701G55405169G41897342G24826839G06387342
277F87980131F68759768F46182127F18366687E86679733E56607795E35871916
270E30451298E41089738E63176990E89673415F13698305F30206988F38888164
263F45565228F57209346F74456055F90858241F99531819F99288226F95101757
256F94053944G00353765G13205653G28686289G42806090G52980554G57964700
249G57551019G53032888G48031227G47321407G52680335G60073620G62757164
242G57127420G45269322G33093209G26326318G27017638G32498187G37443293
235G37746396G33267446G27428997G24350906G25806983G29687957G30567583
228G22223274G01386595F71389712F43180075F30854274F42658560F74617420
221G13446715G45909715G65555013G73049803G72835049G69548605G66167340
214G64054902G63798787G65481928G68399851G70743573G68915950G60037887
207G46971877G33513642G21393732G12703482G09214453G10757825G16407124
200G25750850G38170699G51831167G63959940G72357427G76535244G77386311
193G76220042G74278887G72663204G72031533G72180377G72252196G71730048
186G71177020G71719848G73927951G77565542G82215705G87447665G92330097
179G95454403G95939973G94214275G91500274G88787116G86475189G84595090
172G82970895G81288247G79349976G77385537G75925661G75139801G74335442
165G72342093G68466113G63080174G57377134G52558362G49111046G46892954
158G45893185G46469074G48745830G52282832G56428644G60685032G64948948
151G69754073G75876844G83348420G91158482G97819720H01737905H01494522
144G96796738G89217890G81108453G73623933G66332503G58448933G49971890
137G41635178G33852972G26151729G18137183G10539132G04397651F99596183
130F95241667F91362451F89450207F91439265F98643894G11194578G27588814
123G44785089G59325183G68827319G72763511G72146613G68444940G62272368
116G53056242G40424735G25859036G12698065G04478966G02942699G07514360
109G16788588G29546359G43627331G55483319G62318864G63925684G62090956
102G58915582G55959533G54150199G53877132G55455112G59448703G65957791
95G73557038G79787573G83299814G85140381G87603262G91956370G97547145
88H02708201H05678740H04727436G98028987G84676687G66993083G50877753
81G42540619G44955597G56885233G74389113G93255656H10616530H25116389
74H36331139H44449299H50159655H54146845H56683726H58067140H58921724
67H59480590H59166443H57481755H54878049H52190425H49433726H45587712
60H39834518H32867785H26031889H19651667H13336652H07238360H02462708
53H00595693H03101623H10621947H22267823H35396436H46690180H54110900
46H57608229H58494397H58255093H57300976H55307275H52615009H50392205
39H49842764H51421307H53797175H54074111H51031120H47530414H48350953
32H54273531H60480571H64021019H65884587H67495980H68750880H69134454
25H69954781H73306432H78625828H82831219H84282935H84373606H85353046
18H88173053H92204067H95829418H96764473H93282971H86525787H80778009
11H79739973H82922663H86512984H87487923H86011165H83586198H81512449
4H81288972H84312760H90233719H96364368
$$ === CHEMSPECTRA INTEGRALS AND MULTIPLETS ===
##$OBSERVEDINTEGRALS= (X Y Z)
##$OBSERVEDMULTIPLETS=
(1, 157.76902874151668, 158.5913314675719, 158.20218614682148, 1.0, 1, t, A, 25.431315104178793)
(2, 114.17811406678956, 116.30034243703248, 115.44376724647512, 5.692928701909085, 2, d, B, 21.57808554292933)
(3, 159.9024763464345, 165.304512197962, 162.68251483331667, 1.13460838553176, 3, d, C, 246.60669191919442)
(4, 130.67939980964496, 131.0917373390236, 130.91047456677774, 1.5384474733174156, 4, d, D, 3.8532295612385496)
(5, 131.4360221597908, 131.59823193452513, 131.51551040649247, 4.846983287795754, 5, d, E, 8.477105034722626)
##$OBSERVEDMULTIPLETSPEAKS=
(1, 158.44726395527422, 14371905.913992)
(1, 158.20218614682148, 30976884)
(1, 157.94179097525912, 10463725.979216)
(2, 115.55098878769039, 236076068)
(2, 115.33654570525985, 238739964)
(3, 163.9079038757769, 45593851)
(3, 161.45712579085645, 40542778)
(4, 130.92962127056617, 66159155)
(4, 130.89132786298927, 64959109)
(5, 131.55763315482704, 267577227)
(5, 131.4733876581579, 235920393)
$$ === CHEMSPECTRA SIMULATION ===
##$CSSIMULATIONPEAKS=
##END=


$$ === CHEMSPECTRA PEAK TABLE EDIT ===
##TITLE=HMS-Q231
##JCAMP-DX=5.00
##DATA TYPE=INFRAREDPEAKTABLE
##DATA CLASS=PEAKTABLE
##$CSCATEGORY=EDIT_PEAK
##$CSTHRESHOLD=0.93
##MAXX=3997.453
##MAXY=0.9098417149090688
##MINX=373.96442
##MINY=0.3065434099065476
##$CSSOLVENTNAME=- - -
##$CSSOLVENTVALUE=0
##$CSSOLVENTX=0
##NPOINTS=51
##PEAKTABLE= (XY..XY)
378.2140156763094, 0.7467656127255984
388.12973892103173, 0.7454530589275845
420.70997243940565, 0.7181600925116939
427.7926318999216, 0.7201194756115433
447.62407838936633, 0.6783896681151481
487.2869713682562, 0.6291963452836444
512.7845454261137, 0.6388024090670191
529.7829281313525, 0.5956428050363949
553.8639702971068, 0.5842098592312189
596.3599270602031, 0.632037162634974
636.022820039093, 0.6534615752121326
641.6889476075057, 0.6541856520408473
660.1038622048472, 0.6009572142341468
674.2691811258792, 0.6472095842510143
689.8510319390148, 0.5345582362105996
701.1832870758403, 0.6137831804701538
711.0990103205627, 0.6154570579376293
721.014733565285, 0.6332473753016749
735.180052486317, 0.5881108639990767
755.0114989757622, 0.4494811590267567
801.757051415168, 0.6711047288476565
817.3389022283031, 0.6566331385396167
838.586880609851, 0.6006237262135556
854.1687314229866, 0.635745525223457
889.5820287255665, 0.6978911754264976
916.4961346755276, 0.7159031026865782
951.9094319781075, 0.6950569742318311
961.8251552228303, 0.6895207754985445
984.4896654964814, 0.7184970970602246
1017.0698990148553, 0.6140155195895068
1025.5690903674745, 0.6292806860286879
1087.8964936200155, 0.5935257670917783
1097.8122168647378, 0.5642160769867214
1144.5577693041437, 0.3605866433365966
1202.635576880375, 0.3065434099065476
1294.7101498670836, 0.771765946975477
1318.791192032838, 0.7377551792919723
1352.787957443315, 0.756450056950998
1364.1202125801406, 0.7552170156627989
1405.1996374511336, 0.7135246392760902
1443.4459985379199, 0.7397755974538656
1451.945189890539, 0.7223229404919953
1481.6923596247066, 0.7230372422203943
1497.2742104378417, 0.6530488127887992
1510.022997466771, 0.5723916290672932
1538.3536353088348, 0.828286289627244
1555.352018014073, 0.8269423836524202
1570.9338688272087, 0.8103154896442891
1603.5141023455822, 0.7370385524183526
1687.0894839796715, 0.4839500184497691
2216.872411626285, 0.8451757428637485
##END=


$$ === CHEMSPECTRA PEAK TABLE AUTO ===
##TITLE=HMS-Q231
##JCAMP-DX=5.00
##DATA TYPE=INFRAREDPEAKTABLE
##DATA CLASS=PEAKTABLE
##$CSCATEGORY=AUTO_PEAK
##$CSTHRESHOLD=0.93
##MAXX=3997.453
##MAXY=0.9098417149090688
##MINX=373.96442
##MINY=0.3065434099065476
##NPOINTS=61
##PEAKTABLE= (XY..XY)
1800.412035347928, 0.845819234429788
1824.4930775136822, 0.8457751863160822
1815.993886161063, 0.8457587357441744
1777.7475250742764, 0.8455897568320859
1780.5805888584828, 0.845550655583467
1807.494694808444, 0.845337270973386
1883.9874169820168, 0.8439350126660258
1757.9160785848317, 0.8431170580990245
1752.249951016419, 0.8428314923043654
1892.4866083346365, 0.842806159745503
2219.7054754104765, 0.8420211071696735
1538.3536353088348, 0.828286289627244
1555.352018014073, 0.8269423836524202
1570.9338688272087, 0.8103154896442891
1294.7101498670836, 0.771765946975477
1352.787957443315, 0.756450056950998
1364.1202125801406, 0.7552170156627989
378.2140156763094, 0.7467656127255984
388.12973892103173, 0.7454530589275845
1443.4459985379199, 0.7397755974538656
1318.791192032838, 0.7377551792919723
1603.5141023455822, 0.7370385524183526
1481.6923596247066, 0.7230372422203943
1451.945189890539, 0.7223229404919953
427.7926318999216, 0.7201194756115433
984.4896654964814, 0.7184970970602246
420.70997243940565, 0.7181600925116939
916.4961346755276, 0.7159031026865782
1405.1996374511336, 0.7135246392760902
889.5820287255665, 0.6978911754264976
951.9094319781075, 0.6950569742318311
961.8251552228303, 0.6895207754985445
447.62407838936633, 0.6783896681151481
801.757051415168, 0.6711047288476565
817.3389022283031, 0.6566331385396167
641.6889476075057, 0.6541856520408473
636.022820039093, 0.6534615752121326
1497.2742104378417, 0.6530488127887992
674.2691811258792, 0.6472095842510143
512.7845454261137, 0.6388024090670191
854.1687314229866, 0.635745525223457
721.014733565285, 0.6332473753016749
596.3599270602031, 0.632037162634974
1025.5690903674745, 0.6292806860286879
487.2869713682562, 0.6291963452836444
711.0990103205627, 0.6154570579376293
1017.0698990148553, 0.6140155195895068
701.1832870758403, 0.6137831804701538
660.1038622048472, 0.6009572142341468
838.586880609851, 0.6006237262135556
529.7829281313525, 0.5956428050363949
1087.8964936200155, 0.5935257670917783
735.180052486317, 0.5881108639990767
553.8639702971068, 0.5842098592312189
1510.022997466771, 0.5723916290672932
1097.8122168647378, 0.5642160769867214
689.8510319390148, 0.5345582362105996
1687.0894839796715, 0.4839500184497691
755.0114989757622, 0.4494811590267567
1144.5577693041437, 0.3605866433365966
1202.635576880375, 0.3065434099065476
##END=

##END=

