##TITLE=S. Marschner STM156
##JCAMP-DX=5.0
##DATA TYPE=LINK
##BLOCKS=1


$$ === CHEMSPECTRA SPECTRUM ORIG ===
##TITLE=S. Marschner STM156
##JCAMP-DX=5.00
##DATA TYPE=INFRARED SPECTRUM
##DATA CLASS=XYDATA
##ORIGIN=Angelika Moesle
##OWNER=
##XUNITS=1/CM
##YUNITS=TRANSMITTANCE
##XFACTOR=1
##YFACTOR=7.5907281e-010
##FIRSTX=3997.453
##LASTX=373.96442
##MAXX=3997.453
##MAXY=0.8150482227991326
##MINX=373.96442
##MINY=0.4766446381639598
##NPOINTS=2559
##XYDATA= (X++(Y..Y))
2559I75516351I75676773I75987724I76355289I76708251I77001377I77195329I77376481
2551I77727793I78238114I78630807I78647533I78235915I77554257I76961802I76763453
2543I76810487I76696630I76416774I76326551I76498281I76670874I76774053I77013470
2535I77504788I78140117I78748513I79221535I79501861I79515054I79150315I78407017
2527I77591163I77253043I77707063I78526921I78914825I78672738I78279653I78050915
2519I77707534I77011899I76269700I75912970I76005470I76342491I76824229I77437023
2511I77894890I77827282I77405692I77283746I77700075I78094338I78075571I78021626
2503I78388799I78913254I78926525I78326060I77685705I77502511I77564073I77298508
2495I76787010I76941385I78246359I79603078I79806689I79291891I78941523I78710272
2487I78222409I77682957I77829873I78827821I79423811I78798925I77977260I78297713
2479I79132962I78968376I78364693I78657662I79175128I78753303I77983307I77874944
2471I78223509I78552284I79282783I80217598I80362710I80015638I80380769I81473260
2463I81976121I81340321I79982266I78285620I76714768I76702990I79560519I82659742
2455I83413719I82520207I81063449I79710184I78922284I78723935I78689150I78871479
2447I80059847I82049618I83083923I82517694I81562855I81356810I81625045I81402825
2439I80418539I78987850I77288849I75807200I75980186I78287583I80491330I81652763
2431I83068375I84621874I84742092I83312582I81378875I80033541I80146222I81172438
2423I81181469I80001583I79756826I81359951I82654638I82641603I82475370I82663825
2415I82557269I81902073I81171575I80766239I80695960I80917003I81410441I81830932
2407I81810909I81722178I82316674I83373279I83837115I83401861I82583732I81994809
2399I82079300I82793938I83425419I83429659I82816866I81673493I80328631I79750545
2391I80774247I82493195I82911486I81537256I79460167I78403169I79781561I82144317
2383I82639404I81650565I81581700I83446306I85115547I85132901I84253443I83482741
2375I83629814I85164467I87109402I87593418I86322681I84377981I82780667I82134894
2367I82484006I83184824I83663265I83997930I84283674I84206173I83510695I82344080
2359I81205340I80956814I82364181I84730000I86428216I86781569I85953937I84646530
2351I84023135I84679745I85569960I85433958I84344059I82941247I81508674I80172606
2343I79635980I81178799I84702517I87583681I88190821I87141989I85517035I84037113
2335I82798099I81440672I80268168I80843034I83175402I84619911I84866787I85898657
2327I87927062I88784768I88011631I86831588I86016677I85495598I84990932I84646451
2319I85015038I86118992I86674699I85580168I83348231I82062104I84260589I88620812
2311I90923263I90247572I87989566I85606787I83969897I83232331I83188358I83746500
2303I84767454I85611341I85577969I85041108I85568546I87438492I88406759I87545833
2295I85673296I83855332I83101826I83793613I84809072I84990225I84821793I85071261
2287I85367605I84980959I84229259I84057608I84657366I85328031I85547344I85350959
2279I85038281I84829096I84736988I84804597I85217549I85865677I86113103I85608043
2271I84953555I85235766I86538855I87666757I88076491I87962475I87335941I86329355
2263I85520176I85289554I85425085I85557553I85381505I84633416I83530797I83122242
2255I84217245I85557239I85498347I84430356I83626124I83630600I83950424I83959375
2247I83729303I83780814I84331417I84964940I85184334I85109501I85240399I85606473
2239I85606002I84970516I84115008I83462718I83176816I83338493I83818584I84158274
2231I84006489I83482270I82975246I82775014I82879920I83170769I83732994I84611194
2223I85305180I85189908I84365967I83474418I82931117I82808543I83122792I83771704
2215I84464670I84947037I85077150I84815747I84420070I84329847I84517124I84459724
2207I84018111I83691298I83883993I84335422I84482887I84181046I83777359I83600604
2199I83609790I83588354I83523337I83653843I84118777I84657679I84905891I84942012
2191I85105417I85322691I85158814I84604913I84178847I84139743I84227531I84255484
2183I84410647I84862075I85421708I85710516I85564620I85225244I85057361I85103533
2175I85093090I84877622I84602478I84490034I84666003I85067020I85381426I85320178
2167I84976640I84637892I84301657I83729303I82993150I82561981I82728921I83223929
2159I83528677I83427932I83129466I82977603I83207989I83860829I84708249I85308007
2151I85385902I85125834I84858306I84639149I84346179I83985602I83654314I83352943
2143I83022675I82684162I82445845I82412080I82584438I82860918I83143679I83392440
2135I83608064I83893573I84389288I84992266I85416526I85692534I86189348I86973400
2127I87589492I87643359I87260873I86828839I86542545I86328806I86072113I85805450
2119I85628537I85509105I85297407I84967061I84751515I84938949I85494813I86014243
2111I86163671I86018562I85836545I85714284I85631208I85605060I85648326I85670234
2103I85504943I85044720I84427451I84024942I84057293I84276451I84256977I83915717
2095I83551134I83490436I83899619I84757326I85785112I86550398I86821930I86651614
2087I86052012I84927171I83445443I82099244I81149981I80268404I78980548I77349705
2079I75974217I75295701I75147057I75117533I75110780I75281253I75600920I75827695
2071I75882425I75992200I76366676I76897727I77317039I77589357I77980558I78727233
2063I79779598I80873501I81787744I82494608I83002730I83156400I82862567I82466968
2055I82478354I82932138I83446856I83835074I84183480I84450379I84474172I84326941
2047I84259646I84330632I84382771I84369422I84500006I85005537I85856804I86742779
2039I87309165I87439120I87355415I87375438I87513560I87482622I87141989I86701947
2031I86423033I86380238I86550555I86851218I87108146I87192794I87121338I86921890
2023I86600495I86331711I86428923I86954948I87520470I87663460I87378972I87147722
2015I87421138I88159019I88877268I89127443I88939616I88749904I88850885I89066980
2007I89083156I88851827I88545665I88352814I88395137I88613195I88741345I88618064
1999I88421757I88430237I88693524I89051275I89295796I89256691I88923911I88535222
1991I88416339I88680647I89129798I89503411I89794181I90226764I90865705I91384742
1983I91401389I90979250I90591111I90588362I90885964I91180268I91276145I91183959
1975I91075440I91101274I91172573I91115173I91073869I91394636I92048575I92618495
1967I92884687I92951746I92854849I92537930I92171542I92065065I92302833I92711702
1959I93074242I93140516I92511390I90752632I87737508I83870252I79990746I77069770
1951I75782072I76120114I77416057I78876977I80022705I80605895I80518107I80038017
1943I79801585I80186347I80883081I81268236I81104909I80765218I80827487I81519196
1935I82559154I83467586I83941786I83965108I83695930I83313209I82943288I82627547
1927I82292253I81807218I81161759I80579826I80428904I80965766I82067914I83263034
1919I84159059I84787950I85395089I86019425I86453657I86515141I86205211I85695675
1911I85263641I85176952I85551114I86279415I87088986I87723922I88095808I88254660
1903I88288739I88340014I88603537I89172279I89923744I90588598I90879133I90648589
1895I90055663I89463442I89091322I88929251I88973302I89256456I89626063I89819230
1887I89789941I89711339I89694692I89746753I89913143I90244353I90708031I91286039
1879I92020621I92846055I93542318I93976628I94254207I94550238I94923144I95289375
1871I95475788I95364207I95084194I94961777I95155022I95427026I95418781I95133900
1863I94962247I95085765I95096208I94528880I93573334I92865057I92712644I92899843
1855I93087199I93081937I92846212I92440483I91883205I91082507I89996770I88696901
1847I87152198I85113192I82285501I78510589I73864935I68745080I63744424I59249142
1839I55200027I51348240I47638265I44170377I40817054I37108492I32633234I27437527
1831I21915871I16467948I11395914I06930156I03131058H99866544H97025741H94688583
1823H93085773H92506430H93157072H94916928H97257854H99555279I01417687I02597965
1815I02691330I01174109H97808144H92852088H86722586H79526506H71060632H61196263
1807H50145962H38428216H26695550H15613762H05831685G97902044G92076269G88247175
1799G86220027G85965140G87504348G90689632G95251581H00960985H07525740H14328106
1791H20518228H25583744H29765485H33732072H37864343H42001404H45813929H49209575
1783H52374364H55639115H59346655H63654738H68390301H73182950H77752201H82037042
1775H86137354H90147365H93930915H97093506H99282962I00413378I00533597H99706750
1767H98179950H96480320H95140640H94342767H93857967H93324717H92554486H91505105
1759H89977834H87496744H83592190H78173634H71601419H64472948H57405332H50958596
1751H45637723H41990489H40771891H42769357H48119206H55844531H64369769H72529875
1743H79982803H86842962H93233710H99197921I04763943I09930361I14648021I18910875
1735I22786847I26276486I29273786I31784715I34039580I36246939I38361249I40218003
1727I41782258I43133403I44325068I45397219I46442125I47545607I48747716I50093364
1719I51555462I52898989I53844406I54382524I54756686I55204344I55859148I56744181
1711I57713232I58541571I59183968I59812465I60540687I61226507I61652180I61847544
1703I62088689I62556372I63131317I63592247I63871553I64075869I64353527I64756114
1695I65181865I65500433I65713466I65913464I66126968I66334740I66584129I66947062
1687I67386241I67779484I68087765I68401699I68787875I69193131I69568551I69947503
1679I70324413I70608666I70786834I70955816I71129195I71189186I71101554I71018399
1671I71093074I71288989I71449019I71503356I71534136I71599704I71595307I71390362
1663I71048394I70786599I70740506I70828609I70844470I70693235I70532655I70579298
1655I70791781I70928411I70894882I70801361I70729670I70688995I70728492I70896924
1647I71167043I71490635I71816663I72055294I72168917I72236682I72327219I72447988
1639I72694628I73225208I73967878I74569128I74798965I74829589I74932376I75067592
1631I75030451I74871913I74871049I75155145I75617253I76145163I76690897I77139421
1623I77313506I77177583I76965728I76989128I77273852I77492381I77348763I76946332
1615I76693018I76896078I77491125I78140588I78556603I78683339I78618793I78519305
1607I78549457I78711606I78764375I78546552I78312082I78483105I79111446I79832209
1599I80318657I80567890I80726035I80835574I80871224I80885437I80974324I81131684
1591I81243502I81264231I81352413I81693595I82139763I82266263I81952407I81620412
1583I81644676I81813500I81663992I81134512I80634085I80610607I81216097I82248124
1575I83241518I83739432I83688078I83507947I83632877I84116657I84804125I85571844
1567I86170818I86220994I85690964I85075265I84799807I84753635I84667417I84634830
1559I84930625I85489631I85887820I85835996I85507377I85323790I85513659
1552I85964224I86463550I86901866I87166332I87099430I86781883I86656089
1545I87078621I87843435I88363179I88317086I87985248I87894397I88201343
1538I88557837I88578253I88229690I87674375I86961151I86114988I85425321
1531I85332192I85936584I86874148I87769702I88505227I88982646I89106791
1524I89099331I89282840I89523198I89437373I89086925I88892109I89042402
1517I89490454I90255189I91235077I91966047I92004681I91426909I90702613
1510I90251262I90323426I91085962I92463019I93982203I95054670I95408023
1503I95126832I94416043I93482797I92589441I92108724I92357249I93179620
1496I93877375I93890960I93417623I93045895I93015114I93194147I93544908
1489I94175134I94970572I95495027I95389335I94795701I94301870I94468732
1482I95401663I96662899I97564892I97682441I97156887I96474365I96041782
1475I96026863I96402281I96961443I97400465I97521390I97336389I96987905
1468I96636436I96370085I96119834I95765852I95427575I95482699I96118892
1461I97014603I97635720I97738349I97534032I97509847I98022367I98866331
1454I99377202I99137079I98414353I97799361I97608158I97708982I97780752
1447I97712201I97743531I98117379I98697193I99138806I99350661I99560317
1440I99949556A000365021A000447391A000025644I99323728I98733549I98490442
1433I98599353I98895699I99119411I99121688I99021493I99009400I99089650
1426I99162519I99202410I99211911I99166839I99074103I98955612I98799980
1419I98650158I98655890I98916665I99347913I99745239I99895610I99665931
1412I99151684I98693110I98591030I98850156I99302212I99812062A000182847
1405A000083123I99440256I98773046I98690676I99133624I99585131I99860982
1398A000055169I99953638I99242378I98115809I97285743I97473177I98702611
1391A000116653A000830034A000670082A000132828I99952461A000445899A001260104
1384A001939013A002455380A002921100A003103980A002654358A001700775A000944520
1377A001063954A001961864A002787768A002923063A002621142A002475247A002608500
1370A002640930A002316709A001865045A001645102A001714438A001935950A002269203
1363A002715213A003159888A003471075A003599853A003495103A003167427A002935077
1356A003254352A004092663A004779896A004754219A004241856A003952107A004301848
1349A005172510A006218044A007084073A007448813A007278810A007093653A007508255
1342A008334944A008621632A007857839A006723889A006338419A007051486A008161644
1335A008706750A008473380A008089403A008013157A007953637A007702834A007799496
1328A008637886A009637248A010113097A010267787A010613681A011133031A011587757
1321A012028821A012576440A013163792A013633045A013752243A013389781A012988686
1314A013342511A014558282A015882964A016802781A017644155A018810693A019999922
1307A020558378A020485980A020654176A021607365A022487844A022002572A020277737
1300A018662598A017889775A017566261A017089234A015948688A013654639A010405124
1293A007187488A004357756A000815585I95254118I87699424I79506888I72352974
1286I67456519I65369143I66024417I68706133I72223334I75638925I78800024
1279I82101601I86190291I91612930I97733088A002396959A003923995A003094479
1272A002299355A003162794A005497281A007819912A008581035A007575235A005981454
1265A004755711A004232434A005529083A009897002A015503384A018060249A016407968
1258A013384756A011230636A010039599A009889306A011475156A014267117A016180880
1251A016078172A015134719A014973197A015710528A016413701A016493480A016216529
1244A016346171A017278945A018321573A018269825A016854293A015025572A013832023
1237A013635637A014282430A015285718A015897726A015682259A014988665A014382861
1230A013847177A013105763A012464074A012535216A013185386A013552638A013296575
1223A013168268A014061859A015901181A017685223A018441949A018068729A017333990
1216A017085936A017487110A018103515A018568449A018787842A018643045A018091108
1209A017579138A017676350A018237711A018589415A018461972A018119376A017866375
1202A017953536A018472887A019007157A018985406A018560990A018562089A019504836
1195A020982010A022089654A022439081A022557965A023080771A023910916A024502037
1188A024484212A023653361A021980743A020098076A019305073A020498858A023123252
1181A025717180A027382652A027984138A027420029A025875875A024584563A024900070
1174A026382034A027042883A026083646A024967050A024952759A025368223A025282319
1167A025114751A025575210A026596951A028034785A029756401A030647793A029507954
1160A027309468A026454746A027768514A030006104A031725050A032353391A032206788
1153A032436939A033883882A035375897A034774254A032089946A029890204A030167626
1146A032368467A034824744A036488253A036942901A036105532A034415325A032768463
1139A032067646A032561791A033449413A033594917A032925901A032710042A033999311
1132A036131602A037627307A038265934A039058074A040341689A040970343A039776952
1125A037364255A035616334A035525875A036450954A037302065A037714309A037850391
1118A037732371A037405480A037205639A037222757A036952952A035985706A034578417
1111A033177646A031913819A030921839A030670487A031404833A032586682A033374660
1104A033482472A033430255A033764212A034172689A033988553A033366415A033108782
1097A033515452A034214778A034865183A035379744A035726030A035912915A035983978
1090A035985706A036105061A036607529A037488478A038325455A038567932A038054472
1083A037254244A036873329A037288559A038413400A039896149A041236458A041984468
1076A042135467A042095813A042079951A041951331A041766566A041850193A042188941
1069A042418700A042511828A042730828A043087872A043471614A044081109A045134966
1062A046373273A047287516A047618569A047480368A047312015A047689789A048645727
1055A049337750A049263860A048891974A048827430A049178584A049614858A049830089
1048A049868565A049935153A050034485A049964599A049592871A049005520A048440546
1041A048155901A048276277A048639446A048916396A049077996A049285060A049405516
1034A049122519A048482478A047938393A047840553A048336740A049375912A050399773
1027A050863373A050984377A051147783A051245073A051136319A051107972A051451353
1020A052023707A052418442A052460608A052395042A052588444A053096880A053679442
1013A054153721A054415987A054432948A054512492A055212210A056660566A058237229
1006A059281191A059692966A059735446A059670587A059632268A059734033A060105997
999A060796842A061764950A062856263A063890332A064876109A065886936A066767414
992A067361440A067839880A068507090A069533542A070741382A071560925A071787464
985A071831124A071957153A072101792A072401358A073092987A073741823A073672566
978A073021689A072231120A071326614A070178844A068800530A067161833A065151018
971A062829251A060409959A058048931A055762499A053419766A050833142A047899759
964A044688327A041146628A036478280A029310861A019858032A009195085I96592071
957I81420335I63859853I43266028I19265014H94239825H70669823H46983450
950H19475286G90865916G71948871G65492085G66899844G73374612G83679181
943G97172959H14401682H34461079H52822025H67876525H84340670I04980588
936I23546478I36735509I47144434I53941931I55821300I53254934I45722775
929I32603395I12439483H76537530H17077980G60679491G36306670G34904643
922G43688850G58702911G79271687H01313004H19046237H32967023H47508847
915H62899819H75012771H83331022H90591882H98965258I08061201I15750169
908I21247640I25083330I28161037I32835823I42006756I50689197I54413776
901I56346069I59280865I63185890I66302937I68585128I70796650I73023325
894I75097981I77526225I81483154I86302421I89611929I91511871I93491199
887I96537026A000542483A004756025A009223275A014653294A020496738A025428058
880A029797938A035111745A040919775A043723594A041337124A032762652A016186141
873I91968403I65754298I44094289I26597331I05228877H72362621H30415498
866G91712394G68263003G64081969G75093873G93320230H12190475H29217473
859H44646528H59073787H72481348H84475808H94715517I03094466I09728871
852I15096858I20393075I27021277I33948808I38460894I40510579I41152033
845I40476108I38622730I36989295I36725144I37516498I38105027I37005392
838I31838268I21775000I12058648I03977928H96478436H90805701H88744160
831H90613791H94955640I00076279I05511325I11270827I17049724I23687663
824I31688603I37278967I39402620I40593185I42872314I46393598I49482142
817I51410037I53030908I55134931I57470282I59401162I61002324I62451701
810I63375680I63845954I64590038I66017271I67860990I69659716I71064099
803I71888433I72452384I73789867I75859810I77119947I77621395I78035211
796I78742545I80092198I82468146I85416919I87798440I89464149I91283919
789I94077373I97279539I98980033I98066575I94333593I87626790I78285463
782I67707242I57405501I47936024I39546945I32980697I28766999I25883086
775I22592895I18420657I13850699I09832992I07555670I07224617I07849817
768I08802222I10391213I13505589I17812182I21590864I24790282I27965201
761I30970118I33335543I34967408I36288478I37872993I40095428I42767486
754I45180497I46942787I48459694I50262817I52181761I54027757I56226793
747I59166850I62450915I65189561I67232728I69206560I71460954I73782800
740I76396044I80272330I85339809I89692258I92128276I92481865I90366535
733I85036789I75775005I61848252I42238555I17602055H93391934H76625474
726H70417136H74432172H85702102H99813149I14158351I27456922I38217473
719I46272751I52930634I59303715I65196549I69428230I71240619I70653267
712I68075201I64386585I60883047I58586015I57605185I56978101I55031909
705I50200470I41608409I29969578I18216261I09442655I04340469I00721345
698H94741194H84112247H69831826H55385328H45819269H45287118H53884205
691H68104792H83973497H98753639I11147703I21105278I29199189I36049533
684I42241147I48245326I54145306I59732529I64953599I69995794I75109366
677I80422622I85807413I91019689I95964437A000672673A005100347A009122844
670A012675615A015743429A018192794A019775347A020403452A020217981A019291332
663A017402462A014029586A008558892A001057593I92931016I85807178I79793183
656I74492097I71678149I74504426I83238770I93727867A000911933A002319536
649I97646163I86852475I70233797I50179190I31660884I19541963I14915863
642I14328747I12380669I04832337H89845444H67642527H39821842H08801816
635G77481442G48749262G24238555G03238845F83606613F64268370F46676597
628F33792981F27930064F29329775F36227664F46080568F56812890F67268890
621F77019400F85963244F94041451G01255512G07868402G14421457G21429632
614G29104622G37362255G45932250G54390980G62296200G69478853G76123780
607G82474089G88556242G94229526G99222801H02945653H04709436H04705353
600H04559143H06301175H10746045H17111902H24021687H30569010H36550968
593H42074194H47193420H51949006H56529643H61144202H65742585H70038969
586H73791503H76873686H79026550H79779743H78975432H77443999H76800660
579H78263621H81748235H86200330H90545869H94123846H96507175H97096411
572H94594984H87107348H73945644H57878668H44532827H38602380H40753281
565H48006133H56173542H61719854H62384944H57327986H47291181H34547140
558H22127635H12513676H06796183H04833816H05919710H09374171H14787701
551H21832467H29964776H38483104H46830879H54740655H62154636H69074393
544H75460195H81270815H86544417H91327172H95559717H99121833I01907670
537I03769999I04445061I03543382I00560609H94927843H86168685H74213486
530H59866241H45138710H32815395H24978254H21428231H19523813H15706576
523H07355660G93781317G76479567G58915786G45315060G38347482G37109568
516G37337598G34308811G26530326G17139373G11544847G13344829G22213997
509G35138641G48978863G61901387G73270334G82989827G91103448G97786694
502H03437285H08560123H13434043H17858812H21305342H23485610H24846649
495H26349500H28614887H31408184H34111966H36571619H39242421H42551614
488H46326134H49858411H52454380H54020442H55206374H56885745H59467502
481H62757142H66337947H69896058H73301441H76578911H79762311H82709591
474H85159979H87033851H88587192H90188432H91935804H93522517H94466756
467H94298638H92305803H87285360H78132881H64990099H49593553H34354681
460H21283277H11659896H06061208H04249919H05185677H07413844H09785396
453H12280698H16083722H22241100H30204899H38176864H44740599H49690450
446H53579222H57049700H60563525H64411229H68703686H73164026H77104858
439H80049234H82431071H85298494H88958998H91879503H91489951H86801816
432H80030624H74832561H72841218H71967415H67444021H54900763H34431240
425H12491218G98249352G96733544H05685633H18814751H30996488H40331847
418H46823734H50579173H51336606H48809894H42956950H34309059H24591921
411H16863848H14251232H17940162H26408549H36711076H46393193H54409838
404H60976241H66974140H73178710H79653007H85851688H91300318H96024180
397I00250522I03893122I06404680I06441586I01227976H88040044H68642753
390H51053766H43597069H47069747H55000801H61142161H64484804H67544295
383H72348172H78776768H85484279H91397843H96272941I00290726I03647661
376I06511236I08991227I11096349I12853379I14385126I15825551I17283723
369I18868709I20611055I22396274I24075488I25594043I26971649I28201712
362I29162205I29628082I29475040I28741244I27247658I24526995I20735199
355I17267939I15517584I14856028I12338975I04976897H93129903H81885179
348H77840932H83490188H95310327I07528580I16624208I22203186I25282307
341I26712132I26587359I24348826I19399602I12121623I04551303H99498350
334H98398793I00148992I01964599I00900770H95082376H84351741H69256802
327H49674274H26982631H07946623H02358772H14159124H36914686H59439076
320H73833199H77599474H71288661H57042398H39347877H25278368H21569179
313H30004430H45994846H62083101H72175186H72577381H61004667H36499143
306H00730127G58987870G19304722F89756610F75518041F76942134F89013703
299G03161343G11735501G12264431G08108761G05462066G09355234G21193984
292G38680262G57568410G74320656G88302063H01536794H15903276H30945292
285H44732196H55948966H64421828H70321101H73807993H75294982H74909042
278H70644774H57755151H32821441H00271553G72901511G62945193G72601788
271G94169927H17863524H37962104H53305882H65044987H74649131H82967068
264H90267583H96601010I01784232I04659115I01643519H87048456H58648036
257H24477277H00044544G95178240H05635221H19368652H27668449H28440881
250H22896296H12977982H00429542G85487329G66853045G44554408G22435589
243G06377879G00367182G04778130G16893124G31611547G42806880G46705623
236G45019657G43596742G47239893G56235091G67628615G78495409G87653306
229G95470895H02963792H10941254H19508344H28140766H36276452H43740687
222H50438617H55986499H60040405H62382195H61779453H55269743H40543154
215H20140140H01907265G93528159G96301747H05731018H17845071H31493067
208H44134715H52466002H57515655H61708704H66227072H71209747H76273849
201H80807216H84363285H87023879H89262961H91549864H93953294H95957986
194H96932534H96702305H95196234H92027362H87402673H82894513H79631491
187H75981509H69557938H62037715H59062009H63996156H74365113H85345764
180H94199385I00560059I04861233I07707612I09602291I10734122I11331368
173I11820095I12441604I13303551I14673070I16474543I17794122I17703035
166I16496450I15463325I15371767I15661909I15291438I13876925I11543773
159I08004664I02243277H92584404H76828614H54158564H28706524H09070600
152H01209745H02400704H03322171G97272840G87441922G83395791G91036311
145H08122044H28354270H46485849H60337222H70384077H77847136H83240721
138H86695338H88718404H89753337H89546899H87845386H85564686H84663714
131H86727454H91797446H98320192I03970233I06972715I07150648I05468844
124I02484892H98040336H92706741H88469643H87365689H89976970H95225288
117I01070301I05639317I08273684I09709712I11216332I13473160I16206231
110I18635495I19886523I19281347I17009756I14206094I11800385I09595224
103I06688461I03108522I00462926H99788414H99627834H97423695H92490883
96H86639038H81920671H79123839H78649012H81228884H86713163H93180550
89H98645434I02662119I05591340I07261130I06999335I04885654I02108297
82H99715937H98024396H97362603H98180814I00090570I01897855I02993250
75I03767487I04586403I05277483I05814659I06297182I05736843I02748573
68H98063893H94065504H91922769H90925999H90703229H92126301H95729170
61I00649890I05063351I07687117I09190439I11130585I14124508I17482150
54I20290131I22050380I21817324I17877042I09536569H99364783H92027047
47H90184035H93346940H99358265I05518391I09967110I12462255I13801072
40I15384252I18659995I23542552I27450247I27417975I23609688I19221355
33I18059215I20848429I23667718I24162491I22953316I21339355I20551456
26I21568878I24592247I28270420I30285947I29386153I26195294I22171384
19I19083704I18898469I21040340I22535417I23302194I24873752I26432040
12I25484347I21503704I16752986I13365505I11260540I09908218I10169464
5I13328756I20520832I32384002I44969898I48994042
##END=


$$ === CHEMSPECTRA PEAK TABLE AUTO ===
##TITLE=S. Marschner STM156
##JCAMP-DX=5.00
##DATA TYPE=INFRAREDPEAKTABLE
##DATA CLASS=PEAKTABLE
##$CSTHRESHOLD=0.93
##MAXX=3997.453
##MAXY=0.8150482227991326
##MINX=373.96442
##MINY=0.4766446381639598
##NPOINTS=168
##PEAKTABLE= (XY..XY)
3976.205021618452, 0.7414345789740129
3970.5388940500393, 0.7411029385451783
3950.707447560594, 0.7418062134310608
3936.542128639562, 0.7407890004533456
3925.2098735027366, 0.7418295192435462
3919.543745934324, 0.742389623888589
3911.0445545817042, 0.7419955778068259
3906.7949589053947, 0.741452460452198
3894.046171876466, 0.7421325494590991
3886.96351241595, 0.7423559476233733
3881.297384847537, 0.7426500367202973
3874.214725387021, 0.7422782823297454
3865.715534034402, 0.7439032241806027
3854.383278897576, 0.7413886831547019
3841.6344918686473, 0.7428963232070115
3831.718768623925, 0.7449212713793361
3823.2195772713058, 0.740708713322232
3809.054258350274, 0.7439168138611202
3801.9715988897574, 0.743706767028501
3796.3054713213446, 0.7457703398616896
3787.8062799687254, 0.7444196388719203
3780.7236205082095, 0.7451986122937801
3772.2244291555903, 0.7454055590730433
3760.8921740187648, 0.7437019992921814
3752.392982666145, 0.7426792428057348
3745.310323205629, 0.745091979263577
3738.227663745113, 0.7465350077973721
3726.8954086082877, 0.745511893787632
3712.7300896872557, 0.7446176452916273
3702.8143664425334, 0.7469452069485321
3691.4821113057073, 0.7436150361157038
3677.3167923846754, 0.744094912837312
3658.901877787334, 0.7474183484170973
3650.4026864347147, 0.7454566408777922
3637.6538994057855, 0.7463115496663459
3630.5712399452696, 0.7477179218150735
3620.655516700547, 0.746245865577951
3614.9893891321344, 0.7475514457617483
3607.9067296716185, 0.7469713737064384
3597.991006426896, 0.7474870725920962
3589.491815074277, 0.7476514627133395
3576.7430280453477, 0.7479065104184267
3568.2438366927286, 0.74626136280844
3561.1611772322126, 0.7466438459340884
3555.4950496638, 0.7467221663075514
3548.412390203284, 0.7477698370817678
3538.4966669585615, 0.7463027884479729
3528.5809437138387, 0.7459977914747693
3514.4156247928067, 0.7460232424270158
3503.083369655981, 0.74717802292916
3497.4172420875684, 0.7466933177454074
3488.9180507349492, 0.7466244743959772
3484.6684550586397, 0.7465658231171669
3469.086604245504, 0.7470337201516878
3456.3378172165753, 0.7477302597845271
3449.2551577560594, 0.7472996165253755
3435.0898388350274, 0.7458360839168365
3426.590647482408, 0.7461515712762744
3403.9261372087567, 0.7457222981435447
3368.512839906177, 0.7474980996428071
3355.7640528772477, 0.7481460024444185
3347.2648615246285, 0.746946577834027
3338.7656701720093, 0.7465408488626452
3311.851564222048, 0.7401800798358917
3284.9374582720875, 0.7457639621319401
3272.1886712431588, 0.747124736017898
3267.939075566849, 0.7472080632356157
3258.023352322127, 0.7494746493327661
3248.107629077404, 0.7487344189871288
3236.7753739405784, 0.7486975834608779
3228.2761825879593, 0.7493169952236388
3219.77699123534, 0.7505331680165102
3211.277799882721, 0.7502317477943873
3204.1951404222045, 0.7502840805511272
3192.862885285379, 0.7502799678946426
3177.281034472244, 0.7519286914966372
3170.198375011728, 0.7522984191627864
3164.532247443315, 0.7522972274184746
3151.7834604143864, 0.7530496165923826
3136.2016096012508, 0.740689640099735
3124.869354464425, 0.7437407423684038
3117.7866950039092, 0.7444722099775225
3096.538716622361, 0.7442169231645002
3078.1238020250194, 0.7478210373018751
3052.626227967162, 0.7506693054477652
3042.7105047224395, 0.7512503308985244
3018.6294625566848, 0.7552484319099834
3011.546803096169, 0.7552487894332768
3003.0476117435496, 0.7535411762036096
2953.4689955199374, 0.6774773637631682
2919.4722301094607, 0.5966047681409161
2850.0621673964033, 0.6382070818703837
2740.9892117044565, 0.7370736646906312
2725.4073608913213, 0.7368627236702419
2719.7412333229086, 0.7367049503866833
2709.825510078186, 0.7368236230707259
2680.0783403440187, 0.7399981065520777
2668.7460852071927, 0.7415881204266557
2660.2468938545735, 0.7413811136806405
2650.331170609851, 0.742767398485597
2643.248511149335, 0.7426101011406904
2616.3344051993745, 0.7451213644901977
2607.8352138467553, 0.7443548489712957
2599.336022494136, 0.746554140986621
2582.3376397888974, 0.7474095272319723
2573.838448436278, 0.7479324980351498
2562.5061932994527, 0.7489438099808401
2554.007001946833, 0.7498837759140455
2541.2582149179043, 0.7479388757648995
2531.342491673182, 0.7507984085512901
2524.259832212666, 0.7506411119654562
2511.511045183737, 0.7516728088114589
2495.929194370602, 0.7530827569521944
2486.0134711258797, 0.7537707729564503
2474.6812159890537, 0.7547475144491547
2461.932428960125, 0.756056909732895
2446.3505781469894, 0.7556020065067357
2436.434854902267, 0.7571826025649601
2426.5191316575447, 0.7572572277719839
2422.269535981235, 0.7573362039843547
2403.8546213838936, 0.757926945567082
2347.1933456997654, 0.7570124913119478
2192.791369460516, 0.7327854680643018
1714.0035899296322, 0.5810642279937088
1680.0068245191555, 0.5578461324440568
1596.4314428850662, 0.5799938472791628
1565.267741258796, 0.7110425872537346
1551.1024223377635, 0.6746215269022896
1463.277445027365, 0.6886495393273637
1400.950041774824, 0.6607099812956722
1354.2044893354182, 0.6416344679170616
1300.3762774354964, 0.7375744629770287
1260.7133844566065, 0.4766446381639598
1222.4670233698198, 0.6107189694882018
1194.136385527756, 0.6655555407960546
1175.721470930414, 0.6365602650592878
1158.7230882251756, 0.610927466294143
1104.8948763252538, 0.5595198310596461
1097.8122168647378, 0.54011434645331
1019.9029627990617, 0.6104842459576023
971.7408784675526, 0.6047787700653386
953.3259638702107, 0.6180759707202019
923.5787941360436, 0.6403515976735938
865.5009865598122, 0.6663451829862589
845.669540070367, 0.6819500963031183
831.5042211493351, 0.6090487276901893
817.3389022283031, 0.6236308253129229
800.3405195230648, 0.5127673775875652
790.424796278342, 0.5354970727870254
759.2610946520717, 0.5791309515265023
733.7635205942138, 0.6035981810876544
715.3486059968723, 0.5316296848725214
705.4328827521499, 0.564444068456785
674.2691811258792, 0.6023456494662568
633.1897562548866, 0.6520906131358752
604.8591184128222, 0.6948338193713552
587.8607357075839, 0.6081765332956062
580.7780762470679, 0.5946544444165427
559.5300978655196, 0.6715241712910163
542.5317151602812, 0.6735751670468161
504.28535407349455, 0.6669585745425637
485.870439476153, 0.6811635534071971
463.20592920250147, 0.6761086029131035
439.12488703674717, 0.6757144968645883
419.29344054730245, 0.6968737880764441
410.79424919468283, 0.6987655804555113
398.0454621657541, 0.6975108429685278
382.46361135261895, 0.6906865878793526
##END=

##END=

