##TITLE=X8449
##JCAMP-DX=5.0
##DATA TYPE=LINK
##BLOCKS=1


$$ === CHEMSPECTRA SPECTRUM ORIG ===
##TITLE=X8449
##JCAMP-DX=5.00
##DATA TYPE=INFRARED SPECTRUM
##DATA CLASS=XYDATA
##ORIGIN=ComPlat
##OWNER=
##XUNITS=1/CM
##YUNITS=TRANSMITTANCE
##XFACTOR=1
##YFACTOR=8.8998065e-010
##FIRSTX=3997.453
##LASTX=373.96442
##MAXX=3997.453
##MAXY=0.9556094455657249
##MINX=373.96442
##MINY=0.6230627325715695
##NPOINTS=2559
##XYDATA= (X++(Y..Y))
2559I54436380I53980227I53634512I53554011I53686283I53752921I53652528I53634713
2551I53896578I54251133I54373827I54201238I53929060I53681661I53366085I52906516
2543I52461012I52237456I52272081I52594556I53303197I54203984I54714652I54421512
2535I53534991I52727832I52593016I53120964I53708518I53814201I53536129I53388789
2527I53593994I53811723I53630092I53201733I53065041I53353427I53705169I53867110
2519I53921358I53927184I53809379I53577117I53287191I52904976I52508429I52520685
2511I53299112I54481653I55135176I54624708I53458909I52886625I53405063I54322995
2503I54686926I54293526I53727605I53466544I53489650I53671013I54002931I54418297
2495I54666030I54427472I53617701I52635343I51955701I51596994I51434383I51538192
2487I51857921I52075114I52001511I52005529I52597838I53554815I54128505I53912718
2479I53392137I53082253I52609357I51777821I51392659I51835016I52468379I52858028
2471I53159741I53166504I52434424I51792153I52432214I53902002I54779214I54339872
2463I53164697I52176712I51904802I52391762I52958018I52205710I49822612I48409616
2455I49044185I50432401I51712455I52600182I52949178I52955139I53237095I53925644
2447I54116986I53163358I51929916I51444697I51715067I52390690I53177824I53599285
2439I53242721I52539036I52526847I53313444I53657752I52845705I52094201I52010418
2431I51729466I51276930I51798783I53346261I54820001I55177904I54147124I52767480
2423I52448890I52953598I52824809I51602887I50595279I50536812I50960416I51502830
2415I52239332I53183784I54109619I54722153I54810357I54359495I53753055I53665186
2407I54211016I54535701I53869186I52815165I52519078I53048834I53810450I54450645
2399I54863399I55045298I55135377I55119906I54811763I54371214I54187106I54267943
2391I54353065I54467522I54828038I55314395I55467897I54657525I52698096I51111909
2383I51522453I53227116I54288503I53508938I52183476I51795033I51915115I51683389
2375I50859354I49847056I49264057I49583652I50835511I52447216I53643152I53994023
2367I53733766I53456096I53297973I52981794I52666619I52923393I53935087I55297920
2359I56345444I56331045I54989911I53389525I52648335I52600986I52776455I52960229
2351I52922992I52593485I52453846I52900824I53671147I54402692I55101689I55780728
2343I55990956I55169131I53683872I52708879I52548345I52693877I52800364I52884616
2335I53136167I53536330I53511952I52512246I51506982I51757595I52432013I52191446
2327I51433245I51657002I52856956I53988532I54418029I54212355I53770535I53296835
2319I52716581I52203032I52322244I53188874I54211752I54599258I54050615I53507532
2311I53929528I55044695I56146066I56770388I56836758I56463852I55691855I54561150
2303I53445649I52976436I53288061I53498959I52456525I50829484I50601909I51900314
2295I53798395I55594878I56637379I56414560I55394428I54572536I54015990I53271452
2287I52401339I51811441I51604494I51745138I52322713I53206890I53943191I54147592
2279I53890684I53763034I54249860I54990179I55066261I54286695I53715415I54236733
2271I55324173I55576528I54553114I53570352I53515033I53954174I54382467I54826430
2263I55400188I55880987I56042927I56095903I56420588I57002717I57380110I57104985
2255I56382949I56055451I56358169I56643876I56375515I55712014I55306359I55551882
2247I56158590I56560227I56624186I56773669I57250517I57659655I57516132I56929716
2239I56518034I56694574I57335439I57989698I58196309I57775585I56952286I56215249
2231I56011919I56453472I57213481I57807598I58030953I57992644I57814362I57545131
2223I57293246I57281124I57722475I58559637I59389834I59828842I59841634I59594370
2215I59247249I58988465I58922162I58869387I58574305I58058144I57584913I57383190
2207I57563950I58103686I58726534I59044522I58992551I58918412I59151009I59643796
2199I60095662I60304082I60255125I59977857I59528937I59059658I58708518I58528562
2191I58602634I58967436I59392513I59587472I59628191I59800513I60092917I60228269
2183I60136114I60071016I60263899I60660981I61031141I61228778I61266283I61185915
2175I61033150I60944075I61052371I61290326I61468541I61520111I61517231I61538595
2167I61690892I62088443I62637354I62999142I62957417I62680752I62454049I62294318
2159I62084894I61941103I62098757I62528857I62990033I63383901I63762232I64055774
2151I64091471I63896713I63727874I63763370I63959601I64217112I64466117I64551977
2143I64307124I63799268I63307753I63079844I63229194I63730754I64412606I65086153
2135I65633255I65874023I65635198I65083876I64659134I64603077I64871974I65372128
2127I65953721I66376387I66541610I66531966I66359309I65982787I65572712I65450352
2119I65749386I66310553I66868907I67244960I67440253I67630724I67977778I68371780
2111I68495881I68197449I67669568I67212679I66959521I66836157I66660219I66295551
2103I65818636I65457719I65348955I65474529I65795799I66236950I66587754I66651110
2095I66506516I66471623I66781239I67350308I67860508I68087480I68125654I68242455
2087I68520393I68742743I68693049I68472641I68377473I68504119I68656147I68651191
2079I68535864I68438417I68384639I68336284I68252836I68045689I67655035I67234713
2071I67081077I67321510I67837804I68485165I69180612I69778681I70112272I70181724
2063I70091579I69834135I69373628I68870863I68573369I68537605I68655611I68868853
2055I69213696I69681570I70073831I70045970I69446897I68608395I68055934I67901563
2047I67772707I67359282I66806957I66516763I66701474I67212277I67791995I68353965
2039I68878966I69201575I69166079I68885262I68622326I68513294I68529769I68539614
2031I68337356I67831911I67234110I66854239I66735496I66684463I66599340I66548709
2023I66584941I66664237I66713931I66668724I66505913I66327564I66328033I66590634
2015I66963205I67186827I67134990I66919203I66773470I66816936I66920811I66818476
2007I66365672I65718847I65242468I65148974I65253184I65204360I64932450I64692017
1999I64693625I64903518I65210589I65524290I65641895I65308972I64609774I64064882
1991I64099440I64560348I64949997I65024940I64975447I65083474I65372730I65590192
1983I65475132I65002504I64402359I64005812I64058319I64537979I65096869I65308169
1975I65047979I64559545I64183357I64153019I64517017I65043893I65316272I65100084
1967I64540725I63901870I63290943I62724418I62296059I62174102I62490080I63198252
1959I63980965I64420040I64389969I64185300I64135070I64198159I64065083I63596406
1951I63047697I62826418I63047161I63409351I63578592I63524009I63364747I63136570
1943I62926610I62954136I63228725I63390933I63188541I62869750I62852672I63189747
1935I63553276I63609667I63274936I62690262I62079000I61638452I61485552I61610993
1927I61888596I62194595I62484923I62742903I62966593I63239173I63613752I63855659
1919I63554213I62662736I61716140I61287915I61371765I61496402I61304056I60824462
1911I60321227I60035923I60007794I60099212I60177972I60175159I60030229I59792610
1903I59689337I59825159I59973437I59904790I59715859I59605019I59517753I59203382
1895I58539613I57730244I57161778I57028970I57140480I57083687I56553060I55580747
1887I54503420I53641946I53068859I52734396I52598575I52515327I52255807I51823095
1879I51555203I51816263I52663404I53775089I54680362I55155268I55341720I55407689
1871I55273006I54834132I54264460I53882446I53798864I53832551I53750644I53530436
1863I53386779I53569147I54137747I54910481I55623944I56184775I56703146I57212007
1855I57528924I57550623I57472130I57518007I57660124I57753149I57756766I57722475
1847I57721672I57776924I57765807I57510372I57015107I56447913I55886411I55229942
1839I54317034I53073078I51636843I50298522I49199964I48187467I47040957I45716566
1831I44349045I43160275I42330614I41849346I41533234I41207477I40790571I40276553
1823I39765817I39429211I39302833I39167615I38727268I37835790I36472422I34592892
1815I32157688I29235591I25940186I22310452I18381215I14295663I10231207I06286902
1807I02587114H99435366H97175430H95860215H95219954H95031492H95372585H96425802
1799H98168104I00357584I02757694I05340640I08251353I11505703I14798027I17764126
1791I20353033I22711352I24794948I26374372I27426383I28265219I29157098I29912821
1783I30035918I29279726I27961162I26720622I26061742I26116258I26764288I27896600
1775I29449569I31221741I32881398I34228024I35294769I36191202I37004321I37792191
1767I38508065I38977947I39077737I38905014I38702621I38563853I38195636I37075312
1759I34922667I31912768I28346725I24302429I19803319I15212992I11237543I08491451
1751I07141142I06945983I07513779I08473234I09548217I10620856I11747408I13059409
1743I14636421I16446433I18372709I20289074I22110270I23765440I25174551I26313627
1735I27242743I27947634I28242181I28036641I27628573I27466500I27674853I28039654
1727I28395683I28820090I29521096I30646041I32087099I33487637I34610372I35594875
1719I36669791I37799491I38801206I39608029I40264632I40855133I41486822I42167200
1711I42744507I43113059I43355167I43566265I43736912I43878091I44065549I44319979
1703I44577624I44746128I44742579I44596711I44501007I44588608I44719473I44676677
1695I44497859I44427404I44594567I44896014I45170603I45352568I45440705I45407285
1687I45156538I44496721I43209165I41273848I38956047I36559620I34234587I32117504
1679I30471778I29548823I29390566I29769097I30277958I30579135I30620324I30532455
1671I30372189I30104900I29787649I29587534I29570924I29582846I29457472I29273497
1663I29242355I29396862I29618743I29930904I30531986I31518163I32738813I33922493
1655I34867481I35553285I36139298I36819409I37629982I38424885I39064811I39559072
1647I39996941I40441374I40919895I41409066I41830393I42146706I42408236I42642306
1639I42809538I42918101I43052717I43270446I43565462I43910975I44278121I44634484
1631I44940885I45155802I45283787I45398713I45567819I45785616I45994772I46126776
1623I46159459I46179751I46287712I46443558I46580986I46821888I47328807I47982597
1615I48474513I48678178I48703628I48670207I48665252I48813262I49160249I49570660
1607I49913695I50240456I50622805I50957000I51102800I51111574I51123026I51117066
1599I50990688I50818299I50795127I50949901I51141042I51300839I51474902I51662962
1591I51767574I51698458I51479121I51238889I51081972I51015200I51045739I51208618
1583I51452064I51701807I52043637I52569977I53100470I53382359I53515234I53856729
1575I54483059I54959506I54773388I53953973I53123107I52877383I53292079I54077271
1567I54907602I55454369I55469773I55069274I54630936I54263857I53736512I53031689
1559I52550421I52585314I52941744I53249284I53387449I53453284I53502844
1552I53525012I53647170I54127300I54963725I55731704I56067506I56083379
1545I56026787I55862569I55532660I55309038I55534870I56196831I56907749
1538I57203368I56880558I56187857I55631178I55528910I55801892I56126577
1531I56203395I55980375I55718577I55752332I56168569I56776750I57298670
1524I57487199I57222187I56675956I56280547I56360245I56848009I57426857
1517I57857359I58151772I58532915I59184361I59932315I60291960I59946179
1510I59048741I58047361I57437840I57582635I58396290I59275512I59680162
1503I59639242I59436247I59134132I58698338I58211646I57701312I57108132
1496I56580117I56434518I56743331I57257080I57740491I58148022I58531576
1489I58949152I59363179I59574412I59418901I59023291I58695325I58602031
1482I58682533I58789824I58789087I58589240I58205685I57821127I57748059
1475I58174677I58867177I59322259I59356750I59320316I59551306I59913898
1468I60101623I60107717I60098676I60046437I59787386I59370144I59126965
1461I59347842I59968615I60639080I61076816I61267689I61324616I61285571
1454I61107021I60748046I60179379I59427875I58697602I58310163I58387651
1447I58697669I58946808I59077941I59167216I59250330I59383740I59630133
1440I59868959I59835940I59428277I58863360I58551668I58794512I59458817
1433I60015094I60079120I59802187I59561888I59467121I59381262I59233453
1426I59051822I58821702I58546109I58347869I58316124I58321348I58101208
1419I57413931I56076548I54070105I51670731I49285153I47084958I44880677
1412I42365842I39552709I36956971I35039602I33533916I31952148I30551476
1405I29938673I29964926I29850871I29256218I28742536I29223937I31245583
1398I34695562I38723718I41971170I43288461I42332690I39784503I37041960
1391I35164908I34317432I34378981I35232953I36577368I37936250I38866705
1384I39258363I39382732I39471002I39487344I39438587I39463970I39587937
1377I39853016I40617713I42177246I44161521I45929206I47400736I48881374
1370I50244877I51036765I51374778I51921746I52901225I53923501I54792207
1363I55700896I56622377I57229420I57492556I57822600I58555083I59637233
1356I60786489I61716274I62278780I62548748I62749399I63075893I63591584
1349I64167083I64501680I64382870I63947546I63533050I63337020I63358652
1342I63497554I63561447I63333939I62824476I62406699I62559196I63398568
1335I64582048I65703443I66488500I66565988I65619794I63999249I62657579
1328I62282531I62831843I63779578I64403096I64101517I62900222I61507252
1321I60700428I60797606I61635103I62786368I63845144I64696638I65451960
1314I66020895I66019154I65387063I64803929I64920931I65407088I65428854
1307I64877532I64446561I64681636I65527237I66532836I66994481I66243781
1300I64409725I62774380I62810077I64680699I66962334I68009858I67426390
1293I66191609I65685896I66637582I68649718I70596086I71466333I70879516
1286I69261449I67767550I67424983I68187202I69486210I71292605I73546446
1279I75137657I74787121I72526113I69322930I65953989I63139785I61858458
1272I62428465I63776698I64528066I64594170I65021390I66464524I68375865
1265I69671725I69820204I69133865I68268976I67759379I67864460I68357783
1258I68544101I68022650I67161244I66489237I66156515I66268762I67044711
1251I68347871I69628930I70436356I70691255I70637074I70628501I70820044
1244I71162142I71652652I72135929I72025825I70876837I69185835I68106902
1237I68266164I69157172I69795759I69713315I69230172I69069973I69733608
1230I70857883I71334463I70599703I69471409I69079416I69547289I70296784
1223I70874627I70966447I70375544I69379321I68586428I68373454I68779712
1216I69656924I70603989I71089141I70885008I70174357I69275446I68566738
1209I68510280I69190458I69945377I70117564I69998486I70249501I70725545
1202I70852727I70751865I70961558I71486157I72004260I72549286I73262347
1195I73906359I74149404I74051891I73998045I74302102I74934193I75485314
1188I75461203I74719277I73637128I72900760I73073818I74001327I74647281
1181I74127973I72697497I71164017I70027352I69733139I70839399I73222163
1174I75732779I77046052I76569740I74800247I73139719I72903841I74125629
1167I75557377I75863577I74832126I73591652I73366758I73908368I73885263
1160I72931634I72145171I72291574I72799966I72766345I72065272I71344911
1153I71297293I71944721I72653563I72916633I72965590I73440361I74562091
1146I75814017I76450394I76105617I74944172I73451813I72207523I71766037
1139I72410116I73879168I75565413I77022946I78176154I79051825I79459557
1132I79174252I78452484I77888237I77585251I76979949I75869270I75160629
1125I75873690I77627511I79022826I79197960I78300924I77038484I76383756
1118I77028237I78497624I79470875I79430892I79185972I79450046I79848536
1111I79708830I79116923I78809651I79309269I80319958I81018888I80779460
1104I79597588I78140859I77210336I76985575I76997630I76796176I76335669
1097I75832435I75567757I75711481I76135755I76590769I77069358I77635682
1090I77975369I77607486I76566123I75503731I75068608I75259749I75621268
1083I75983994I76427623I76724782I76501695I75873556I75379496I75289083
1076I75427315I75694001I76257378I77061589I77636284I77671780I77500262
1069I77651889I78183655I78795721I79321458I79870503I80468571I80856278
1062I80910727I80942070I81245056I81719961I82177922I82653966I83278288
1055I84037360I84736892I85116428I85012821I84516016I83945138I83614359
1048I83580202I83651395I83730825I83982040I84524521I85241869I85967253
1041I86524267I86595392I86020295I85347753I85306364I85873959I86487499
1034I86669598I86458433I86249946I86259255I86458165I86842188I87410453
1027I88026337I88522606I88818158I88989140I89233658I89653110I90150987
1020I90534407I90678533I90629174I90522620I90386531I90168199I89957970
1013I89902250I89979670I90105646I90229613I90238387I90092587I90037133
1006I90297256I90750931I91061083I90928677I90470515I90305092I90650003
999I91072937I91248674I91328037I91660223I92340066I93140928I93812935
992I94337534I94769979I95003781I94967884I94904527I95065865I95382714
985I95806988I96357372I96900188I97245300I97364378I97492698I97877792
978I98442977I98998116I99554193A000103170A000398253A000352778A000368048
971A000753277A001409009A002293856A003403933A004561761A005525636A006175542
964A006672415A007297004A008101618A009010709A010163113A011533513A012782090
957A013801486A014728995A015618730A016480271A017321652A017928360A017978389
950A017345896A016278950A015444199A015220844A015256943A015167601A015034458
943A014955095A014646551A013969990A013070677A011326634A007097827I99366200
936I88950363I75180654I56907414I37862446I21567856I05865508H88000803
929H69155883H50267564H25397219G87923768G49616570G25612856G12474032
922G04335410G00085707G00801046G06986200G17633429G32191276G50729326
915G70533902G87200594H00242240H11704529H22853117H33239888H41946508
908H49095671H55099797H60068388H64539168H69680817H74876982H78848746
901H82164779H85505324H89104250H92910592H96754103I00500102I04059916
894I07345744I10438891I13779368I17485451I20873480I23659957I26006757
887I28059210I30042347I32157755I34329555I36416968I38377870I40121645
880I41589290I42846105I44038492I45376478I46948266I48599284I50128478
873I51500084I52758841I53833690I54564834I54721350I54020411I52303827
866I49521234I45544647I40259676I33728003I25978963I16645343I05083464
859H91189922H76267407H62967782H54170414H51673728H55352955H63136353
852H72443787H82078451H92209987I02140471I10240852I16575356I22226066
845I27748322I32772567I36821016I39868755I42002982I43244794I43078635
838I39747869I33067516I27219035I22415265I16700863I09952399I03037172
831H97094192H93522256H92970466H94728506H97319422H99084026H98786867
824H97096134H96748478H98548711I01908543I06780425I12772765I18501163
817I23222088I27230353I30819568I33957721I36620834I38960266I41125502
810I43200258I45254989I47310188I49302701I51151021I52825412I54325272
803I55643233I56794632I57966659I59421981I60915479I62066275I62657579
796I62582302I62117911I62011156I62592616I63046491I62135860I58550395
789I51176805I41088801I31849613I25584425I21887049I19377773I16652643
782I13016077I08579788I03701544H98929921H95293690H94246434H96825764
775I02138596I08330983I14493836I20586099I26549506I31711782I35438225
768I37613909I37858025I35118362I29959970I25201273I21683585I19118788
761I17938122I18955776I22391824I27231559I31698655I34165873I33615422
754I30081325I24406572I17765131I12713895I12336033I16440137I22935109
747I30302202I37229149I42589666I46171179I48493935I50186141I51560360
740I52483314I52599378I51794966I50337701I48296365I45570230I42509030
733I40009197I38815940I38860678I39414946I39641047I38996767I37267592
726I34256219I29772446I23763564I15798402I05209708H93150087H82795263
719H76265197H73931323H75945669H81997079H90256922H98632561I06214638
712I12882065I18703690I23741664I28055929I31863342I35484905I38967901
705I42105250I44831050I47209126I49265196I51071725I52799426I54557534
698I56262800I57751207I58960002I59955823I60879380I61834415I62822266
691I63827329I64905460I66090748I67261234I68228793I68953373I69565238
684I70208514I70977028I71934139I73093507I74408388I75784281I77062058
677I78038457I78507670I78200800I76685067I73375330I67859906I60598027
670I53403991I48871931I48783995I52729105I58521932I64040303I68353028
663I71492519I73749173I75269728I76067845I76146471I75586577I74595310
656I73421877I72213282I71026320I69917315I68915199I67962843I66932196
649I65614369I63635117I60453365I55636468I49330629I42460207I36401765
642I32480431I31572144I33759883I38199521I43503713I48436473I52323048
635I55005315I56657069I57622485I58221625I58611207I58848291I59029587
628I59272565I59582984I59832928I59839424I59412739I58435001I56981152
621I55260817I53380149I51286641I48991745I46687340I44542195I42506485
614I40420545I38220684I35920096I33488843I30841602I27842017I24274434
607I19975975I15045693I09784766I04455391H99303496H94783089H91502083
600H89849927H89779538H90957258H93014869H95660636H98661895I01776071
593I04720873I07244816I09199623I10461260I10830883I10187809I08779033
586I07202221I06024234I05450610I05324701I05292353I04945433I03988054
579I02420150I00555288H98797449H97354583H96086316H94579826H92505338
572H90070536H88197771H88217126H91190123H97236309I05371582I14021141
565I21728792I27520614I30984389I32363831I32558120I32759507I33817345
558I35699018I37440449I37781877I36218862I33687351I32082946I32756293
551I35317674I37888967I38297435I34943161I27238524I16223078I04888372
544H97153865H95751920I00667535I09396389I18639864I25999055I30653676
537I33100668I34489352I35873951I37633934I39421911I40633452I40949765
530I40607668I40334619I40958941I42894727I45940993I49566373I53314583
523I56937619I60243204I62903638I64460827I64524920I62937660I59865275
516I56024041I52845236I51930452I53917339I57952996I62423442I66067575
509I68363140I69201240I68543834I66425947I63215531I59881617I57861377
502I58295429I61172119I65358733I69589148I73298244I76521118I79363651
495I81815398I83864101I85546462I86964145I88325103I89829182I91484017
488I93201069I95047113I97146448I99371758A001408540A003095522A004480054
481A005665141A006826854A008177498A009697316A011121697A012371948A013738263
474A015465496A017331028A018577328A017755436A012348976I99073729I75696478
467I43616696I08937156H80305342H64473669H62844150H71628458H85087612
460H98876477I11158448I21754509I31048147I39461626I47200219I54158174
453I60168998I65291894I69727380I73584353I76906681I79857644I82731722
446I85706527I88614359I91055524I92779273I93836978I94313290I94033610
439I92579360I89615203I85445868I81433518I79553654I81073538I85594414
432I91432850I96703890I99893478I99712182I94966745I85007463I70498640
425I53747697I38144268I26998694I22401736I24489752I31437997I40430792
418I49074189I56120080I61211365I64492103I66546767I68184992I69928366
411I71828456I73766386I75648393I77289967I78392208I78774490I78526020
404I77830238I76606843I74395530I70788165I66099989I61578980I58879902
397I59228162I62809407I68702091I75396039I81531834I86379204I89898767
390I92409383I94020953I94340883I92792401I89001463I82678277I73365753
383I60660579I44845382I27518270I11688204I00834431H97290222I01234729
376I10999655I24113967I38222626I51587618I63196578I72556318I79378050
369I83401251I84409729I82231568I76543152I66735697I52276836I33419928
362I11713922H90118957H72537817H62295105H60120292H63668922H69573392
355H76055036H83427621H92490470I03028131I13812252I23547510I31581386
348I37882939I42575199I45566748I46628604I45779253I43567940I41021627
341I39280732I39051216I40175558I41696849I42413393I41443088I38371239
334I33074212I25604517I16332043I06245445H97151320H91372892H90757009
327H95566740I04251057I14330221I23623591I30981777I36254826I39679288
320I41232860I40653008I38070865I34372953I30768736I28051710I26297688
313I25187410I24486069I24097893I23866301I23678978I23585416I23413564
306I22563811I20629296I17933099I15207165I13176009I12501993I13516968
299I15914600I19118453I22825943I26868029I30806509I34016992I36087997
292I36989118I36856579I35661982I33153777I29132720I23670003I17013426
285I09507765I01824962H95147221H90815677H89626907H91489224H95678450
278I01262054I07414659I13661161I19851539I25821778I31275386I36094895
271I40510222I44812431I49028714I52883009I55984393I58161349I59680162
264I61031007I62560402I64463372I66905541I69839493I72874841I75627095
257I78132755I80782206I83912991I87433358I90645716I92382794I91397689
250I86601152I76852500I60934030I38910573I14539779H95380957H88044671
243H92699828I02904432I09793003I06540059H91555662H69575803H49457191
236H39053140H40645357H50725927H63914712H76955957H89353992I01432969
229I12721329I22019053I28568205I32916492I36475837I40469569I45532324
222I51749223I58539880I64940353I70378022I74918990I78828269I82179329
215I84588547I84972102I82001315I75293704I65696277I54973905I47580491
208I48760689I54973905I59335050I59530946I55723667I49237000I42322912
201I37008875I33572894I30174887I24292718I14393979I00612282H85003830
194H71226017H62755410H60957186H64921316H72803833H83103806H94879061
187I07408096I20025066I32071963I42901090I51941704I58526419I61290795
180I57867070I46354752I28268434I09363305H96333178H92728559H97871145
173I08626133I21712852I34839487I46549040I56033417I63453419I69651566
166I75205099I80304956I85193514I89699991I92611172I92473409I89032003
159I83339368I76736503I70658504I67193257I68285921I73695528I80929345
152I87764004I93519995I98036518A001034563A002558935A003137715A003448671
145A003938846A004572879A005235911A006444906A008949361A012699379A016938366
138A021062226A024711516A027358690A028640218A029010109A029407460A030154342
131A030696556A030602726A030246698A030239197A030796010A031961273A033789367
124A035869949A037118125A036645764A034861069A033163438A032426601A032325137
117A032180476A031775155A031152106A030224195A028744829A026170321A021187734
110A011487034I95328131I75276760I58606719I50337433I47949780I44077872
103I33149156I17025615I04126488I01941227I11664295I29244632I49308528
96I67863053I82378774I91462653I95504404I96526211I96910569I98318073
89A001515563A006639665A012999284A019006022A023294033A026105090A028913400
82A032539317A036510278A040093131A042663553A042919390A039163412A031102881
75A020787436A011697530A006804954A007195205A011935619A018239383A022686790
68A023824794A023394493A024763956A029149614A033168863A030866868A018329930
61I97250256I76210229I65160962I65476070I72023883I80899609I90524562
54I99710508A007371143A013359330A018486781A023403869A027493372A028946686
47A026258391A020209392A014889127A015301480A022425595A032515541A041022716
40A045468515A045856222A044041120A042971763A044879220A048911461A052196552
33A054270705A058673776A065693882A070919984A072143446A071317469A071812800
26A073741823A073221510A067135342A057227763A048357327A043934030A044570341
19A048920168A052532288A050915560A048214340A050709753A056597279A059048155
12A054500958A045679078A037815916A034765565A037199765A042667036A048965910
5A054975462A058288213A056234487A052353001A056478201
##END=


$$ === CHEMSPECTRA PEAK TABLE EDIT ===
##TITLE=X8449
##JCAMP-DX=5.00
##DATA TYPE=INFRAREDPEAKTABLE
##DATA CLASS=PEAKTABLE
##$CSTHRESHOLD=0.93
##MAXX=3997.453
##MAXY=0.9556094455657249
##MINX=373.96442
##MINY=0.6230627325715695
##$CSSOLVENTNAME=- - -
##$CSSOLVENTVALUE=0
##$CSSOLVENTX=0
##NPOINTS=46
##PEAKTABLE= (XY..XY)
383.88014324475216, 0.9230877210345472
436.29182325257034, 0.9032316849253925
456.12326974201505, 0.8589745803153853
474.5381843393566, 0.8963842432227832
514.2010773182169, 0.8027102394672575
594.9433951681281, 0.8638672863179475
620.4409692259574, 0.7945111432123834
644.5220113917121, 0.7662352360184509
668.6030535574941, 0.8433283013074991
706.8494146442531, 0.7467410598117216
718.1816697810787, 0.7903425735256161
770.5933497888973, 0.7917507329493495
798.9239876309616, 0.8121091168564354
837.1703487177479, 0.7927565018618759
854.1687314229866, 0.8357374115989704
879.6663054808441, 0.7654904165523497
907.9969433229085, 0.7985709350142043
937.744113057101, 0.855786685646737
970.3243465754495, 0.8209196965664084
987.3227292807128, 0.8731364650470397
1028.4021541516809, 0.7679145974656975
1083.64689794373, 0.8528643887934488
1103.4783444331747, 0.8508428974248066
1121.8932590304921, 0.8368796154351223
1141.7247055199373, 0.797201876000348
1155.8900244409692, 0.8295357861349949
1181.3875984988272, 0.7904788295631311
1221.0504914777166, 0.7918865715859397
1280.5448309460512, 0.8290811822390136
1320.2077239249634, 0.8444776579181351
1389.617786637998, 0.7777819668988999
1434.9468071853007, 0.811961416557742
1450.5286579984358, 0.8169471664773392
1473.1931682720874, 0.7958620225915021
1538.3536353088348, 0.7980887933369507
1546.852826661454, 0.7947264357614828
1583.6826558561374, 0.7579731380333632
1677.1737607349492, 0.6230627325715695
2327.36189921032, 0.8360821642933415
2341.527218131352, 0.8315244354376907
2357.1090689444877, 0.8265628858719284
2748.0718711649724, 0.8271396200325478
2823.1480614464426, 0.825427238523225
2851.4786992885065, 0.8071643754652289
2892.5581241594996, 0.8241770310852923
2925.1383576778735, 0.7965607090206298
##END=


$$ === CHEMSPECTRA PEAK TABLE AUTO ===
##TITLE=X8449
##JCAMP-DX=5.00
##DATA TYPE=INFRAREDPEAKTABLE
##DATA CLASS=PEAKTABLE
##$CSTHRESHOLD=0.93
##MAXX=3997.453
##MAXY=0.9556094455657249
##MINX=373.96442
##MINY=0.6230627325715695
##NPOINTS=199
##PEAKTABLE= (XY..XY)
3993.2034043236904, 0.8486446185198872
3987.5372767552776, 0.8487164417383034
3973.3719578342457, 0.8474729100452264
3960.6231708053165, 0.8477893515651403
3953.5405113448005, 0.8484975741369328
3946.4578518842845, 0.8482094446814566
3932.2925329632526, 0.8477140707718989
3922.3768097185302, 0.8480506578938062
3913.8776183659106, 0.8485667745823736
3898.2957675527755, 0.8467581906146889
3892.6296399843627, 0.8472629235607622
3878.4643210633308, 0.8467210570620484
3868.5485978186084, 0.8470765989918394
3858.6328745738856, 0.8471768544220812
3851.5502151133696, 0.8440662065139304
3834.5518324081313, 0.846767369875113
3824.636109163409, 0.8477304624355105
3814.7203859186866, 0.8466180604914044
3804.8046626739642, 0.8476610822139785
3797.722003213448, 0.8459593697926877
3783.556684292416, 0.8487435621186509
3776.4740248319, 0.8477235481758406
3762.308705910868, 0.8492080608194988
3749.5599188819388, 0.8464711949945608
3741.0607275293196, 0.8470791621361115
3733.9780680688036, 0.844826642470497
3719.8127491477717, 0.8478548568109223
3707.063962118843, 0.8477964447109209
3699.981302658327, 0.8476654929580799
3685.8159837372946, 0.8477495952395242
3674.483728600469, 0.8468228023198983
3668.8176010320562, 0.8467571778167092
3656.0688140031275, 0.8474422733513307
3647.5696226505083, 0.8486032531092558
3633.404303729476, 0.8481305879459634
3626.32164426896, 0.8460173048630608
3609.3232615637216, 0.846909586113041
3599.4075383189993, 0.848830644945292
3592.3248788584833, 0.8487882649567197
3583.825687505864, 0.8486099288541115
3565.410772908522, 0.8508708517170231
3558.328113448006, 0.8502041743319533
3544.1627945269743, 0.8512825416360421
3532.8305393901483, 0.8508321090793673
3520.0817523612195, 0.8519616769702506
3500.250305871775, 0.8520525137352735
3491.7511145191556, 0.8534188316087278
3477.5857955981237, 0.8530718726523253
3463.4204766770913, 0.8544446268658403
3452.0882215402657, 0.8552216324821487
3445.00556207975, 0.8557317302315801
3429.423711266614, 0.8561089681096569
3416.6749242376854, 0.857699159725638
3403.9261372087567, 0.8571224255650186
3389.7608182877248, 0.85847807346046
3375.595499366693, 0.8592321318156888
3348.6813934167317, 0.8591418904477207
3338.7656701720093, 0.8601410432440949
3323.183819358874, 0.8618372128658974
3306.1854366536354, 0.86068344551116
3287.770522056294, 0.8619797272473432
3267.939075566849, 0.8601812169706359
3253.7737566458172, 0.8619580909277611
3239.608437724785, 0.8602096482924808
3231.1092463721657, 0.8600128335216366
3221.1935231274433, 0.8604096812333555
3211.277799882721, 0.858963911227353
3205.6116723143077, 0.858557228339471
3194.279417177482, 0.8579990903245333
3187.196757716966, 0.8588094755551006
3177.281034472244, 0.8579465191675377
3165.9487793354183, 0.8580775305490823
3151.7834604143864, 0.8563163327111263
3141.8677371696635, 0.8580615562863955
3134.7850777091476, 0.8568968813288117
3124.869354464425, 0.8569860502700964
3116.370163111806, 0.8569202468807967
3105.0379079749805, 0.8557035365345688
3086.6229933776385, 0.8555276434288447
3076.707270132916, 0.8543883605091861
3068.208078780297, 0.854104939941329
3052.626227967162, 0.8517372647894305
3034.2113133698203, 0.8468657180768219
3017.2129306645816, 0.8488625329519816
3011.546803096169, 0.8484957852758264
2997.381484175137, 0.8521316686142845
2988.8822928225172, 0.8523537561656468
2925.1383576778735, 0.7965607090206298
2892.5581241594996, 0.8241770310852923
2851.4786992885065, 0.8071643754652289
2823.1480614464426, 0.825427238523225
2779.2355727912427, 0.8405876201355145
2772.1529133307267, 0.8405221148897326
2748.0718711649724, 0.8271396200325478
2733.9065522439405, 0.8273001351626206
2728.2404246755277, 0.8270077151104307
2654.5807662861607, 0.8442937176073738
2634.749319796716, 0.8461892651442925
2619.167468983581, 0.84638512585588
2596.5029587099298, 0.8480424326926389
2580.921107896794, 0.8477514428393537
2556.8400657310394, 0.8502065585901146
2545.507810594214, 0.8504022404155914
2538.425151133698, 0.850571040375535
2527.0928959968724, 0.8510711828014155
2508.677981399531, 0.852101151177796
2490.2630668021893, 0.8512082140120767
2473.2646840969505, 0.8531372586407001
2463.348960852228, 0.8523772400850583
2456.266301391712, 0.8537765183918854
2443.517514362783, 0.8536044397432272
2425.1025997654415, 0.8528775017683459
2406.6876851681, 0.8530924365452242
2386.8562386786552, 0.8528828069430006
2362.7751965129005, 0.8276274246566774
2357.1090689444877, 0.8265628858719284
2341.527218131352, 0.8315244354376907
2327.36189921032, 0.8360821642933415
2276.366751094605, 0.8573513072286629
2267.867559741986, 0.8565233395403743
2253.7022408209536, 0.8564128324230251
2243.7865175762313, 0.8550047913667181
2229.621198655199, 0.8586568278539738
2222.538539194683, 0.8583387772490446
2212.6228159499606, 0.8568505685157469
2202.707092705238, 0.8594417614179124
2191.3748375684127, 0.860989515196579
2175.7929867552775, 0.8560354156588377
2158.794604050039, 0.8612871211660164
2148.8788808053164, 0.8598606032214348
2137.546625668491, 0.8638405842285056
2126.2143705316653, 0.8615964099114463
2117.7151791790457, 0.8624535244660224
2109.2159878264265, 0.8624619285533004
2097.883732689601, 0.861833636033665
2085.134945660672, 0.861955408526082
2079.4688180922594, 0.8632798830692958
2073.8026905238466, 0.8639503758014122
2061.053903494918, 0.8668394131878292
2051.1381802501955, 0.865862850770294
2039.8059251133695, 0.8630437293737603
2028.473669976544, 0.8658655928006767
2019.9744786239248, 0.8662775799732326
2014.308351055512, 0.8651903911809411
2005.8091597028927, 0.8644357961673804
1987.3942451055511, 0.864852969257184
1967.5627986161062, 0.8678740904518288
1957.6470753713836, 0.8689626498143214
1950.5644159108676, 0.8714565678314418
1943.4817564503514, 0.8711216494232531
1932.149501313526, 0.8694982570791238
1925.06684185301, 0.868236426493902
1910.901522931978, 0.8677921935424352
1898.1527359030492, 0.8679884120262439
1888.2370126583264, 0.8699563185499303
1857.0733110320562, 0.8753673475030913
1841.491460218921, 0.8769035982818566
1834.4088007584046, 0.8777433680035449
1807.494694808444, 0.8809938478914625
1798.9955034558247, 0.8811138911514764
1790.4963121032056, 0.8813523694764698
1772.0813975058636, 0.8854457776274025
1677.1737607349492, 0.6230627325715695
1583.6826558561374, 0.7579731380333632
1546.852826661454, 0.7947264357614828
1538.3536353088348, 0.7980887933369507
1497.2742104378417, 0.8561713139241314
1473.1931682720874, 0.7958620225915021
1450.5286579984358, 0.8169471664773392
1434.9468071853007, 0.8119614156677614
1409.4492331274432, 0.8355280205115609
1389.617786637998, 0.7777819668988999
1318.791192032838, 0.8443993965796968
1280.5448309460512, 0.8290811822390136
1221.0504914777166, 0.7918865715859397
1181.3875984988272, 0.7904788295631311
1155.8900244409692, 0.8295357861349949
1141.7247055199373, 0.797201876000348
1121.8932590304921, 0.8368796154351223
1100.6452806489442, 0.8471996824257537
1085.063429835809, 0.852478090912355
1028.4021541516809, 0.7679145974656975
988.739261172791, 0.871783797696795
970.3243465754495, 0.8209196965664084
936.3275811649723, 0.8533845584538963
907.9969433229085, 0.7985709350142043
879.6663054808441, 0.7654904165523497
854.1687314229866, 0.8357374115989704
837.1703487177479, 0.7927565018618759
798.9239876309616, 0.8121091168564354
770.5933497888973, 0.7917507329493495
718.1816697810787, 0.7903425735256161
706.8494146442531, 0.7467410589217409
668.6030535574664, 0.8433283013074991
644.5220113917121, 0.7662352360184509
620.4409692259574, 0.7945111432123834
593.5268632759967, 0.8607832835404771
514.2010773182169, 0.8027102394672575
456.1232697419855, 0.8589745803153853
##END=

##END=

