##TITLE=X8554
##JCAMP-DX=4.24
##DATA TYPE=INFRARED SPECTRUM
##DATE=31/10/2018
##SAMPLING PROCEDURE=Diamant-ATR
##ORIGIN=ComPlat
##XUNITS=1/CM
##YUNITS=TRANSMITTANCE
##RESOLUTION=4
##FIRSTX=3997.453
##LASTX=373.96442
##DELTAX=-1.4165319
##MAXY=1.0504736
##MINY=0.3436189
##XFACTOR=1
##YFACTOR=9.7832975e-010
##NPOINTS=2559
##FIRSTY=0.98454618
##XYDATA=(X++(Y..Y))
3997+1006354129+1005975054+1005593542+1005506176+1005571975+1005375857
3989+1004805052+1004196961+1003887584+1003850298+1003860777+1003864189
3980+1003997127+1004253194+1004398683+1004344277+1004308027+1004431278
3972+1004575182+1004683994+1004953404+1005443972+1005850341+1005798920
3963+1005222631+1004459242+1004022167+1004142006+1004558184+1004853061
3955+1004914961+1004946642+1005058012+1005062582+1004822477+1004562327
3946+1004519863+1004577680+1004602903+1004742421+1005057281+1005270945
3938+1005164204+1004831493+1004476362+1004233881+1004228337+1004558855
3929+1005095725+1005439707+1005249865+1004617160+1004081873+1004063779
3921+1004391372+1004579508+1004388752+1004135487+1004331666+1004932263
3912+1005371227+1005281241+1004844410+1004438284+1004166072+1003858888
3904+1003411029+1003058091+1003195599+1003873998+1004635072+1004927755
3895+1004593825+1003909090+1003423214+1003659420+1004517243+1005346431
3887+1005694982+1005571426+1005302016+1005044121+1004655299+1004201774
3878+1003972757+1003844937+1003380506+1002434342+1001311984+1000474449
3870+1000411331+1001324412+1002648311+1003678063+1004239669+1004495249
3861+1004459669+1004017902+1003266333+1002385846+1001309059+999993081+999447012
3852+1000648085+1002413750+1003615128+1004179414+1004407761+1004490253
3843+1004380954+1003975620+1003308188+1002566793+1002020967+1001803465
3835+1001823144+1002054658+1002683769+1003767684+1004905944+1005500083
3826+1005275697+1004449251+1003384101+1002437876+1002053318+1002289341
3818+1002779726+1003426565+1004316008+1005274357+1005984924+1006183539
3809+1005727211+1004867744+1004229860+1003955637+1003561209+1003008255
3801+1002928992+1003457515+1004038495+1004424820+1004764659+1005232318
3792+1005911814+1006760071+1007471248+1007598581+1007029481+1006276328
3784+1006021052+1006268895+1006389526+1006002226+1005473398+1005289832
3775+1005415763+1005561983+1005515741+1005241884+1004970280+1004979967
3767+1005193083+1005334672+1005281668+1004995442+1004432923+1003803264
3758+1003611777+1003985186+1004408492+1004308453+1003417670+1002078419
3750+1001343116+1001693556+1002668355+1003802837+1004598395+1004631721
3741+1004004560+1002802085+1000940464+998789571+997555415+998160521+999994665
3731+1002019748+1003720528+1004755398+1004890469+1004350674+1003771888
3723+1003555300+1003622804+1003777005+1003932729+1004095277+1004255449
3714+1004323806+1004203662+1003986465+1003927612+1004028442+1004077182
3706+1003997371+1003846094+1003706820+1003714923+1004001392+1004434080
3697+1004700078+1004726093+1004764232+1004922942+1004880416+1004414950
3689+1004058174+1004326731+1004790978+1004873288+1004426221+1003679647
3680+1003038291+1002593113+1001892354+1000763294+1000172444+1000654117
3672+1001521931+1002488322+1003869367+1005469986+1006569864+1006784076
3663+1006309471+1005745184+1005492529+1005373725+1005129416+1004925074
3655+1004872069+1004536373+1003513200+1002061604+1001299007+1002185464
3646+1004144870+1006138576+1007590600+1008244933+1008112726+1007425980
3638+1006451548+1005428375+1004639824+1004214385+1003819957+1003005940
3629+1002117350+1002276303+1003419559+1004536434+1005287699+1005720449
3621+1005825910+1005701196+1005584342+1005434467+1005035897+1004405446
3612+1003711267+1003075942+1002773085+1003269013+1004559890+1005905965
3604+1006640476+1006735762+1006662409+1006829830+1007103627+1007114471
3595+1006851824+1006648518+1006692079+1006831110+1006822337+1006611536
3587+1006523378+1006880703+1007450289+1007825526+1007952128+1008099018
3578+1008475960+1009030377+1009616840+1010155233+1010596939+1010874513
3570+1010863912+1010456263+1009918114+1009862489+1010267640+1010410204
3561+1009934868+1009396657+1009607945+1010524377+1011318472+1011504172
3553+1011439591+1011587639+1011758533+1011536035+1010986615+1010563857
3544+1010544665+1010889257+1011487113+1012170020+1012667715+1012792733
3536+1012607400+1012341280+1012174589+1012108242+1012026420+1011898112
3527+1011851931+1011953736+1012045246+1011982127+1011945512+1012295464
3519+1013093580+1013958409+1014503261+1014796005+1015173313+1015765929
3510+1016450664+1017098357+1017584660+1017717171+1017448492+1017064848
3502+1016882074+1016843752+1016768327+1016768692+1017030548+1017365696
3493+1017406332+1017123397+1016767291+1016453040+1016121853+1015727303
3485+1015159544+1014164153+1012641457+1010965839+1009799371+1009613245
3476+1010427324+1011805872+1013124835+1014071242+1014821776+1015634393
3468+1016432752+1016941049+1017075388+1017015560+1016951345+1016937759
3459+1017000573+1017195228+1017477493+1017676291+1017709312+1017681226
3451+1017678118+1017678606+1017714369+1017865402+1018089179+1018300466
3442+1018526132+1018759657+1018831610+1018609904+1018226747+1017993709
3434+1018106481+1018424570+1018605395+1018501518+1018307716+1018264764
3425+1018408791+1018640854+1018847267+1018912640+1018802183+1018718716
3417+1019011338+1019764004+1020586612+1021016742+1021010832+1020783095
3408+1020368014+1019665184+1018775071+1018083391+1018016130+1018630557
3400+1019452495+1019937031+1019991620+1019755536+1019179186+1018277376
3391+1017442826+1017036031+1016949213+1016858252+1016638861+1016405093
3383+1016275810+1016161759+1015807115+1015070776+1014098476+1013202027
3374+1012642188+1012470623+1012507178+1012523628+1012431875+1012178001
3366+1011588309+1010543081+1009221925+1007937506+1006792057+1005692789
3357+1004572014+1003332619+1001724080+999607000+997244454+995053229+993219999
3347+991716312+990384554+988853938+986723638+983943512+980736791+977184016
3337+973206961+968880379+964429205+959946046+955363884+950672606+945939655
3327+941110930+936033327+930775873+925754686+921460882+918187326+916025040
3318+914938688+914808675+915494811+916849842+918620441+920449590+922106077
3308+923726984+925794227+928784299+932739300+937142830+941262267+944647742
3298+947309978+949501507+951426673+953192155+954937958+956836378+958907520
3288+961001631+963083801+965413386+968280086+971574539+974787535+977517154
3278+979888777+982341309+985057707+987772947+990149689+992144796+993953840
3268+995779211+997709555+999662929+1001446628+1003010570+1004518096+1005987726
3258+1007112034+1007716714+1008148428+1008877333+1009891368+1010730121
3250+1011006476+1010754186+1010342882+1010135981+1010272026+1010758573
3241+1011608475+1012721695+1013756748+1014291486+1014162447+1013695823
3233+1013550700+1014121140+1015086982+1015768062+1015843974+1015474282
3224+1014922668+1014415834+1014189376+1014317257+1014549381+1014542131
3216+1014249752+1013985460+1014057473+1014380010+1014540547+1014248168
3207+1013631913+1013134827+1013164863+1013719767+1014312566+1014423449
3199+1014032007+1013541988+1013268983+1013185151+1013042282+1012587843
3190+1011792468+1010974064+1010591334+1010837470+1011458112+1011964337
3182+1012029893+1011709367+1011327611+1011161469+1011188337+1011143435
3173+1010861840+1010498911+1010321315+1010341237+1010325823+1010151273
3165+1009974713+1010031007+1010376817+1010878717+1011386282+1011838832
3156+1012204442+1012400742+1012359314+1012139801+1011914440+1011811294
3148+1011796185+1011760848+1011742753+1011964459+1012502792+1012972096
3139+1012800044+1011901767+1010828697+1010125441+1009806134+1009608615
3131+1009462030+1009448139+1009524356+1009539404+1009439183+1009244893
3122+1008827253+1007893274+1006346939+1004567445+1003154536+1002447685
3114+1002438181+1003017698+1004035753+1005171759+1006050296+1006555303
3105+1006877169+1007226573+1007591392+1007774410+1007609852+1007160713
3097+1006683306+1006279983+1005617851+1004200921+1001969302+999466386+997350037
3087+995777139+994307691+992428158+990111793+987804506+985948795+984659075
3077+983849262+983574978+984118793+985626685+987743642+989844699+991567228
3067+992840132+993458886+992955098+991038400+988150743+985470778+984157846
3057+984481540+985735497+986865958+987065975+986112865+984477763+982960733
3047+982019565+981553429+981298031+981207862+981423049+981956569+982459686
3037+982409728+981597843+980288140+978877241+977663434+976983208+977205340
3027+978406535+980280403+982449695+984651277+986628595+988180718+989403419
3017+990608819+991968845+993406003+994757926+995879798+996710021+997385983
3007+998153941+999050634+999817740+1000202054+1000185787+999922469+999669753
2997+999750600+1000297158+1001051713+1001629463+1001913861+1002022734
2989+1002072205+1002132947+1002257782+1002447563+1002698939+1003051024
2980+1003480484+1003841707+1004031793+1004114529+1004150536+1003990974
2972+1003432048+1002521891+1001498779+1000484928+999456333+998372174+997046144
2962+995088383+992259884+988723010+984836915+981015462+977818793+975765807
2952+974933877+974966228+975478607+976315349+977486813+978991658+980686345
2942+982243098+983241109+983353820+982525607+981000657+979115640+976999658
2932+974614570+972228141+970631360+970558555+971957817+974040718+975845192
2922+976546072+975636463+973392721+971096339+970331427+971856865+975173251
2912+979137878+982902854+986278520+989385812+992195303+994473407+996093035
2902+997294596+998523390+999965665+1001363343+1002370798+1002951290+1003329390
2893+1003708526+1004188736+1004886509+1005962808+1007425006+1008973839
2884+1010182162+1010808714+1010849107+1010419769+1009746671+1009112443
2876+1008654531+1008324927+1008073551+1007905764+1007772156+1007552095
2867+1007134516+1006476710+1005668419+1004909721+1004310829+1003764272
2859+1003085142+1002183697+1001075900+999853442+998677469+997726553+997147949
2849+997058207+997529583+998555132+1000027870+1001710128+1003275532+1004502012
2839+1005414545+1006155574+1006788584+1007318509+1007837711+1008528234
2830+1009480124+1010515360+1011254684+1011452446+1011232629+1010923618
2822+1010746753+1010732192+1010811882+1010912103+1011054668+1011381164
2813+1011955869+1012575292+1012903982+1012793464+1012402266+1012036046
2805+1011890009+1011915963+1011923944+1011803739+1011614202+1011482482
2796+1011465241+1011504050+1011491804+1011385612+1011259010+1011237199
2788+1011383601+1011655022+1011956173+1012222537+1012428402+1012562376
2779+1012648707+1012755508+1012906846+1013021872+1013011697+1012893747
2771+1012776101+1012783534+1013003838+1013422088+1013913325+1014370262
2762+1014764872+1015029347+1015043847+1014855590+1014712660+1014759998
2754+1014890256+1014952095+1014898298+1014734227+1014510633+1014303915
2745+1014101339+1013862514+1013707947+1013792267+1014004590+1014079955
2737+1013974311+1013891148+1013954876+1014034261+1013932760+1013649886
2728+1013363721+1013199224+1013153470+1013211531+1013384131+1013646474
2720+1013974494+1014348755+1014648871+1014677689+1014384579+1013967792
2711+1013703987+1013714893+1013923987+1014183222+1014369592+1014395180
2703+1014267847+1014146058+1014192483+1014380497+1014547310+1014575396
2694+1014454826+1014258952+1014063017+1013837108+1013520725+1013226519
2686+1013164314+1013330700+1013495015+1013521030+1013500376+1013563372
2677+1013755408+1014127050+1014724479+1015392460+1015784938+1015736076
2669+1015491341+1015454542+1015809978+1016418009+1016933190+1017032680
2660+1016711606+1016338502+1016269778+1016469307+1016658540+1016701919
2652+1016634840+1016448715+1016144456+1015899660+1015866395+1015889363
2643+1015727730+1015465143+1015416891+1015721211+1016237366+1016727020
2635+1016981198+1016883292+1016506350+1016123863+1016012432+1016186372
2626+1016364821+1016300302+1016068300+1015887962+1015777201+1015637317
2618+1015565730+1015772022+1016221891+1016629053+1016765829+1016584029
2609+1016112592+1015470139+1014962147+1014938630+1015418414+1015956685
2601+1016087613+1015863287+1015698668+1015745032+1015803033+1015812354
2592+1015945719+1016207818+1016405214+1016489108+1016532304+1016446582
2584+1016106073+1015660651+1015392947+1015300341+1015113850+1014754698
2575+1014501799+1014582098+1014848157+1015063709+1015297356+1015772083
2567+1016453345+1017057111+1017407307+1017530924+1017428144+1017077521
2558+1016730858+1016839122+1017488642+1018203169+1018485008+1018313443
2550+1018020334+1017911217+1018056523+1018277863+1018315454+1018060544
2541+1017609883+1017172198+1017008615+1017310863+1017985728+1018674302
2533+1019061296+1019066475+1018789815+1018461795+1018355725+1018515775
2524+1018649018+1018470630+1018051162+1017699808+1017674341+1018082782
2516+1018822958+1019503063+1019656228+1019185401+1018479098+1018040743
2507+1018071876+1018361574+1018499325+1018255747+1017765363+1017268825
2499+1016809999+1016349651+1015966982+1015688738+1015340917+1014863083
2490+1014548589+1014702485+1015228023+1015748749+1016022240+1016107109
2482+1016198557+1016400097+1016688028+1017025978+1017339985+1017428326
2473+1017189257+1016941719+1017154408+1017812397+1018425606+1018698671
2465+1018790059+1018862316+1018786952+1018413726+1017865828+1017486936
2456+1017587584+1018133715+1018651333+1018677774+1018332878+1018138467
2448+1018286027+1018461003+1018453875+1018550137+1019096450+1019978886
2439+1020813862+1021414825+1021752289+1021717744+1021301566+1020786507
2431+1020448435+1020242448+1020000332+1019758034+1019714960+1019925943
2422+1020141190+1020059368+1019666403+1019155547+1018640671+1018218461
2414+1018125124+1018480682+1018980084+1019106076+1018649444+1017959957
2405+1017639919+1017914324+1018376379+1018481718+1018163568+1017784859
2397+1017621641+1017605374+1017510392+1017209606+1016758640+1016347153
2388+1016108023+1015865968+1015193357+1013816576+1011782781+1009149180
2380+1005834988+1001941886+997877830+993952255+990132020+986355590+982765956
2370+979414112+975992508+972201030+968330592+965155065+963213814+962468581
2360+962592380+963379835+964923489+967435727+971061490+975823563+981089912
2350+985263024+986674045+984695935+980353147+976025895+973541804+972838121
2340+973218902+974429480+976212264+977858638+978590285+978369310+978139075
2330+978957784+980918469+983166720+984842947+985799041+986617689+988014819
2320+990139392+992583638+994985725+997295875+999479424+1001217245+1002174802
2310+1002658363+1003591611+1005509466+1007942563+1010079138+1011580389
2302+1012478056+1012838305+1012873763+1013015109+1013642148+1014859550
2293+1016407956+1017701879+1018261474+1018218644+1018156318+1018473432
2285+1019116129+1019738720+1019935203+1019516893+1018702327+1017935404
2276+1017573389+1017782666+1018420001+1018910264+1018669001+1017890807
2268+1017532752+1018237470+1019585312+1020684884+1021135972+1021046474
2259+1020547438+1019853503+1019499103+1019914672+1020882890+1021766667
2251+1022115401+1021905149+1021469231+1021275612+1021496160+1021807365
2242+1021875113+1021898082+1022310970+1023116519+1023958136+1024735781
2234+1025635642+1026593381+1027265383+1027571835+1027762286+1027930439
2225+1027983566+1028187664+1029135899+1030758086+1031829267+1031215388
2217+1029367536+1027756803+1027113924+1027203605+1027908384+1029257140
2208+1030583231+1030802195+1029637433+1028063987+1027492511+1028456830
2200+1029976297+1030571168+1029867607+1028621815+1027534549+1026829282
2191+1026566818+1026725345+1027212013+1027967360+1028886107+1029750632
2183+1030268371+1030022113+1028670189+1026325555+1023491816+1020866075
2174+1019300731+1019200388+1019913270+1020545122+1021160342+1022376038
2166+1024166011+1025738239+1026228807+1025244138+1023413832+1022422219
2157+1023225087+1024636108+1025077935+1024665474+1024400694+1024363408
2149+1024049645+1023905131+1024949627+1027090285+1029117500+1030181980
2140+1030394608+1030309313+1030345380+1030392293+1029885885+1028569541
2132+1026915674+1025515863+1024504997+1023799731+1023400916+1023188167
2123+1022814088+1022134897+1021491956+1021284751+1021468622+1021700807
2115+1021811020+1021930981+1022257356+1022765591+1023114447+1022935816
2106+1022275268+1021628611+1021485316+1021873346+1022332050+1022434891
2098+1022395655+1022861122+1023978119+1025178949+1026019103+1026482376
2089+1026301307+1024909783+1022500934+1020367283+1019630457+1020108352
2081+1020922613+1021760757+1022866849+1024068531+1024719088+1024656944
2072+1024430425+1024356706+1023991157+1022836995+1021237473+1020315984
2064+1020926756+1022655805+1024159066+1024600406+1024363652+1024212071
2055+1024268000+1024183801+1023885879+1023663015+1023555056+1022982240
2047+1021347199+1018889123+1016400523+1014621638+1014561932+1017294352
2038+1022373966+1027540763+1030780994+1031587761+1030022966+1026491515
2030+1022740978+1021115989+1022508245+1025817685+1028808611+1029298325
2021+1026871686+1023497787+1021400203+1020930533+1021268301+1021972715
2013+1022825785+1023424799+1023701764+1023927186+1023969589+1023419072
2004+1022518724+1022239444+1023219969+1024978749+1026436804+1027211403
1996+1027785072+1028294161+1028084092+1026951254+1025913216+1025902371
1987+1026550368+1026915430+1026719861+1026336156+1025823169+1024672541
1979+1022720751+1020777917+1019747372+1019633686+1020078011+1021025454
1970+1022234692+1022972371+1022715755+1021719694+1020663012+1020165804
1962+1020550423+1021472217+1022011341+1021657002+1020717235+1019550280
1953+1018113305+1016496236+1015272560+1014957517+1015434681+1016248820
1945+1017241591+1018418478+1019396140+1019755170+1019717397+1019730069
1936+1019934350+1020389277+1021107277+1021683078+1021613928+1021020032
1928+1020402924+1019920703+1019447804+1019002321+1018629948+1018196346
1919+1017728016+1017612320+1017937598+1018015825+1017218623+1015848787
1911+1014880081+1015069984+1016346544+1017992247+1019302742+1019994788
1902+1020160443+1020147770+1020391287+1020944120+1021310888+1021144075
1894+1020746236+1020478105+1020307637+1020218931+1020356377+1020683056
1885+1021002364+1021156260+1021045316+1020665876+1019966275+1018702205
1877+1016817067+1014766517+1013099186+1012048779+1011756949+1012495176
1868+1014367276+1016901082+1019309505+1021051104+1021970461+1022215683
1860+1022104556+1021934759+1021838863+1021851291+1022061361+1022467912
1851+1022804096+1022834315+1022599145+1022145315+1021388567+1020420653
1843+1019549427+1018887478+1018370469+1018042754+1018080406+1018569145
1834+1019202825+1019427029+1018985445+1018161740+1017447030+1017050348
1826+1016895112+1016829861+1016716175+1016471927+1016037959+1015404706
1817+1014651430+1013885178+1013258382+1012939136+1012853780+1012730285
1809+1012568286+1012614650+1012904896+1013274345+1013587620+1013795313
1800+1014000204+1014311104+1014548102+1014427409+1013841982+1012903556
1792+1012192136+1012413598+1013282569+1014009464+1014345343+1014449769
1783+1014350949+1013936903+1013182470+1012177453+1011075443+1009875405
1775+1008352770+1006479512+1004675526+1003138634+1001424878+999049294+995764893
1765+991250723+984353476+973108750+955976423+929382460+883618415+811342959
1755+721847262+633568419+560766816+520344544+528805307+577741651+640602564
1745+699335572+747631900+785551864+816703985+844028804+866801253+884686367
1735+901230524+919768937+936904004+948869046+957509294+964627881+970394728
1725+975073151+979034732+982116070+984045988+984923368+985352401+986505344
1715+988770532+991016772+992115918+991416561+988890858+985621811+983734540
1706+984974606+988562534+992123046+994248655+994921449+994874780+994662213
1696+994549685+994531347+994174997+993161999+991584653+989731074+987626545
1686+984977103+982140501+980621765+980524102+980585393+980182618+979356903
1676+978437851+977808009+977444044+976730004+974983043+972243494+969080395
1666+965121373+958840869+948623945+934318352+916672367+895620377+871135328
1656+840671415+789990121+704818021+626511000+589244151+577533532+584625069
1646+613133415+652719309+692002955+730173686+766779378+799593409+829583875
1636+859837536+886315865+902225184+909776460+913249180+914136795+912566455
1626+908677619+902358488+893765457+884998181+878782135+876614244+880053394
1616+889430528+900797592+911224219+921729378+933040695+943784315+952034034
1606+957356616+960961482+964388812+968365502+972636947+976512807+979446828
1596+981380219+982645812+983440821+983498700+982207701+979084691+974652830
1587+970729937+969112381+970022781+972100077+973673645+973804390+972148878
1577+968699127+964724082+962027789+960897571+961309850+963648453+967104540
1567+969870591+971327915+971766635+971155741+968196618+959341732+944428291
1557+933567269+930295419+932138946+937011354+942638256+946926395+948797337
1547+948282644+945738968+941401298+935560610+927827169+917901710+908452075
1537+900368559+890699289+876227797+857142706+837416258+817994252+795498037
1527+767566162+736856965+707485679+679818340+655134250+639618627+637273689
1517+647224980+665822854+688052341+711198930+734272957+756216828+779082309
1507+808435927+838239171+855617086+862830472+864698795+863363809+862739511
1497+869499007+885173218+902360560+915412319+924941095+933388272+940897693
1487+944867864+942083413+929603252+908360261+888041258+882251442+894557785
1477+915347312+932049691+935915985+919435312+878220651+823416142+774713567
1468+748742439+759650921+806367344+860162936+896022237+914108648+921831366
1458+922580621+919485392+916627039+913677665+908825362+901947793+894491316
1448+887927511+881632019+872530570+858166062+840579357+826143628+820502470
1438+825768209+840521174+859226216+877209298+893833876+908304149+917348756
1428+917529825+906718944+883660757+851754264+821392217+804749118+811491798
1418+840680919+875794317+904234305+925240846+941167712+953707336+963738317
1408+971544442+977520078+982194480+985572705+987320275+987239611+985046558
1398+980174698+972076865+961757161+953493002+951706867+956182776+963658566
1388+970976561+975792004+976930995+974205642+967005293+953870676+934400844
1378+911995163+893736030+886221004+889752821+896793242+899928620+898513213
1368+895998355+895088319+895594423+895774395+895136877+895891858+900752203
1358+909863461+920775111+929878937+934166405+932848295+927677233+922041740
1349+919250527+920479443+924200736+927594923+927858606+921802305+904633911
1339+870690211+817155560+746569187+666186576+586553220+518846340+471275567
1329+447314960+446275216+464503368+496375012+535442710+576182644+615488589
1319+652433389+686748182+718165997+747096370+774787408+802203188+829039694
1309+854024509+875641030+892436015+903427111+908929909+910889132+911778757
1299+912762695+913013888+911079035+907090464+903630905+904112272+909923899
1289+919078962+927717077+932703354+932644623+927199581+916639346+902400343
1279+887479530+875558781+869156609+868281423+870544418+872194630+869736432
1269+862401378+853676079+849195418+852341154+862170046+875389593+889164226
1259+901803097+912126943+919301033+923240011+924774648+925172854+925369702
1249+925579101+925502579+924792378+923360886+921377537+919044722+916354949
1239+912993174+908482964+902508181+895165389+886934862+878363703+869569985
1230+859837597+847607350+830890775+808013108+778825693+746156177+716230839
1220+696642386+692209734+701678134+718475069+735185551+748040828+758151011
1210+769008864+782594934+797582826+811173588+822250832+831995039+841218033
1200+847937928+848573009+841636770+829766040+818003026+810403192+808125149
1190+809944489+813716837+817059847+817444710+813054157+803944787+791811897
1180+778942974+768214525+763177010+766072893+775228261+785318156+790671322
1170+788192532+777397675+758167156+728702350+686474629+632746542+576276407
1160+529975187+501974620+491698995+495688053+512881366+540986084+572816604
1150+602222252+631102057+665618390+706945397+749186764+785166879+811687489
1140+829842196+842355562+851261686+857365143+860811847+861497557+858878883
1130+851831456+839548264+823069175+805080793+787111968+767125310+740285270
1120+701684775+648944341+584630064+517410096+458670174+415149567+385116453
1111+363658032+351230144+354575256+379036605+422217068+475721623+531144763
1101+583599946+631361536+674077630+711551990+743456655+769409384+788931368
1091+801540081+807544535+809334509+811676035+819592434+835051946+855834100
1081+877586484+896236388+908458046+910069936+892542816+842140071+751155735
1071+637250598+544641883+513528388+547869928+618556888+693149013+755360528
1061+802333689+835996160+859706670+877453667+892349014+905231463+914857902
1051+919533584+918389658+911938076+903150938+897528727+899870010+910398504
1041+924667603+937315918+946140585+952872482+960105791+967933362+973643975
1031+974372210+970828270+968312010+971962996+980375506+983373743+964448275
1021+911590256+836549114+777292640+764374489+788397849+816425497+833391681
1011+849453130+873803108+900702062+920107192+929151615+931637656+931652278
1001+928650569+917979389+896890356+870188190+849195296+844289075+857564185
992+882110523+907811754+927736452+940618230+949378561+957590750+966306545
982+973457545+976110702+973783006+969903612+968993212+971373121+971746591
972+964909415+952868035+944490130+946982933+958650539+971101883+977550175
962+977625356+975395749+975004367+978009671+982984494+986707066+985693276
952+976791721+958012655+931617612+906446123+893529860+897308423+912874492
942+932267254+950773802+966773900+979140863+986952715+990336302+990328869
932+988229214+985240969+981857566+976572879+966453618+952085211+941403552
922+943867112+959896819+980183654+995733882+1004561231+1008930947+1010683330
912+1010335754+1008196132+1005173709+1002863375+1002784721+1005374761
904+1009776585+1014539694+1018561042+1021448151+1023063027+1023112863
895+1021659744+1019842963+1019438178+1021308816+1024514989+1027360548
887+1029102391+1030133971+1030902721+1031421314+1031611644+1031442029
878+1030779166+1029388859+1027057263+1023866139+1020556089+1018362792
870+1018182089+1019887012+1022444030+1024681802+1026077713+1026797236
861+1027033503+1026658449+1025505262+1023529590+1020671054+1016744262
853+1011100666+1002418685+989769213+974007879+956660549+936104913+905191679
843+855598564+789047003+724977828+691458530+703187183+749526116+805629239
833+852044449+882569105+899242423+906048344+907264527+907751256+911762247
823+920782788+933082977+945631375+956189843+963926392+968803491+970565561
813+968035594+959076953+941222605+913804267+881708480+856617716+851050094
803+868806961+901811931+936911742+964907405+983402621+993938365+998766663
793+999721905+997964648+993150971+982521342+962687850+935411527+911487475
783+904676863+919476314+947152913+974769258+995185558+1007924163+1014845354
773+1017699686+1017920600+1016638679+1014602873+1011825611+1006778044+995713533
764+973171624+935052801+883308368+827354693+780004529+752100741+748612912
754+765704419+792421025+818544465+838656994+847334467+838480860+815916591
744+798141629+803523857+831849611+864901371+881433038+864536979+800479927
734+689838111+566505759+487413203+487189822+550253371+635330794+714691267
724+781760933+836407464+877587397+905723919+923454528+933596270+938000104
714+937339374+931126679+917891353+895468613+861684048+815405675+758484818
704+699067746+652268160+633325999+647093199+683993463+726994564+762306576
694+783847672+790820588+784545811+768461332+749599287+737359108+738464651
684+752701278+774067824+795735096+813917341+828101816+839087368+847423539
674+853013033+855456244+854680487+851648498+849476343+851283010+854319202
664+854674760+852062910+848034433+844548980+843250549+845005125+849691103
654+856510976+864596868+873155355+881257818+887697763+890789580+887529062
645+873316318+845998628+812881008+790561170+792852434+819031316+856293535
635+891694071+919538579+940034326+955233505+967110449+977040904+985539684
625+992602708+998204022+1002463769+1005880864+1009123531+1012039701+1013366280
615+1011238661+1002973528+986128340+962528409+939287448+922213792+909661069
605+896171077+880766764+868378720+864098685+868438488+877104385+883396831
595+882281418+875691232+873874695+887006266+914195892+944884131+969813322
585+986239407+994667514+994943991+985843212+966029337+935737536+900844626
575+874811537+870735661+890208844+923044564+956032901+980847309+995887291
565+1002880861+1003200229+996303530+979858620+952741555+920528244+896537053
555+893100584+911106329+940423514+969606908+992792063+1009294852+1020588196
545+1028235307+1033010236+1034647897+1030798296+1015726267+983818312+939067143
535+899412708+885101814+900875210+933285065+965480160+990218351+1008469198
526+1021928788+1030723237+1035171851+1035602956+1030410326+1015789812+990162787
516+960660756+941049335+940401459+955436751+974038829+985604143+988082080
506+986673314+987592731+993165167+1000958619+1006523561+1007040326+1001599427
496+988893600+965189975+924254654+862021207+785106990+713691672+673076695
486+679060739+726035057+790188005+848780702+893848741+927715676+953375966
476+971639850+983408957+991347289+998543434+1006033481+1013200869+1019982481
466+1027130617+1034983228+1042619311+1048288130+1051266261+1053125323
458+1055895091+1059068548+1060893127+1061699894+1063369115+1066610319
449+1069836293+1070952559+1069746124+1068205821+1068481080+1070726406
441+1073031195+1073741823+1073246016+1072754596+1071501005+1064918557
432+1043413528+994809103+919072565+842970721+807418908+832987993+897824701
422+960352111+998613559+1014610184+1019909980+1021974238+1019624730+1011475841
412+1001795118+997082211+997173782+993987165+979674931+953549724+922330585
402+895289981+878946632+875343777+882419534+896228407+915808330+940875333
392+967167170+989279925+1005068491+1014811297+1018235338+1015267320+1008214166
382+999064525+986974709+971311831+952247149+928868497+903284425+885601276
##END=
