##TITLE=STM-JPK 025 (2)
##JCAMP-DX=5.0
##DATA TYPE=LINK
##BLOCKS=1


$$ === CHEMSPECTRA SPECTRUM ORIG ===
##TITLE=STM-JPK 025 (2)
##JCAMP-DX=5.00
##DATA TYPE=INFRARED SPECTRUM
##DATA CLASS=XYDATA
##$CSCATEGORY=SPECTRUM
##ORIGIN=Lara
##OWNER=
##XUNITS=1/CM
##YUNITS=TRANSMITTANCE
##XFACTOR=1
##YFACTOR=7.8298751e-010
##FIRSTX=3997.453
##LASTX=373.96442
##MAXX=3997.453
##MAXY=0.8407264363736306
##MINX=373.96442
##MINY=0.34481149939241806
##NPOINTS=2559
##XYDATA= (X++(Y..Y))
2559H09253221H08909061H08312243H07783406H07527323H07572236H07840500H08170880
2551H08394915H08481317H08513822H08514050H08427344H08330971H08487711H09023553
2543H09628896H09861152H09761657H09824993H10318052H10946993H11226979H10996247
2535H10554952H10369132H10594232H10990233H11251569H11134261H10450814H09349898
2527H08397884H08090188H08377863H08766632H08898099H08971103H09405622H10094246
2519H10399353H10086405H09565712H09293643H09509913H10251139H11188766H11721410
2511H11549521H10846966H10002058H09503975H09610169H09993989H10184606H10108405
2503H10020024H10216806H10700426H11123526H11260628H11212744H11000205H10407346
2495H09508998H08998660H09619609H11191202H12787155H13756526H13878630H13137404
2487H11761147H10323381H09712176H10330537H11188918H11363091H11352129H11860566
2479H12264788H11811085H11417216H12005812H12495369H11848919H10923776H10832807
2471H11325105H11750261H12352712H13002207H12906899H12338324H12375777H13220837
2463H13905807H13810651H13018878H11773479H10570862H10655208H13001294H15481967
2455H16083352H15383690H14292139H13371259H12920373H12784567H12455404H11897639
2447H11825625H12599279H13589356H14408077H15270189H16014992H16042016H15290818
2439H14392624H13709633H12975868H12405085H13230962H15499248H16894308H16943940
2431H17332405H18246967H18250468H17082640H15588999H14547157H14381281H14657842
2423H14410817H14034838H15021185H16987180H17601962H16788571H16116466H16099338
2415H16269019H16438169H16577629H16393560H15791946H15173358H14882181H14814735
2407H14954347H15754874H17290689H18436289H18157596H16843152H15470320H14771268
2399H15133545H16249608H17157699H17491810H17542966H17168509H16207892H15560527
2391H16536827H18771009H20243259H19996539H18629949H17320377H17254605H18066323
2383H18180281H17908288H18905902H21025440H21470693H19593612H17178024H15649594
2375H15631324H17138059H19390359H21044700H21244831H20079591H18279091H16886010
2367H16792377H17965610H19424234H20237702H20270664H20071141H20052415H20048837
2359H19920491H20198574H21450444H22842307H23190500H22564909H21490638H20508554
2351H20149930H20298069H20097861H19304186H18532509H18209133H18213471H18327353
2343H18671209H19700490H21438416H22834009H23052182H22220369H20962257H20013515
2335H19618504H19294975H18921431H19573667H21303143H22047337H21581530H21594624
2327H22580971H23043352H22414867H21473129H20944063H20959059H21149752H21322554
2319H21936652H23203214H24012723H23388273H21869358H20929599H21686659H22999504
2311H23216307H22601677H21919296H21465136H21177994H21018056H21032748H21090222
2303H20819218H19910290H18693971H18695798H21774201H26053929H27138858H25208794
2295H22740300H21237752H21155613H22151704H23036501H23015719H22725151H22961366
2287H23400909H23335671H23021809H22981310H22788411H21960555H21054063H20889558
2279H21487821H22117296H22385787H22702847H23463788H24231582H24175858H23286342
2271H22595968H23257795H24910461H25753922H25268170H24386038H23938426H24068066
2263H24395859H24449374H24019422H23259470H22432909H21638472H21042111H21239579
2255H22573815H23969941H24387942H24246502H24097374H23751844H22986411H22222957
2247H22008666H22363406H22837130H22925207H22578383H22343005H22730327H23390100
2239H23408217H22647199H21842790H21573994H21886714H22534992H23146653H23337498
2231H22980473H22336915H21855654H21815766H22152770H22610583H22913863H22812694
2223H22294742H21762173H21698458H22189614H22900009H23418951H23557269H23474522
2215H23525678H23756716H23776204H23433643H23106003H23025463H22854563H22353130
2207H21869358H21830915H22234528H22714950H22909449H22772424H22588051H22610964
2199H22743116H22726369H22545497H22420957H22507967H22736722H22898182H22827615
2191H22529891H22224251H22275940H22922009H23979457H24900032H25254468H25176669
2183H25182150H25508115H25849002H25902594H25912565H26271189H26822332H27078872
2175H26985391H26928145H27084200H27266595H27304962H27176159H26871127H26457695
2167H26151978H26092677H26139189H26042434H25766635H25571908H25742580H26225667
2159H26616719H26586574H26241044H25918808H25716317H25409915H24885036H24391900
2151H24181187H24122114H23981360H23814723H23787623H23865346H23958522H24137796
2143H24441153H24684219H24700966H24625070H24762474H25303263H26259694H27498851
2135H28652671H29211123H28978867H28332568H27827177H27675232H27752954H27929717
2127H28176589H28459773H28685863H28755212H28669877H28569315H28606541H28815808
2119H29145503H29523615H29840902H30013248H30107261H30264992H30477837H30546654
2111H30321325H29985082H30000992H30580757H31299602H31569616H31411962H31317492
2103H31476668H31709229H32034890H32690171H33583799H34279730H34581336H34729551
2095H34974748H35311067H35666036H36026410H36317433H36392950H36166023H35605821
2087H34645890H33167092H31011623H28055018H24343409H20091010H15509220H10770156
2079H06143986H02086923G99150719G97729244G97810849G99017349H00869994H02924066
2071H04809977H06379744H07762243H09179227H10724862H12305819H13777841H15119689
2063H16382370H17540302H18622033H19831349H21192610H22280583H22719213H22764812
2055H23028279H23759304H24689776H25506136H26192781H26850954H27417093H27780665
2047H28074277H28609434H29518666H30557235H31266564H31334696H30854197H30246342
2039H29926847H29998556H30264916H30568045H30988405H31554772H31970565H31948261
2031H31694613H31732295H32235936H32785708H32925625H32791874H32878808H33332283
2023H33880761H34295944H34505440H34464332H34277142H34222256H34453675H34914305
2015H35569434H36452099H37452529H38220626H38365416H37879435H37279726H37066273
2007H37184646H37302792H37360875H37529643H37860253H38267063H38685368H39064849
1999H39335853H39498303H39636697H39806607H40019147H40287258H40497058H40377390
1991H39873217H39359071H39200351H39358690H39673389H40188449H40925183H41604900
1983H41852457H41589294H41147847H40979612H41239578H41701350H42026174H42033177
1975H41809979H41608782H41555267H41540575H41480817H41509363H41812492H42413191
1967H43099760H43516846H43507255H43367033H43504743H43920764H44306791H44514460
1959H44599796H44523290H44126453H43392839H42492894H41568284H40651363H39763140
1951H38835257H37592446H35839067H33865460H32268897H31376564H31023498H30774190
1943H30207138H29123731H27636637H26058572H24671963H23604391H22888819H22554936
1935H22547476H22558514H22182230H21390838H20696734H20663848H21376527H22507814
1927H23755117H25054489H26470636H28017945H29566397H30895990H31897562H32675175
1919H33353369H33859750H34039100H33953079H33927654H34228879H34751855H35137198
1911H35185613H35043717H34978859H35117025H35371357H35505794H35368541H35149759
1903H35217205H35602929H35914354H35882078H35716887H35754721H36052673H36519698
1895H37162190H37951374H38651339H39033105H39121942H39086621H39040032H39033485
1887H39072385H39073983H38926607H38581001H38008011H37106542H35726555H33845134
1879H31809257H30339671H30054051H30950495H32562891H34525004H36659539H38674101
1871H40209686H41219633H41993212H42757884H43492867H44157816H44817969H45426205
1863H45730170H45522579H44774121H43489518H41720381H39750123H37968502H36549919
1855H35490036H34862007H34731758H34857973H34792506H34371308H33866602H33495721
1847H32996573H31882717H29940700H27267204H24055734H20618858H17393381H14650762
1839H12314040H10189249H08277531H06836568H06186844H06346249H06808706H06888409
1831H06386138H05742580H05440822H05450947H05419431H05239473H05171874H05460767
1823H06121301H07129723H08510929H10128882H11618566H12654926H13182775H13320027
1815H13123321H12504732H11352586H09698854H07729890H05571527H03086896H00025468
1807G96440606G92821031G89699007G87274741G85542297G84600331G84608400G85465716
1799G86733115G87980950G89127235G90321174G91626788G92980056G94281406G95308176
1791G95667027G95048743G93491385G91417445G89543028G88563837G88623365G89177097
1783G89604461G89842350G90279458G91244109G92788831G94796237G97059651G99332962
1775H01502590H03699319H06070069H08454597H10474564H11911874H12791266H13134359
1767H12926615H12384075H11985867H12090767H12638864H13306021H13826561H14092693
1759H14094748H13875737H13420436H12527493H11001271H09082321H07450589H06621744
1751H06528187H06833599H07424554H08413793H09847145H11581036H13345453H14823946
1743H15703718H15668397H14437689H12023549H08984577H06268982H04771457H05036068
1735H07104146H10392807H13890658H16768169H18827722H20343439H21623171H22811933
1727H23960578H25081894H26118026H26967730H27600554H28122388H28717835H29502224
1719H30392121H31175443H31762212H32283894H32903853H33653148H34446976H35109489
1711H35460652H35566769H35782430H36387926H37315581H38284876H39034704H39451334
1703H39651160H39873445H40179313H40393148H40401902H40340393H40403881H40607515
1695H40810692H40924497H40977861H40981590H40904400H40847460H41017674H41436436
1687H41893717H42246783H42540929H42847635H43205344H43672825H44248099H44773969
1679H45070398H45140813H45140890H45145229H45065602H44880543H44811498H45092550
1671H45640952H46131346H46351043H46343963H46277887H46277583H46348455H46394510
1663H46345486H46276213H46330261H46483119H46468047H46047153H45332952H44718169
1655H44470460H44474418H44359546H43820736H42886306H41975475H41603910H41896381
1647H42458180H42824341H42920029H42988998H43241199H43724667H44399131H45159007
1639H45865748H46495071H47170829H47925301H48522955H48721031H48630443H48610042
1631H48842146H49204271H49512043H49729759H49996195H50508058H51276764H52014488
1623H52406835H52468343H52495215H52726025H53169071H53692960H54167141H54536878
1615H54831556H55105986H55351564H55492851H55510283H55521703H55661391H55909177
1607H56123240H56228444H56289952H56414873H56648424H56974922H57363310H57785650
1599H58207988H58571256H58756542H58605055H58090300H57471103H57124507H57160514
1591H57335905H57412639H57420860H57434487H57311698H56925441H56475621H56263081
1583H56260721H56160541H55778698H55256028H54895273H54855916H55018976H55180436
1575H55304976H55509371H55887862H56419136H56951856H57367040H57853477H58769104
1567H60063603H61184539H61769252H62085093H62568333H63248278H63872119H64339677
1559H64724944H65036293H65233000H65375124H65542979H65722329H65918730
1552H66248883H66794773H67456144H68027610H68395521H68631280H68857065
1545H69048671H69057882H68826616H68507196H68351293H68453224H68595958
1538H68466318H67998075H67327265H66551859H65814744H65401007H65359747
1531H65229498H64520168H63310776H62054491H60999556H60148939H59603202
1524H59494724H59673541H59894454H60267237H61096463H62327017H63512887
1517H64276493H64602383H64850549H65534301H66804212H68178186H69084069
1510H69545537H70019793H70759116H71647186H72500999H73226696H73711381
1503H73796793H73504551H73185208H73189851H73390440H73341188H72989872
1496H72852087H73306627H74053180H74514421H74549438H74519521H74820746
1489H75564408H76557530H77385081H77681967H77514720H77353946H77594880
1482H78247192H79007297H79466480H79443415H79255235H79408702H80002702
1475H80702973H81164213H81189638H80736392H80057513H79597415H79585464
1468H79921021H80420932H80922517H81212552H81113438H80671077H80166142
1461H79913104H80017090H80298599H80454655H80321284H80017928H79845886
1454H80039014H80593430H81283576H81818504H82045279H82041930H81984684
1447H81961009H81967632H81984989H81994885H82055328H82382664H83145661
1440H84127517H84788202H84769552H84248250H83720402H83475661H83415751
1433H83366346H83290602H83074637H82485660H81617154H81001610H80943071
1426H81086566H80988365H80776586H80887652H81395479H81893943H81951570
1419H81595230H81362212H81743369H82578837H83311080H83824541H84478908
1412H85314148H85984958H86475048H87007921H87356039H87060828H86148626
1405H85115995H84596368H85048625H86161186H86964377H87152938H87471596
1398H88270296H88822961H88518995H87641505H86872495H86655692H86896855
1391H87208662H87538205H88142559H88977570H89624629H89813571H89627979
1384H89242255H88889265H88970490H89665356H90551523H91090638H91282167
1377H91466465H91735642H91938286H92092133H92372044H92873172H93572986
1370H94249200H94463721H94067873H93599325H93670273H94165388H94535049
1363H94598385H94519671H94290461H93860205H93528910H93596204H93780198
1356H93549464H92921435H92443600H92441622H92698466H92867006H92924252
1349H93209643H94129534H95722442H97411724H98330167H98027496H96874284
1342H95790802H95538144H96139833H97001183H97628603H98066928H98619060
1335H99463435I00621215I01917694I02877473I03038248I02510476I01942206
1328I01809444I01986053I02168676I02430165I03070297I04100872I05096278
1321I05450181I04815454I03581321I02769833I03067480I04134748I05130915
1314I05630445I05799898I05971940I06289684I06657823I06890536I06881553
1307I06727401I06682639I06786397I06663304I06215539I06263117I07711997
1300I10222358I12299420I12633454I11198810I09301327I08467762I09047908
1293I10031819I10222435I09438275I08774316I09601487I11873198I13883802
1286I14463948I14546011I15464911I16840712I17476962I17341840I17286802
1279I17519287I17551564I17093674I16143182I14866267I13960917I14352578
1272I16060282I18135668I19901075I21297886I22044060I21513851I19680998
1265I17486097I16082358I16202635I18030540I20820965I23038095I23925556
1258I24209273I24741460I25378928I25559800I25330893I25124671I24803502
1251I23804594I22321761I21444426I21798025I22768995I23358808I23214704
1244I22677721I22233458I21959712I21466274I20553082I19594445I18935814
1237I18448845I18070277I18195959I19169212I20776737I22392481I23381950
1230I23453964I22827839I22068496I21715506I21979582I22621846I23164385
1223I23319071I23196130I23185320I23691549I24789038I26056970I26934687
1216I27227387I27125151I26818369I26302928I25646506I25305392I25759247
1209I26721613I27305567I27194957I26962473I26956840I26706922I25905787
1202I25192346I25298845I25981607I26467206I26588168I26880943I27792460
1195I29174883I30433376I31141031I31582477I32367399I33429261I33919808
1188I33303960I32131945I31562076I32393129I34495539I36876946I38456304
1181I38984990I38991232I38918305I38784782I38805716I39590257I40960348
1174I41416183I40014576I37939494I36838808I36872758I37450089I38230975
1167I38827945I39069564I39567267I40771026I42028072I42721340I43500552
1160I45120636I46804818I47187953I46439419I46241648I47668071I49871956
1153I51334462I51660580I51344511I50638150I49557333I48404882I47602300
1146I47338223I47846812I49487831I51955944I54038029I54864514I54670397
1139I54087510I53425454I52698464I51897556I51116289I50623839I50829832
1132I51923896I53387087I54096493I53319183I51661875I50751272I51844421
1125I54588714I57190882I58101943I57411797I56499443I56323976I56464350
1118I56243741I56059367I56825866I58451279I59680616I59544201I58361528
1111I57157313I56693713I57243942I58513396I59632429I60034520I60032693
1104I60132568I60304761I60235032I59918809I59752934I60231987I61539199
1097I63356371I65162123I66485093I66906824I66410567I65739223I65900228
1090I67063108I68317184I68832701I68591538I68062853I67635413I67428049
1083I67482325I67855641I68621836I69838917I71243797I72199770I72405155
1076I72268739I72207077I72126081I71861549I71430455I70786593I69991014
1069I69460652I69568979I70261409I71173306I72026663I72806560I73469149
1062I73828000I74000270I74508631I75682852I77407533I79315826I80796983
1055I81471219I81753032I82018175I82031115I81619053I81100949I80743239
1048I80495149I80396339I80599286I81102852I81818424I82603725I83222847
1041I83677463I84381997I85484586I86320207I86501003I86611155I87229135
1034I88212741I89023469I89534646I90144100I91244558I92731881I93902982
1027I94395052I94805897I95747711I96954362I97854689I98366246I98585637
1020I98436585I97846772I96887982I95860451I95414513I96160382I98021706
1013A000415826A002782312A004772971A006449237A008159910A009948154A011539159
1006A012960711A014550878A016722181A019873742A023624403A026534039A028067570
999A029085737A030469455A032489727A034876006A037326229A039807969A042211453
992A044210410A045742798A047262093A049501757A052784480A056296033A059156874
985A061450129A063393820A064924458A066208148A067646675A069178988A070470823
978A071695897A072934293A073679934A073741822A073541463A073393553A073244501
971A072873469A071838707A069760580A066738204A062672691A056352822A046673118
964A034138662A017610556I90448979I47207822H99381068H58666107H20393529
957G80812826G41730585G04275815F69226583F39819100F18531529F04829474
950E98001969E98832489F06343022F17002870F29103986F42791007F57850592
943F73686878F90440845G07208668G20908136G31292984G42560877G56991293
936G70488269G81379878G91827223H00679074H06807716H12087189H18121742
929H24282433H29625317H35448776H43486701H50574971H53318047H53683597
922H54111341H56008672H60216386H65983056H71213274H75664359H80949846
915H86853616H91011544H93287214H95375694H98404465I01997244I05067503
908I07304806I09000406I10772284I14319388I21099962I26477558I27689235
901I27874218I30045292I34725663I39047793I41678204I43466067I45047404
894I46685835I48933948I52533349I56498910I58789425I59615758I60247288
887I61526410I63426253I65501411I67998527I71446517I75096237I77509769
880I77886205I74709067I65103279I48248217I24765059H92682328H50272452
873H01771615G58296374G30391287G21381860G28367513G45489392G66276292
866G86244623H04128890H20496907H35856576H49984320H62492741H73500212
859H83431205H92472224I00556204I07649422I13754238I18722970I22250737
852I24012795I23598905I20754127I16882961I14302259I13471207I13823740
845I14406550I14116439I12861371I10881751I07867443I03451604H96999356
838H87358094H78304058H77430984H82988007H91691261I01544987I11324796
831I20631871I28741201I35164522I40645649I46002921I51320684I57425119
824I64422953I68692556I69606508I69429975I69785477I71228801I73163280
817I75158888I77543491I80209758I81852604I80782367I75319891I64871023
810I53158104I44575355I39561330I36386399I32190333I23988968I10496103
803H92472833H70784464H47207293H30182854H22250057H17643146H14931434
796H16541622H26221099H45557215H68838719H87740697I01167257I12973732
789I26353171I40303164I50910677I56922163I58912975I56231561I47217109
782I31309723I09815168H84622251H58147546H34023038H16621477H09146494
775H09810225H13878097H18346005H21665572H22788182H22110673H21213544
768H21004962H21910313H25077022H31366973H39350240H48031418H56955358
761H64740321H69751530H71596411H71497219H70541323H67776552H61070276
754H50602224H41327044H41917239H57602113H79603429H96708789I08861251
747I19751414I30566061I40364064I48809865I56520225I63489360I69041663
740I73486353I78033811I82367358I84610828I84267201I81706064I76834848
733I69319823I58941294I45246394I27097442I04244900H80313520H60952739
726H49584513H47742068H55094491H68392248H83384845H96151556I04173038
719I08101526I10376359I13110452I17257190I22522122I28322972I34418044
712I40483732I45938900I50358468I53588970I55059470I53151862I46003758
705I32665655I13155213H90113273H70259053H60627153H64269642H78619366
698H94998800I04928498I06192625I00059263H88573500H74998726H63505427
691H57373206H57698335H63298901H71795705H81180123H90570859I00307505
684I11768069I26187676I42721644I58676151I72241562I83298896I92275437
677I99602130A005814814A011534668A017195829A022839634A028170414A032800087
670A036586450A039812841A042909744A045911339A048201548A048487929A044654368
663A033872758A013805085I85397804I55821782I36777299I36169977I51129459
656I70499526I83177477I83387124I70139685I44917916I10769924H72103019
649H33745868G99312256G70039133G45209558G23847917G06193623F93761403
642F87789577F87066926F87161473F82274195F68500658F46111107F19411340
635E94477017E76093373E65623265E61316476E60722970E62993692E69310933
628E81447447E99680860F21538453F42202639F55710348F55829712F37781130
621F01592578E54191133E06960055D70011018D48001024D40379309D44276626
614D56801413D75627456D98726528E24226152E50561624E76599906F01534152
607F24600414F44754184F60645737F71352364F77568092F82002886F88172027
600F98332231G12116882G26652730G38066935G43932948G45314076G46530320
593G52303538G64501142G81394418G99755833H17216391H32903016H46851563
586H59366073H70692583H80925486H90050090H97921302I03982803I06840370
579I04313564H94635839H78367546H59185201H42163806H30499761H23348155
572H16292086H03229934G77990657G36035625F77586211F11306844E54352860
565E25066568E31773415E67518388F15773457F61374022F97153670G22883875
558G40880426G53254791G61505104G66884832G70567058G73545891G76673624
551G80963096G87506009G96670426H07548181H18574759H28656022H37519899
544H45206205H51600370H56554104H60224988H63061010H65448204H67485071
537H68975439H69321654H67322164H61300933H49723212H32039458H09502300
530G85528976G64760498G50685432G43524996G40441491G37654111G31852119
523G19846121F98498031F66731902F28088369E90808495E64563458E55567657
516E62960996E78935448E92933133E97368383E91140132E79085109E68624365
509E66036698E74053118E91469180F14534985F39041868F61990860F82180942
502F99483388G13600170G23828887G30107038G33906571G37842063G44292865
495G54091325G66236783G78799024G90103001G99211619H05776075H09868917
488H11970794H12876906H13501204H14821967H17889181H23474902H31462890
481H40723453H49702050H57062542H61813404H62866361H58403553H46040835
474H24576502G96301831G67413746G45382893G35049049G36545889G46353103
467G59794583G72546831G80653649G80229863G68134799G44074083G12934993
460F84714065F70349726F75208457F95124872G19329311G38803974G52375094
453G64766893G80053711G98228545H17019076H34811308H51295795H66522627
446H80307505H92387802I02714719I11282243I16668061I13690826H94198426
439H54492268H03726115G61541720G43617107G49355459G63904629G70244517
432G59931683G37471336G17572278G15234338G34849602G68679547H05597411
425H38556259H61882297H64067912H30041186G56887231F66458995E94811928
418E64712586E70824329E91950593F12363378F29816969F49194231F73909695
411G02772201G31935476G58083834G79865454G97462578H11632649H22915158
404H31378087H37102508H40735861H43392230H46135686H49592429H53786061
397H57957691H60534587H60140565H57458390H55492014H57005675H61956062
390H67891728H72373719H74747590H76229280H78645096H82795944H87926060
383H92809913H97076471I01279541I05955649I10964727I15720385I19795718
376I23239672I26453047I29803977I33305635I36701860I39829364I42718447
369I45389661I47781268I49874696I51743176I53497087I55081470I55763470
362I53827925I47652009I37900823I28171104I22137769I19827158I17883010
355I13971117I09730290I08589942I11646956I16488711I19145842I16717009
348I09768656I03320595I03742630I12907047I26152202I36610205I39905565
341I33921179I16654892H87257229H49432569H12333909G86461579G77311929
334G82578384G95702501H11849299H30217338H51543809H74934856H97583461
327I16766034I31277598I40722763I43669928I37176040I19240998H92386051
320H63801323H40146427H22271905H07023149G93928036G86423669G85112269
313G83649687G74359511G55716282G31822507G06801098F83155642F64665042
306F56750591F61896313F76063185F90928804F98394577F92094425F68299613
299F30360195E91610315E68857649E70262986E90541031F18449962F47297585
292F77453982G10955296G46729387G81323165H12086655H38522613H61340442
285H80977403H97204969I10007307I20110189I28144003I33872992I36795417
278I36938912I34160971I26311531I08490219H75505410H26817688G69890766
271G18487905F86757175F82387087G01948152G31824029G56092642G66270659
264G64196643G55764697G43229937G24010672F95026975F56862114F15344381
257E80616394E62864622E66241740E86786525F16486821F47957891F75539219
250F95359945G06777651G12509000G15898678G18878425G22452477G27155838
243G33085719G41374094G54806820G74646653G97482448H17036964H28199426
236H28530873H18289977H01565621G86254672G79702928G83130897G91442110
229G99523654H07807614H20376477H38883292H60314358H80132039H95948075
222I08004239I17337577I24541709I30039735I34443774I38176394I41285933
215I44041113I47187116I51097791I55144349I58580387I61603448I65040019
208I68977109I72768802I76451179I80090775I83236245I85727424I88113855
201I90639290I92594095I92849113I90200736I83402349I72151507I58751972
194I48114618I44904747I50124004I59821903I66614353I63465000I48203684
187I26237462I08768150I06014950I19787573I42983436I66407903I84744958
180I97111712A004895381A010050389A014015950A017250943A019808275A021877038
173A023576749A025026923A026688496A028727342A030212458A029904686A027719985
166A024559746A020641002A014319155A001834409I77515935I36451714H81315016
159H26886961G93113959G91177805H16569788H54681211H91854929I21872779
152I44782414I62634861I76787878I87442055I94388658I97950758I99454981
145A000744836A002852348A005067345A005700323A003685227I98776330I90760938
138I79824110I67498541I55769560I45406713I36602440I30565757I28514274
131I29548122I31610948I34231767I38397764I43966663I48834529I50775554
124I49474737I46880181I45825626I48134638I53738707I61229448I68999413
117I76095753I82080749I86130961I86789057I82802335I74047087I61750369
110I47777082I33972030I22667444I16661742I17469273I24430643I35552987
103I48408079I60477488I69716431I75561282I78874836I80603474I80872575
96I79321078I75741241I69995505I61597130I50231797I37012448I24047127
89I12378437I02029673H93660225H88601286H87641811H90658554H97060636
82I06009698I16377493I26878127I36405430I44310213I50554642I55640910
75I60173142I64571701I69202286I74031862I77836419I79111355I78397230
68I77531616I77126329I76803332I77067865I79528366I85106780I92977840
61A001522678A009465676A016292153A022150173A027063562A030786514A033849008
54A037500936A041693577A044753787A046386965A048977106A053853194A058796805
47A061473575A062308434A063028269A064641883A067060820A069490795A070592775
40A069307639A066181732A062419500A057193543A048089645A034486857A017244320
33I97473304I80785944I73582270I74996818I82460916I94689578A009312285
26A021990083A029087640A030582500A029827267A030595213A034674123A041448227
19A048418351A052619366A053335318A050921101A044009897A032542175A019603651
12A008622900A000904013I97072356I98903382A006060316A012999001A015096159
5A013182690A010992812A011716529A014682346A015978824
$$ === CHEMSPECTRA ===
##$OBSERVEDINTEGRALS= (X Y Z)
##$OBSERVEDMULTIPLETS=
##$OBSERVEDMULTIPLETSPEAKS=
##END=


$$ === CHEMSPECTRA PEAK TABLE EDIT ===
##TITLE=STM-JPK 025 (2)
##JCAMP-DX=5.00
##DATA TYPE=INFRAREDPEAKTABLE
##DATA CLASS=PEAKTABLE
##$CSCATEGORY=EDIT_PEAK
##$CSTHRESHOLD=0.93
##MAXX=3997.453
##MAXY=0.8407264363736306
##MINX=373.96442
##MINY=0.34481149939241806
##$CSSOLVENTNAME=
##$CSSOLVENTVALUE=0
##$CSSOLVENTX=0
##NPOINTS=0
##PEAKTABLE= (XY..XY)
##END=


$$ === CHEMSPECTRA PEAK TABLE AUTO ===
##TITLE=STM-JPK 025 (2)
##JCAMP-DX=5.00
##DATA TYPE=INFRAREDPEAKTABLE
##DATA CLASS=PEAKTABLE
##$CSCATEGORY=AUTO_PEAK
##$CSTHRESHOLD=0.93
##MAXX=3997.453
##MAXY=0.8407264363736306
##MINX=373.96442
##MINY=0.34481149939241806
##NPOINTS=195
##PEAKTABLE= (XY..XY)
3991.786872431587, 0.6322838078927357
3979.0380854026585, 0.6329130542391722
3971.9554259421425, 0.634033263507904
3962.0397026974197, 0.6345089088455413
3950.707447560594, 0.6327245241575519
3936.542128639562, 0.6336668143913989
3925.2098735027366, 0.6338315017203522
3918.1272140422207, 0.6342355616419002
3905.3784270132915, 0.6334358463867366
3892.6296399843627, 0.6339945205029217
3886.96351241595, 0.6352785832189087
3881.297384847537, 0.6353295455269722
3874.214725387021, 0.6348719605792406
3865.715534034402, 0.6360507615863332
3855.799810789679, 0.6346668609159336
3838.801428084441, 0.6356493246729438
3823.2195772713058, 0.6361030346154883
3807.6377264581706, 0.6376503714008003
3803.3881307818606, 0.6373791108588733
3794.8889394292414, 0.6389955885732683
3783.556684292416, 0.6379897604689598
3772.2244291555903, 0.6379557263508626
3760.8921740187648, 0.6385737070730052
3750.976450774042, 0.639900148987971
3746.7268550977324, 0.6404119738294829
3736.81113185301, 0.6386291394567633
3725.4788767161845, 0.6395382294542112
3714.146621579359, 0.6419875036460674
3702.8143664425334, 0.6421671515173742
3695.7317069820174, 0.6406475317069288
3677.3167923846754, 0.6412052521443268
3671.6506648162626, 0.6432880772196777
3663.1514734636435, 0.6427889477376532
3650.4026864347147, 0.6427776226063084
3639.0704312978887, 0.6428468833324805
3631.9877718373727, 0.6410271538053022
3620.655516700547, 0.6429545887453936
3614.9893891321344, 0.644183517395864
3602.2406021032057, 0.6427462710034205
3589.491815074277, 0.6440823687203596
3580.9926237216573, 0.6451334965670592
3569.6603685848318, 0.6428657180970336
3555.4950496638, 0.6436225185897616
3548.412390203284, 0.6438843018508675
3539.9131988506647, 0.6432821758428149
3528.5809437138387, 0.6434714802990826
3518.6652204691163, 0.6433796296002595
3511.5825610086004, 0.6447702655292202
3497.4172420875684, 0.6434833417768716
3490.3345826270524, 0.644076169808243
3483.2519231665365, 0.6439453372932471
3474.7527318139173, 0.643791318952105
3466.2535404612977, 0.6461030253704042
3452.0882215402657, 0.6474744092024689
3440.75596640344, 0.6468202481934643
3435.0898388350274, 0.6464124925708691
3413.841860453479, 0.6450154197015887
3403.9261372087567, 0.6456711302428757
3389.7608182877248, 0.6480593689923523
3378.428563150899, 0.6487594255972431
3361.430180445661, 0.6498679526923258
3352.9309890930413, 0.6509112130805249
3313.2680961141514, 0.6246120344137425
3260.856416106333, 0.6498223554146809
3249.524160969507, 0.6512064941132836
3242.441501508991, 0.6520656357714937
3231.1092463721657, 0.6531856070120226
3216.9439274511337, 0.6554124368012502
3190.0298215011726, 0.657083393220616
3177.281034472244, 0.6584765323606461
3164.532247443315, 0.6588689696155956
3154.6165241985927, 0.6603458531847578
3113.5370993275997, 0.6440444000900247
3106.4544398670837, 0.6425695428925384
3085.2064614855353, 0.6529549373256015
3076.707270132916, 0.653778017711051
3069.6246106724, 0.6539118302765101
3062.541951211884, 0.6543558844170814
3046.960100398749, 0.6569527400097598
3031.3782495856135, 0.649921954557903
2997.381484175137, 0.6535845407143426
2971.883910117279, 0.6312342295783184
2963.3847187646597, 0.6306501036701332
2957.718591196247, 0.6304395207452937
2925.1383576778735, 0.6143322595148658
2902.473847404222, 0.6174356352086758
2872.7266776700544, 0.6357747921575212
2852.8952311806097, 0.6315014968839443
2833.063784691165, 0.6301260000184895
2777.8190408991395, 0.6579760318674914
2766.486785762314, 0.6583730589952246
2742.4057435965597, 0.66147685123839
2732.4900203518373, 0.6626247774819883
2726.8238927834245, 0.6626237047890996
2716.908169538702, 0.6612098227439546
2708.408978186083, 0.658965349897164
2684.3279360203283, 0.6644510637465754
2629.0831922283032, 0.6711177834959076
2607.8352138467553, 0.6693415058605966
2555.4235338389362, 0.6799082167113504
2531.342491673182, 0.6729736338028972
2498.7622581548085, 0.6836931117807521
2491.6795986942925, 0.6834322821984333
2484.5969392337765, 0.6847378621941826
2474.6812159890537, 0.6869571815672144
2466.1820246364346, 0.6884458671071149
2453.433237607506, 0.6887044322895546
2442.10098247068, 0.6889609703173311
2433.6017911180606, 0.6889083394628839
2422.269535981235, 0.6905644543539976
2393.938898139171, 0.6897674216140431
2389.6893024628616, 0.6896370659384409
2381.1901111102425, 0.6900956045649596
2361.3586646207973, 0.6926279075353636
2345.776813807662, 0.6942403325064069
2331.6114948866298, 0.6959891922680801
2308.9469846129787, 0.6996771104194307
2297.614729476153, 0.6996219763539141
2289.115538123534, 0.6987706434301412
2272.1171554182956, 0.7011951814805815
2253.7022408209536, 0.7061055310520444
2239.5369218999217, 0.7068575036437859
2222.538539194683, 0.7099211818708389
2218.2889435183733, 0.7095554484049179
2206.956688381548, 0.7113189108836526
2199.874028921032, 0.7115589388367931
2185.70871, 0.718224109053843
2177.2095186473807, 0.7156199826391466
2163.044199726349, 0.7172810444453486
2141.7962213448004, 0.7214794767171192
2123.381306747459, 0.7188375601932403
2110.6325197185297, 0.72169172897133
2102.1333283659105, 0.7228425749753532
2087.9680094448786, 0.7245025648716539
2075.21922241595, 0.7244140512655984
2052.5547121422987, 0.7294014702976708
2041.222457005473, 0.7350567588840728
2031.3067337607504, 0.733533085547288
2010.0587553792022, 0.7408953918258164
1995.8934364581703, 0.7417539963545947
1978.8950537529317, 0.7443265926452509
1968.9793305082094, 0.7444263710926127
1959.063607263487, 0.7487897287215397
1954.8140115871772, 0.7485825431795061
1944.898288342455, 0.7490792281745247
1937.8156288819387, 0.7516936078106644
1930.7329694214227, 0.7514745600078543
1919.4007142845971, 0.7561617503090922
1908.0684591477716, 0.757484079190668
1886.8204807662232, 0.759075582735444
1855.656779139953, 0.7676380882867259
1811.7442904847535, 0.7793971309517326
1718.2531856059418, 0.4682280726824072
1604.9306342376854, 0.5648329863205686
1572.350400719312, 0.7152365458256246
1556.7685499061763, 0.6870175013590099
1535.5205715246284, 0.7590515622446122
1501.5238061141513, 0.6380811343283893
1471.7766363799842, 0.6335515985622899
1460.4443812431587, 0.6428366308940247
1439.1964028616103, 0.6587485680602079
1399.5335098827209, 0.6637714517285581
1365.5367444722438, 0.6738603123488465
1351.3714255512118, 0.6713125117066571
1304.625873111806, 0.7330093992279872
1280.5448309460512, 0.5379648215920942
1266.3795120250193, 0.43903908208010467
1245.1315336434714, 0.34481149939241806
1172.8884071462076, 0.4111205646625657
1104.8948763252538, 0.43500253639096403
1093.5626211884282, 0.443199664735642
1038.3178773964032, 0.5755342253873654
1022.7360265832681, 0.5248754627899223
990.1557930648942, 0.5822429070033336
980.2400698201718, 0.5600195533771184
964.6582190070367, 0.44216290157780086
929.2449217044564, 0.6698395618667451
872.5836460203282, 0.7114145762976244
864.084454667709, 0.7072887434107684
847.0860719624702, 0.6086255317810068
806.0066470914776, 0.5142275099381184
793.2578600625484, 0.44540843413496395
753.594967083659, 0.5343005661062834
735.180052486317, 0.4407159688468712
701.1832870758403, 0.6104976541344292
645.9385432838153, 0.73984861504071
634.6062881469898, 0.7093983897232745
594.9433951680999, 0.6194823395042155
559.5300978655196, 0.7270150793987177
545.3647789444876, 0.7405696517959313
524.1168005629397, 0.7177346956638299
492.953098936669, 0.6950124513667806
466.03899298670785, 0.7648248086823833
416.46037676309606, 0.7623027573674477
386.71320702892854, 0.7806952013142735
##END=

##END=

