##TITLE=RB- 527-2
##JCAMP-DX=4.24
##DATA TYPE=INFRARED SPECTRUM
##DATE=21/2/2019
##SAMPLING PROCEDURE=Diamant- ATR
##ORIGIN=Rieke
##XUNITS=1/CM
##YUNITS=TRANSMITTANCE
##RESOLUTION=4
##FIRSTX=3997.453
##LASTX=373.96442
##DELTAX=-1.4165319
##MAXY=1.0055549
##MINY=0.61744922
##XFACTOR=1
##YFACTOR=9.3649599e-010
##NPOINTS=2559
##FIRSTY=1.0000669
##XYDATA=(X++(Y..Y))
3997+1067881640+1067365213+1066910204+1066825682+1067159571+1067624063
3989+1067733216+1067190567+1066204429+1065362259+1065187931+1065730517
3980+1066519797+1067034506+1067197250+1067226845+1067134431+1066778392
3972+1066366918+1066411025+1067052390+1067779678+1068025226+1067837215
3963+1067642584+1067473284+1066940754+1066092411+1065611307+1065858256
3955+1066272721+1066109786+1065432397+1065041672+1065501517+1066438711
3946+1067096370+1067401173+1067810229+1068289104+1068237042+1067442479
3938+1066295825+1065217081+1064477891+1064313874+1064761945+1065476186
3929+1066010180+1066230460+1066285514+1066223523+1065720397+1064476937
3921+1062903978+1062047615+1062727805+1064575143+1066150647+1066502612
3912+1066044167+1065620218+1065316242+1064671249+1063735710+1063194652
3904+1063492072+1064360782+1065430042+1066547547+1067260005+1066924206
3895+1065578338+1064274095+1064371220+1065752984+1066288060+1064971088
3887+1063388964+1063135588+1063328436+1062567289+1061894800+1062627053
3878+1063455157+1062881575+1061801495+1061464105+1061557920+1061702206
3870+1062593447+1063871150+1064093849+1063565265+1063816668+1064927044
3861+1065426796+1064586854+1062596375+1059661637+1056646514+1056345530
3853+1061033664+1066378374+1067810229+1066371055+1064159023+1062346945
3844+1061413569+1061217602+1061217220+1061482753+1062851024+1065051155
3836+1066176106+1065613280+1064843477+1064972615+1065392045+1065223764
3827+1064626442+1063757223+1062111898+1060144459+1059944864+1062084530
3819+1063755695+1063833789+1064134201+1065197224+1065495153+1064479164
3810+1062878392+1061628758+1061655171+1062734361+1063216992+1062852870
3802+1063218583+1064439831+1064602384+1063657871+1063231185+1063677919
3793+1064021292+1063849255+1063501809+1063208336+1063082825+1063435108
3785+1064287270+1064904514+1064724585+1064323931+1064554776+1065124476
3776+1065104554+1064214904+1062671605+1061019025+1060315159+1061027681
3768+1061923314+1061800731+1060949841+1059950019+1059009834+1058748120
3759+1059868743+1061622330+1062283744+1061336494+1059705490+1059123634
3751+1061103929+1064004362+1064416345+1062676888+1062097196+1064261366
3742+1065900453+1064474264+1061411533+1058913982+1058459610+1060605705
3734+1064424747+1067507271+1067810229+1065427496+1062241164+1060442579
3725+1060915663+1062563915+1063779817+1064028929+1063592569+1062867063
3717+1062010828+1060931766+1059848885+1059764490+1061521768+1064100277
3708+1065774242+1066094638+1065317579+1063970884+1062984555+1062937647
3700+1063111148+1062510961+1061235041+1060014048+1059167550+1058511737
3691+1058232265+1059290006+1061924523+1064318712+1064888666+1063875096
3683+1062244792+1060821721+1059828582+1059025682+1058948479+1061013806
3674+1064213249+1065244258+1064110079+1063530323+1064659284+1065648159
3666+1065146561+1063759641+1062507716+1061723909+1060976827+1060148405
3657+1060190094+1061576504+1062462017+1061037928+1058319525+1057352417
3649+1060160498+1064184990+1065836998+1065218672+1063907746+1062828048
3640+1062111071+1061558492+1061094255+1060829295+1060630591+1059829282
3632+1058126930+1056987914+1058876240+1062911807+1064879691+1063910865
3623+1061792075+1059817507+1058817813+1059547710+1061455321+1062873428
3615+1063333974+1063405130+1063157100+1062445533+1061948963+1062344144
3606+1062928546+1062622661+1061630540+1060964035+1061035064+1061175723
3598+1060693155+1059956448+1059855695+1060376705+1060452190+1059574633
3589+1058668753+1059042676+1060471729+1061232495+1060628745+1059425573
3581+1058526185+1058293430+1058493088+1058656660+1058649786+1058686255
3572+1058664743+1058065448+1056923503+1056468368+1057842685+1059952247
3564+1060799381+1060227518+1059321829+1058768232+1058421804+1057904550
3555+1057216913+1056720089+1056635885+1056747266+1056825870+1057046596
3547+1057545329+1057938982+1057769492+1057072945+1056101700+1055080302
3538+1054375036+1054308844+1054659217+1054787592+1054410169+1053877448
3530+1053706621+1054063486+1054709434+1055311021+1055671705+1055754382
3521+1055636254+1055431249+1055216251+1055057962+1055033586+1055159669
3513+1055383259+1055699137+1056127477+1056526286+1056712388+1056818805
3504+1057108269+1057380867+1057086375+1056195388+1055275824+1054678057
3496+1054287840+1053998185+1053942495+1054310562+1055180864+1056335410
3488+1057169242+1057145884+1056383272+1055461544+1054720763+1054029499
3479+1053256259+1052665238+1052591790+1052876862+1052963421+1052608720
3471+1052181525+1052200937+1052792212+1053579264+1054006205+1053871783
3462+1053564498+1053614143+1054037582+1054366571+1054281921+1053919709
3454+1053495951+1053001864+1052491801+1052320274+1052742313+1053499579
3445+1054140435+1054545672+1054789756+1054765061+1054293123+1053493596
3437+1052811179+1052644934+1052975705+1053382088+1053464192+1053258232
3428+1053097015+1053105544+1053095424+1053010329+1053076839+1053354847
3420+1053538976+1053411683+1053096888+1052743777+1052362853+1052032592
3411+1051926812+1052085418+1052351142+1052536735+1052592872+1052628577
3403+1052752561+1052911995+1052956866+1052828236+1052612666+1052451704
3394+1052421663+1052450876+1052401105+1052233715+1051956280+1051479122
3386+1050814844+1050378803+1050672722+1051601705+1052451704+1052643598
3377+1052272284+1051828669+1051623536+1051610043+1051636329+1051667580
3369+1051702203+1051625318+1051358640+1051109655+1051218618+1051687628
3360+1052073708+1051984666+1051569882+1051330826+1051415221+1051375952
3352+1050846095+1050145857+1049849773+1050078710+1050631288+1051402683
3343+1052209402+1052663074+1052638761+1052441393+1052268720+1052013434
3335+1051699912+1051566254+1051599096+1051484341+1051123721+1050817390
3326+1050846668+1051191059+1051734854+1052435283+1053119100+1053412892
3318+1053093578+1052367690+1051703667+1051459965+1051600751+1051690301
3309+1051290347+1050453142+1049742402+1049740556+1050537410+1051589103
3301+1052092356+1051659815+1050634916+1049685438+1049184795+1049073032
3292+1049173530+1049420796+1049746348+1049966946+1049993360+1050050960
3284+1050457533+1051190486+1051828223+1051973019+1051646831+1051230265
3275+1051065293+1051204806+1051507509+1051818931+1052064352+1052257900
3267+1052406769+1052425609+1052278140+1052132517+1052136972+1052113550
3258+1051758403+1051114937+1050610603+1050613594+1051092152+1051699657
3250+1052072435+1052043221+1051686737+1051265525+1051065102+1051158535
3241+1051345147+1051411275+1051407266+1051527112+1051757894+1051828669
3233+1051501653+1050796960+1050045677+1049835326+1050608057+1052039911
3224+1053113500+1053106117+1052279858+1051401792+1050873081+1050594564
3216+1050468926+1050665148+1051322616+1052210102+1052863242+1052987862
3207+1052640097+1052147283+1051912809+1052112468+1052533235+1052841793
3199+1052907794+1052749760+1052399514+1051969073+1051592795+1051247704
3190+1050876136+1050659038+1050876709+1051549261+1052397413+1053092751
3182+1053466610+1053603386+1053786752+1054208600+1054730629+1055081257
3173+1055179209+1055090613+1054790202+1054218847+1053529429+1053035915
3165+1052866742+1052818753+1052642516+1052406388+1052430764+1052810097
3156+1053160343+1053009310+1052371255+1051770814+1051688901+1052118133
3148+1052688914+1053119164+1053411938+1053626235+1053632282+1053300493
3139+1052857068+1052768599+1053177655+1053691027+1053887440+1053838051
3131+1053917609+1054246406+1054542808+1054468787+1053944277+1053136667
3122+1052305317+1051706786+1051546397+1051921911+1052768218+1053778860
3114+1054453512+1054441546+1053912772+1053413784+1053315641+1053564944
3105+1053922382+1054221393+1054390629+1054381973+1054118286+1053533503
3097+1052712654+1051929039+1051407329+1051070130+1050640899+1049974393
3088+1049126113+1048130428+1046996121+1046017111+1045712818+1046258586
3080+1047235177+1048028594+1048222588+1047650661+1046379069+1044580229
3071+1042260443+1039299611+1035788300+1032054863+1028413267+1025157624
3063+1022673885+1021305105+1021180803+1022223205+1024200063+1026794611
3054+1029727121+1032736325+1035460520+1037514137+1038709544+1039154051
3046+1039228454+1039465473+1040259781+1041633144+1043347334+1045148528
3037+1046785069+1048008800+1048791524+1049377198+1049909474+1050196010
3029+1050081001+1049812095+1049656670+1049233612+1047502747+1043406589
3020+1036515524+1027447814+1018023494+1010729101+1007389636+1008018144
3012+1010953901+1014147488+1016273089+1016681317+1014786308+1010106194
3003+1002841015+993975892+984819841+976493613+969331032+962355509+953760565
2993+942675772+930811310+922228459+920981561+928250431+941422828+956040253
2983+968639513+978007571+984538333+989071678+992286906+994601346+996129561
2973+996655535+995802863+993329626+989251989+983678342+976578262+967864172
2963+957796450+947154636+936910676+927979488+921386926+918262967+919314024
2953+924358578+932386750+941872808+951121083+958744591+964150338+967539321
2944+969341279+969726149+968831535+967320123+966261046+966315336+967302747
2934+968584523+969580208+969992955+969960177+970035471+970726290+972021813
2924+973496565+974703493+975294323+975046547+974012865+972337372+969691144
2914+965235701+958481286+950064297+941611540+935025087+931784019+932407881
2904+936241689+941811962+947582468+952589788+956613644+959974304+963222119
2894+966822535+970865102+975040373+978986644+982615892+986000419+989079443
2884+991654770+993608779+994922569+995447525+994798077+992610039+988955333
2874+984454320+979937013+976023965+973043466+971246090+970906473+972140514
2864+974729715+978202838+982019652+985626496+988531129+990539493+991855447
2854+992836430+993697821+994499766+995324878+996338830+997568861+998617437
2844+998745239+997222243+993343692+986352384+976339970+965668306+958582802
2834+958326115+964598346+974179364+983733651+991677873+997923881+1002804355
2825+1006507560+1009146278+1010978086+1012394411+1013682742+1014878850
2816+1015854677+1016442389+1016561025+1016430168+1016550842+1017226895
2808+1018211696+1019013960+1019438354+1019672064+1019964901+1020392987
2799+1020877337+1021325726+1021757822+1022319438+1023113491+1023990221
2791+1024624458+1024875034+1024910994+1024945554+1025062409+1025310439
2782+1025700274+1026078206+1026242923+1026206072+1026157573+1026190288
2774+1026226503+1026232740+1026347622+1026690485+1027191001+1027728241
2765+1028249123+1028625274+1028663780+1028438280+1028325626+1028557936
2757+1028967373+1029266957+1029374138+1029376302+1029334932+1029253400
2748+1029150039+1029031783+1028859747+1028666198+1028590523+1028657288
2740+1028701713+1028653724+1028659197+1028801638+1028968201+1029070226
2731+1029131645+1029130308+1029049095+1029098740+1029560876+1030312286
2723+1030817957+1030756348+1030402473+1030222863+1030322406+1030475858
2714+1030546887+1030644903+1030874794+1031124797+1031240888+1031288432
2706+1031442902+1031698061+1031887600+1031910958+1031776982+1031556702
2697+1031389057+1031383456+1031464414+1031433419+1031190862+1030815157
2689+1030470193+1030284664+1030290901+1030451545+1030705558+1030961544
2680+1031125752+1031202318+1031302243+1031472625+1031567713+1031395613
2672+1031001959+1030717969+1030834887+1031257627+1031578151+1031523096
2663+1031265901+1031218739+1031512213+1031799067+1031692205+1031281813
2655+1031028691+1031224467+1031739431+1032247329+1032547104+1032680316
2646+1032770949+1032784505+1032572181+1032184892+1031920314+1031953283
2638+1032128756+1032226390+1032236255+1032284244+1032429231+1032618897
2629+1032779859+1032888949+1032945913+1032883348+1032623289+1032295446
2621+1032233900+1032611260+1033174595+1033506702+1033500337+1033457758
2612+1033718453+1034248947+1034668950+1034693135+1034442877+1034249328
2604+1034263140+1034387441+1034501432+1034595947+1034711465+1034887066
2595+1035189259+1035667881+1036254446+1036807788+1037252613+1037513819
2587+1037393718+1036775774+1035898281+1035171947+1034806044+1034779885
2578+1034990873+1035286256+1035525822+1035665844+1035666926+1035489161
2570+1035325717+1035564773+1036286651+1037052318+1037431205+1037545896
2561+1037821676+1038301252+1038538717+1038247407+1037697757+1037239248
2553+1036797605+1036209130+1035750685+1035837817+1036304154+1036416490
2544+1035647004+1034165697+1032555378+1031292442+1030525375+1030081122
2536+1029572142+1028724498+1027717166+1027049324+1026999743+1027382322
2527+1027848978+1028238303+1028585813+1029003334+1029639543+1030578965
2519+1031692905+1032695209+1033413014+1033935615+1034472282+1035107474
2510+1035754440+1036364618+1037027178+1037711059+1038104139+1037985502
2502+1037563017+1037202524+1037061992+1037164845+1037505099+1037946232
2493+1038306153+1038570922+1038812652+1039022112+1039172445+1039248566
2485+1039191221+1039030450+1038933834+1038839829+1038350260+1037362467
2476+1036488029+1036399687+1036981480+1037534567+1037691838+1037737027
2468+1038008351+1038369481+1038447385+1038133608+1037609988+1037028260
2459+1036438766+1036030092+1036177625+1037050854+1038257145+1039112426
2451+1039266896+1038895901+1038363880+1037943559+1037773623+1037843189
2442+1038039093+1038253581+1038353506+1038197572+1037905308+1037869348
2434+1038200946+1038441020+1038139654+1037497525+1037091715+1037132895
2425+1037322370+1037371250+1037299775+1037172483+1036899248+1036452769
2417+1036002406+1035707787+1035602197+1035696967+1035977648+1036325157
2408+1036642371+1037020559+1037635001+1038516441+1039541467+1040601881
2400+1041644855+1042533168+1043018218+1042921539+1042244468+1041104051
2391+1039682953+1038177524+1036712001+1035410685+1034501750+1034089003
2383+1033905319+1033599626+1033173576+1032880293+1032837841+1032961124
2374+1033162693+1033479970+1034023702+1034701600+1035027852+1034524408
2366+1033260008+1031705316+1030353020+1029702808+1030034279+1030978983
2357+1031857749+1032517318+1033327664+1034363828+1035116957+1035159600
2349+1034655711+1034177726+1034230489+1034822528+1035560636+1036297089
2340+1037209334+1038299470+1039234628+1039612751+1039283381+1038457886
2332+1037524129+1036784812+1036327831+1035980194+1035397574+1034418119
2323+1033356942+1032759365+1032836186+1033358278+1034018610+1034634517
2315+1035096081+1035345129+1035461730+1035718925+1036375056+1037298121
2306+1037990721+1038123551+1037802455+1037206470+1036374356+1035515511
2298+1035052165+1035087361+1035201288+1034984063+1034441732+1033789037
2289+1033176568+1032705838+1032459718+1032433559+1032508789+1032472765
2281+1032137858+1031618630+1031371936+1031774182+1032762675+1034011418
2272+1035268499+1036419227+1037385635+1038067988+1038362480+1038254663
2264+1037853054+1037292138+1036661338+1036033911+1035506982+1035258061
2255+1035508573+1036230006+1036985044+1037382325+1037558817+1037927011
2247+1038648826+1039633945+1040808795+1042086307+1043208394+1043866116
2238+1043948602+1043582444+1042958199+1042180694+1041190674+1039840160
2230+1038246580+1037055309+1036903449+1037427959+1037341846+1035990759
2221+1034392406+1034090531+1035214400+1036444749+1036947111+1037438207
2213+1038818316+1040555037+1041374421+1041201685+1041382250+1042916384
2204+1045190790+1046749809+1046910644+1046176673+1045236870+1044191413
2196+1042978821+1042055056+1042181967+1043670021+1045960848+1047780818
2187+1047881380+1046229563+1044500035+1044622681+1046489877+1047878706
2179+1047114440+1044937922+1043246963+1042782917+1042632011+1041727468
2170+1040256599+1039383051+1039737053+1040598189+1040861940+1040492536
2162+1040516594+1041778703+1044002829+1046018066+1046734916+1045716000
2153+1043372729+1041141093+1040719308+1042463348+1045026009+1046818293
2145+1047112212+1045820126+1043404616+1041099978+1040227258+1041149113
2136+1043227806+1045486236+1047115331+1047753705+1047503447+1046665669
2128+1045527479+1044338245+1043227042+1042160009+1041210277+1040777608
2119+1041254957+1042477923+1043729340+1044299612+1043907550+1042723726
2111+1041290408+1040285112+1039992402+1040111294+1040278047+1040440537
2102+1040472869+1039957269+1038761098+1037424268+1036582353+1036253110
2094+1035949452+1035319353+1034445678+1033635713+1033133606+1032984801
2085+1033010514+1033020506+1033169248+1033771407+1034579526+1034789941
2077+1034077865+1033056085+1032474484+1032572690+1033279802+1034426902
2068+1035698176+1036737459+1037307795+1037426687+1037518274+1038028846
2060+1038662191+1038667283+1038067543+1037640475+1037442534+1036397905
2051+1033667855+1029736859+1026106465+1024223740+1024513458+1026184687
2043+1027799079+1028076323+1026646951+1024493601+1023442161+1024802986
2034+1028506764+1033492509+1038400159+1041984091+1043849950+1044919147
2026+1046170181+1046938903+1045629123+1042137160+1038373427+1036324139
2017+1036578025+1038598990+1041425529+1043961840+1045310890+1045329093
2009+1044939450+1045634342+1047918804+1050319293+1050901595+1049554772
2000+1047846820+1046988929+1046926110+1047247779+1047909384+1048738443
1992+1048911052+1047733720+1045829418+1044658451+1044773714+1045202564
1983+1044738263+1043347143+1042084461+1041991537+1042961382+1043534391
1975+1042391301+1039924555+1037695784+1036884992+1037689674+1039589647
1966+1041643073+1042878387+1042906009+1042180949+1041474346+1040898600
1958+1039657240+1037002928+1033205590+1029467953+1027168725+1027142120
1949+1029205920+1032298628+1035333164+1037866038+1039879748+1041323186
1941+1042169620+1042592105+1042849364+1043206548+1043840021+1044507736
1932+1044503790+1043387686+1041704746+1040556692+1040400949+1040654134
1924+1040546063+1040040901+1039689063+1039789306+1040061968+1040030526
1915+1039550632+1038850839+1038203619+1037768086+1037560917+1037420895
1907+1037124620+1036641289+1036103986+1035455683+1034262694+1032046207
1898+1028892334+1025763602+1023996013+1024193762+1025846024+1028098345
1890+1030168955+1031135681+1030386053+1028294567+1025886949+1023897615
1881+1022263493+1020628861+1019205090+1018788269+1019812595+1021683101
1873+1023433569+1024871088+1026543144+1028483915+1029790895+1030180156
1864+1030605569+1031925533+1033995061+1036126326+1037897225+1039302857
1856+1040519331+1041606412+1042292649+1042315625+1041945393+1041775776
1847+1042207362+1043359618+1044878540+1045777737+1045545491+1044733108
1839+1043995191+1043556158+1043381385+1043285597+1043005743+1042481488
1830+1041902305+1041391733+1040980768+1040808350+1040822352+1040564520
1822+1039756147+1038729657+1038048321+1037936749+1038062260+1037870111
1813+1037098525+1035937741+1034811072+1034026311+1033603953+1033412569
1805+1033445474+1033958146+1035196260+1036865261+1038184716+1038733857
1796+1038841420+1039163725+1040193207+1041741661+1042876096+1043104650
1788+1042916002+1042934905+1043205975+1043298071+1043035466+1042692539
1779+1042452719+1042150653+1041640782+1041127282+1041026148+1041424575
1771+1041799261+1041747389+1041303837+1040494573+1039419075+1038519114
1762+1038156902+1037922874+1037073003+1035503482+1033580532+1031704234
1754+1030402601+1030401455+1032008146+1034209104+1035464530+1035400247
1745+1034568770+1033650543+1033256126+1033666518+1034354791+1034398452
1737+1033786619+1033622029+1034793569+1036327576+1037056455+1037368132
1728+1037675671+1037844907+1037919692+1038147928+1038390548+1038397231
1720+1038545655+1039666596+1041764256+1043499449+1044202615+1044397628
1711+1044570619+1044795100+1045062351+1045515259+1046100297+1046408028
1703+1046461364+1046986001+1048181982+1048944403+1048914107+1048815391
1694+1048675114+1048145449+1047507839+1047102156+1046690300+1046127347
1686+1046283535+1048098287+1050093221+1050329858+1049288666+1047939171
1677+1046717350+1045725420+1044857728+1044051518+1043720302+1044532813
1669+1046230136+1047412878+1047467550+1046871883+1046173109+1045575851
1660+1045095765+1044738582+1044456564+1044386298+1045330748+1047708516
1652+1048953631+1047717554+1045620339+1044251750+1044361667+1045319037
1643+1046377732+1047472387+1048493022+1049199752+1049658070+1050183790
1635+1050642363+1050610921+1050295298+1050211094+1050613340+1051291429
1626+1051930567+1052640352+1053606314+1054430854+1054675256+1054737184
1618+1055482102+1057010381+1058206425+1058676008+1059203383+1060345264
1609+1061828862+1062986019+1063456684+1063226729+1062214560+1060028750
1601+1056040091+1049610845+1040167303+1026828789+1007631110+979414221+940476532
1591+895588601+857586261+840045108+846376212+867927918+892621976+913238780
1581+928559817+940684593+952567448+963832297+966750360+956005248+936319528
1571+916053862+905405429+910394038+925990919+944072557+959153838+969039659
1561+976157496+986423286+1000679200+1010471651+1015155648+1018617951+1022194118
1551+1025844497+1029343460+1032342863+1034692053+1036631106+1038371200
1543+1040015442+1042009358+1044376815+1045699770+1045618112+1045437483
1534+1046519282+1048834994+1050717402+1051400583+1051666816+1052319065
1526+1053427022+1054753796+1056389446+1058382980+1060127211+1061179096
1517+1061968248+1062943248+1063918948+1064616577+1065065666+1065347747
1509+1065732999+1066815689+1067810229+1066671594+1062411737+1053411810
1500+1035977902+1005330164+960335625+910511339+869439394+840625055+820279449
1490+805953079+799019371+801035563+810826806+826466711+846262030+867083584
1480+883642290+891462402+890109533+882826342+873795293+865906125+861534186
1470+862808643+869352707+878657882+886670842+887725655+878851622+863175883
1460+845289067+829133307+821960861+830808227+849774232+870297666+889415977
1451+903533906+907342636+899540218+886176819+873426716+860155923+841930698
1441+819262061+800059545+796539196+815902037+846914533+873152464+892082764
1431+907667424+921337918+932185946+940360696+947090926+952874224+957575278
1421+961935187+967304147+973211429+977627219+980257727+982044920+983133465
1411+982485608+978646645+971132672+961676337+954157719+952058277+955534391
1401+962477264+970591359+977638230+982309052+984930077+986302421+986933540
1391+987516350+989064486+992259920+996563311+1000512828+1003332047+1005215664
1381+1006508705+1007443544+1008238043+1009118846+1010323101+1011890713
1373+1013425420+1014554062+1015415580+1016298802+1017221676+1018140667
1364+1019205535+1020487948+1021719188+1022650400+1023406647+1024245634
1356+1025278998+1026533724+1028101845+1030065084+1032305375+1034485266
1347+1036235861+1037368641+1037937322+1038127816+1038195917+1038549983
1339+1039592193+1041250629+1043015290+1044479095+1045501448+1045950410
1330+1045540463+1044062847+1041884102+1040123896+1040042937+1042092417
1322+1045662346+1049761114+1053745763+1057401615+1060650639+1063427343
1313+1065683482+1067286991+1067810229+1066249427+1060758329+1050839921
1305+1039448607+1031493501+1028782353+1027390151+1020844368+1005659980
1296+984549344+965257723+955091157+954902509+958014439+954598661+937533011
1286+907115991+872800754+848969995+845906183+863421622+892940209+924771326
1276+953018511+975631712+992464352+1004142267+1012012723+1017920132+1023248294
1266+1028169820+1031964739+1033925432+1033858539+1031855140+1027811108
1258+1021377980+1012471423+1001617985+989443628+975754486+959397540+939142503
1248+914399882+884983257+850805368+812640857+773333637+737791805+711305781
1238+697400432+696658187+707015310+724946360+746657055+768979774+789952043
1228+808817487+825511951+840269526+853598365+866218820+878757361+891391181
1218+903658207+914620481+923366521+929422163+932822474+933996306+933404775
1208+930865982+924720663+910859866+882771034+835562807+773395501+712171500
1198+670993329+659318597+673067630+701653415+735926709+770434796+802460925
1188+831039200+855907140+876183562+888870209+888014546+868217127+833269371
1179+799697015+784567172+787410322+789915828+777375823+755933971+744200939
1169+752190096+773989641+797983334+817717170+832844849+844800898+854265507
1159+861550607+867666904+874178381+881962342+890594137+899079800+906784457
1149+913579479+919521066+924689222+929249426+933400638+937169145+940080715
1139+940449546+935448336+924045056+910249242+900383406+895889903+891992513
1129+884877476+877053673+874016528+878301080+888391524+901420525+915175796
1119+928275126+939787432+949141169+956308332+961851238+966459750+970179758
1109+971666920+967616651+953794106+929385120+901357133+881430958+875682729
1099+878186962+877354212+868483233+858620579+858822911+872919136+894995925
1089+916601476+933559691+945962411+955130300+962169916+967809818+972444107
1079+976358428+979767140+982771635+985567878+988348909+990645910+990369939
1069+983293026+965679062+940271400+917968793+909646320+916777522+932321513
1060+948776857+962685643+973479126+981578009+987822171+993074658+997736570
1050+1001760235+1005024152+1007509991+1009206678+1010045793+1009862491
1041+1008167714+1003830017+994859941+978425282+951583920+913064579+865047980
1031+813196045+764896409+727648852+708101118+709760699+729814168+759542152
1021+789640494+815237314+836268519+854696521+872065319+888847106+904178962
1011+914497197+914347947+902973308+889453402+885932544+895295700+910060722
1001+922711217+932068200+940183313+948107805+955648955+962464599+968327837
992+973049512+976425129+978332104+979125584+979835815+981627399+984868594
982+988810664+992328340+994845239+996381346+997058799+996975231+996362697
972+995502070+994531907+993613235+993303595+994458077+997507124+1001973005
962+1006858761+1011351882+1015108932+1018142831+1020580808+1022483964
953+1023831550+1024395967+1023439043+1019976549+1013733341+1005488580+996236487
943+986506472+976725604+967442069+958311095+947231139+931693195+911244928
933+887754551+863523647+840974028+824305087+818731313+826261642+843274147
924+863220181+880934770+894265073+903199571+908389430+910039018+908175005
914+904368692+902365993+905723153+914894097+927308719+939880802+950771664
904+959343631+965569209+969805325+972817203+975584423+978474990+980441665
894+979975264+977561027+976235590+978702654+984576075+991236422+996565220
884+1000053619+1002057909+1002999367+1003171658+1002862273+1002546332
875+1002877548+1004366239+1007071404+1010629495+1014525994+1018311430
867+1021696339+1024648134+1027375830+1030010284+1032347954+1034151249
858+1035634593+1037366795+1039657686+1042247841+1044690465+1046810719
850+1048546930+1049566292+1049371470+1047462713+1042586759+1031104876
841+1006356845+962390769+901788274+838884897+791090233+766571329+762518960
832+773074660+794638140+824779508+860173680+895959214+925222324+938190161
822+923076421+873582714+801645233+738482305+713208237+729783363+769367318
812+811257883+845891608+872543940+893321578+910326891+923961679+931415888
802+928288492+914479504+898286383+891533113+899682786+918497059+939853497
792+958320324+972502662+982953091+990269950+994090201+992078273+980492392
782+958947305+935319006+922213820+926355549+943325857+963419232+980257282
772+993044235+1003382455+1012349031+1020113961+1026614619+1031731093+1034968979
762+1035417368+1032510189+1027024820+1020716439+1014072831+1003677266+980929834
752+934797423+861347639+774143093+701040436+665203029+669535571+700132583
742+740540695+780424042+815372053+844341562+868057184+887749713+904307592
732+918318848+930311876+940604716+949371187+957098312+964471371+971739032
722+978764009+985561831+992220778+998415868+1003347004+1006339788+1007854764
713+1009640683+1013046978+1017062814+1017636523+1008613239+986437734+957449258
703+937262068+937233173+952911203+969381631+974953559+964361263+931744494
693+871500902+791933039+721292736+689794554+704739758+748679612+799303171
683+843932379+878683850+903896881+922009197+935641121+946212669+954226520
673+960078111+964636152+969279097+974752118+979534194+982229431+983760637
663+984699295+984507401+983027175+981665078+982584769+986675262+992624296
653+998300477+1002552060+1005082834+1004833276+998761596+982612455+954921349
643+922001050+896930141+890320266+902081112+923516472+945911494+965026114
633+978929808+984453301+977830888+960514344+942986239+938112003+949021896
623+966992025+981876066+990240546+993723661+995120701+997297791+1002130339
613+1009011920+1015737313+1020833548+1024280703+1026574903+1028072250
605+1029019691+1029634643+1030203706+1031066306+1032249875+1033473733
596+1034825965+1036788122+1039328442+1041710474+1043416454+1044612880
588+1045613020+1046441824+1046981737+1047273110+1047516813+1047769425
579+1047944071+1048207950+1048899786+1049997306+1051215308+1052538136
571+1054095819+1055688189+1056945143+1057902195+1058796364+1059030646
562+1056870995+1049630830+1032346300+998498991+948988609+901156965+879835214
552+894328783+928634538+956137823+961434035+949775724+939681779+946296873
543+969719339+998526295+1021830824+1035695758+1040526205+1036058479+1018810927
533+983832112+931985651+876040676+834697152+818475327+823072573+838025989
523+859027598+887029490+920138755+952022635+976802107+992462316+999269431
513+996353532+981129493+954081343+924361761+906187517+905613426+913945064
503+917445237+911010008+901178414+897616568+904891230+920618522+937078830
493+944335989+934170506+904865453+864014043+825446713+802653138+802736833
483+823248620+854620909+887068251+915404032+938465686+956474704+970027579
473+980328757+988808691+996374281+1003372017+1009659141+1014561572+1017613547
463+1019399403+1021186086+1023812711+1027129009+1030428441+1033276365
455+1035594433+1037208061+1038220931+1039431231+1041549894+1044511809
446+1047887808+1051090688+1053197386+1053730234+1053317359+1052280368
438+1049314761+1042496063+1030472294+1011661904+984438153+951264033+921570800
428+906532163+910716407+929477980+952733884+973248471+991235912+1009465719
418+1025930356+1036718683+1042809967+1046852980+1049767351+1050801415
409+1049373634+1047302261+1048147549+1053424094+1060636955+1065963081
401+1067810229+1068664873+1069726623+1069434486+1062229581+1045070370
392+1020157432+994298516+976478465+972984847+984381381+1006199511+1030052291
382+1047652571+1057591536+1064158895+1070202317+1073741823+1071820209
374+1067810229
##END=
