##TITLE=JPK-932,X16516
##JCAMP-DX=4.24
##DATA TYPE=INFRARED SPECTRUM
##DATE=24/11/2021
##SAMPLING PROCEDURE=Diamant-ATR
##ORIGIN=Angelika Moesle
##XUNITS=1/CM
##YUNITS=TRANSMITTANCE
##RESOLUTION=4
##FIRSTX=3997.453
##LASTX=373.96442
##DELTAX=-1.4165319
##MAXY=0.87887198
##MINY=0.46181867
##XFACTOR=1
##YFACTOR=8.1851331e-010
##NPOINTS=2559
##FIRSTY=0.76883793
##XYDATA=(X++(Y..Y))
3997+939310230+938630377+938240932+938210056+938222217+938044025+937793304
3988+937685020+937758496+937951543+938199352+938352348+938214353+937809252
3978+937476461+937569672+938095946+938643849+938758104+938466166+938256297
3968+938420362+938716014+938885249+939093516+939549082+940051617+940296585
3958+940339331+940429483+940587067+940595296+940359721+940166164+940468588
3948+941243763+941820648+941765741+941539997+941775208+942207180+942080181
3938+941299689+940383897+939718827+939439632+939665595+940231702+940507838
3928+940108198+939426816+939103492+939145947+938997830+938579621+938587850
3918+939580322+941112759+942134214+942129335+941389332+940433342+939554835
3908+938861000+938568188+938982464+940046301+941247623+942343427+943465302
3898+944246012+943845352+942092997+940116646+939751814+941467395+942981700
3888+942559268+941648427+942158390+943078988+942473194+941342654+941519389
3878+942111639+941520336+940363872+939833009+939879396+940372683+941829022
3869+943456418+943734956+943207590+943419279+944285335+944421291+943353158
3859+941392317+938819128+936686867+937697181+943160911+947973917+948252383
3849+945827166+942858560+940404578+939134732+939208427+939931536+940737223
3839+942084404+944211058+945940183+946373684+946039219+945523868+944548071
3829+942933493+941392681+940406035+939443419+938656592+939819246+943071852
3819+945142943+945034659+945098377+945982856+945800513+943983784+941699038
3809+940205632+940352366+941513855+941746662+941126449+941969056+944492655
3799+945763957+945197777+944776291+944977276+944676745+943758113+943134696
3789+943137682+943443965+943986260+944747891+945085051+944534017+943896982
3779+944297569+945389222+945850978+945260330+944127168+943237956+943391170
3769+944570791+945665213+946113132+946282367+946025820+945052136+944265018
3759+944851806+946146484+946196730+944385390+941703844+939998458+941072562
3750+943737432+944680314+944052090+944744177+947475679+948792057+947094099
3740+944410877+942583590+942181693+943096101+944946109+946829978+947582943
3730+946823497+945304750+944248924+944254750+944871249+945638997+946660161
3720+947666760+947842476+946773105+944854282+943212104+943602496+946953919
3710+950994954+952524915+951345949+949197158+947779705+947984768+949234952
3700+949909271+949328963+948117520+946945181+946057206+945551394+945740218
3690+947178206+949569053+951056196+950519581+948698555+946725918+945170688
3680+943916280+942763092+942646143+945255524+949106715+950069986+948403705
3670+947873643+950090958+952413790+952635820+951164480+949082538+947167502
3660+945811873+945335335+946294164+948400355+949564538+948480385+946656811
3650+946852626+949977649+952949168+953052063+951204240+949186162+947954110
3640+947638797+947928404+948491672+949113414+949445258+948836915+947104585
3631+945737596+947226632+950904365+952714175+951903900+950536256+949984131
3621+950534145+951745953+952268440+951209629+949633791+949017510+949257454
3611+949286218+949177278+949872788+951107607+951558367+950892422+950078215
3601+950011584+950430375+950508803+950214316+950211622+950577910+950531377
3591+949773169+949263425+950288521+952509841+953833647+953275331+951695488
3581+950213297+949291388+948831526+948706274+948946437+949350664+949308355
3571+948444120+947324576+947239521+948821913+950774089+951507538+951188147
3561+950830525+950872032+950958980+950603907+949800258+949109846+949106642
3551+949524414+949551358+949266556+949743531+951287255+952548945+952288903
3541+950828049+949234297+948263234+948113369+948421400+948540243+948253767
3531+948044917+948422201+949158927+949516331+949269906+949043070+949398653
3521+950099915+950632088+950956723+951262060+951429328+951269706+951007551
3512+951057288+951418478+951576280+951082411+950128534+949442491+949609104
3502+950467587+951300946+951586694+951341361+950929633+950706730+950717216
3492+950756466+950695806+950548199+950282477+949898639+949680469+950002117
3482+950790255+951439742+951460496+951018984+950675125+950773579+951190550
3472+951520791+951428673+950981118+950699520+951053501+951887807+952634801
3462+952996355+953100052+953110465+953038518+952922879+952963295+953320189
3452+953790828+953926857+953645988+953455999+953779323+954308364+954395968
3442+953839764+953030435+952512972+952471537+952624096+952610260+952347815
3432+951904629+951298251+950645706+950253057+950283642+950542956+950806130
3422+951153193+951756803+952520910+953189257+953611325+953681961+953328126
3412+952772505+952443356+952423694+952377817+952112167+951795980+951589971
3403+951466321+951437849+951692648+952417941+953502313+954413809+954559450
3393+953874790+952942687+952462362+952685047+953331767+953901588+954065289
3383+953850541+953472311+953089566+952800759+952722477+952888872+953157362
3373+953347642+953416603+953460732+953636012+954042278+954552969+954827794
3363+954637878+954110147+953592028+953388931+953597417+954068493+954583554
3353+955049970+955396450+955454852+955172163+954715359+954238238+953902171
3343+954067619+954877530+955765214+956038364+955758733+955434244+955210175
3333+955017637+955068612+955498253+955893014+955805629+955467450+955454925
3323+955873862+956375159+956790674+957232331+957687751+958047994+958421200
3313+958903345+959176277+958832491+957969130+957090112+956579567+956502887
3303+956684283+956853445+956925610+957094481+957439578+957641000+957386201
3293+956853591+956510606+956643722+957286291+958274467+959132876+959306626
3284+958787779+958198078+958102683+958538150+959200235+959767653+960056096
3274+960067019+959887807+959586330+959295776+959226305+959435082+959730223
3264+959900769+959922543+959922980+960019685+960188629+960301428+960290505
3254+960183823+960003155+959766561+959547881+959422556+959405516+959517005
3244+959831590+960376798+960982228+961297178+961065681+960439132+959914605
3234+959907032+960464110+961400801+962493693+963462353+963998458+964031956
3224+963822888+963668071+963676300+963866216+964253549+964771668+965274785
3214+965603061+965576190+965091787+964354551+963852235+963964742+964638843
3204+965495286+966118631+966195966+965586021+964489561+963409267+962763275
3194+962684337+963151118+963975156+964743559+965140504+965168977+964894734
3184+964376470+963958625+964072808+964636804+965123100+965247914+965226942
3174+965351684+965597745+965708068+965557912+965364427+965455890+965854437
3165+966235144+966367896+966403068+966548345+966708623+966756830+966878441
3155+967196230+967381267+967166082+966880771+966940193+967180646+967238393
3145+967201255+967349517+967587204+967624124+967460642+967294319+967208027
3135+967254778+967508849+967771659+967672695+967321117+967337429+968031992
3125+969004002+969647809+969685894+969282759+968948294+969109737+969572658
3115+969709925+969286255+968689198+968342572+968312497+968489379+968758961
3105+968931982+968781389+968321090+967916790+967906377+968170206+968280820
3095+967993179+967373475+966595387+965846136+965263207+964794752+964278599
3085+963654017+962895954+961928241+960883192+960217685+960251328+960750950
3075+961180956+961231566+960953027+960453623+959628347+958256261+956291707
3065+953974919+951685730+949679376+947918137+946252948+944811172+943980435
3055+943890210+944203339+944581496+945043543+945666305+946265182+946665768
3046+947066208+947778176+948716688+949462881+949804846+949925000+950020177
3036+950012895+949763047+949389623+949187691+949287019+949558567+949851306
3026+950191232+950690491+951279536+951647208+951645897+951694396+952392163
3016+953708541+954999796+955859662+956455335+957014451+957506355+957869074
3006+958154749+958423894+958678184+958807222+958588979+957977650+957354451
2996+957180701+957440379+957725545+957834776+957982601+958418142+959095155
2986+959761464+960263635+960697937+961242489+961869402+962325186+962386428
2976+961985332+961099906+959696799+957775645+955339359+952319051+948635566
2966+944380220+939869420+935369542+930753953+925631241+919881689+913839253
2956+907944715+902518997+897867798+894267474+891786694+890368804+890091721
2946+891076839+893096737+895497560+897579429+898886122+899136916+898162139
2936+895998129+892886650+889143888+885070449+880877437+876677872+872721820
2927+869566211+867676298+866866678+866485025+866254038+866655352+868319012
2917+871199432+874559958+877704789+880498697+883175656+885906284+888653077
2907+891253356+893535044+895436027+897062839+898599281+900159973+901733189
2897+903248077+904694877+906167455+907776427+909557474+911482122+913467649
2887+915351737+916990638+918429137+919848920+921313852+922641955+923480557
2877+923457182+922432231+920741774+919041558+917795015+917035496+916620054
2867+916418486+916143370+915306807+913576880+911018546+907891993+904419688
2857+900843249+897527362+894863001+893098412+892300080+892468586+893626289
2847+895712672+898455970+901483779+904542900+907564228+910620873+913848501
2837+917277551+920741410+924027076+927016799+929632588+931786404+933462006
2827+934781079+935956404+937158891+938397715+939586803+940725499+941867763
2817+942937279+943777921+944367549+944801342+945138064+945461096+945981982
2808+946822478+947766524+948484026+948942067+949343528+949749794+950049087
2798+950230847+950444284+950795425+951240650+951660170+951960846+952124620
2788+952211859+952317012+952458939+952539406+952532998+952650385+953061384
2778+953556710+953818646+953918920+954202046+954805147+955578356+956329428
2768+956900050+957147495+957077514+956939519+957022971+957356854+957719209
2758+957926457+957988136+958007870+958057607+958104867+958017191+957754454
2748+957511598+957480503+957595414+957744769+958039547+958589998+959181666
2738+959470327+959450956+959507320+959908998+960397333+960486174+960138237
2728+959833265+959936306+960344393+960814668+961259748+961632225+961850687
2718+961929989+961954384+961912002+961748738+961547535+961501148+961709634
2708+962046720+962261759+962290669+962413590+962927704+963716133+964339696
2698+964522548+964381495+964210439+964176723+964259010+964401593+964592019
2689+964789363+964945709+965129799+965426034+965710835+965747173+965502350
2679+965201236+965082684+965220243+965543275+965928642+966280875+966583372
2669+966860891+967057507+967039010+966809990+966595023+966569245+966664712
2659+966767972+966907205+967119550+967343255+967541109+967759862+968023108
2649+968309220+968613319+968919894+969165955+969340797+969518480+969687351
2639+969696235+969543457+969507848+969767089+970087718+970137382+969926202
2629+969730533+969714658+969768400+969672495+969373494+969060147+968958635
2619+969155614+969633536+970289213+970863404+971056087+970854519+970637150
2609+970830489+971471601+972190268+972609059+972658650+972509222+972326224
2599+972147158+971931245+971685840+971506482+971497744+971726546+972241825
2589+973051153+974064161+975042360+975622668+975570237+975088820+974710590
2580+974840283+975487294+976294656+976757796+976681698+976432797+976495641
2570+976961475+977675554+978542483+979457620+980294475+981081811+981861064
2560+982396806+982394840+981974082+981601022+981551577+981700859+981838781
2550+981931628+982005541+982016682+981906723+981627456+981171235+980734966
2540+980699066+981275077+982279492+983250627+983660753+983199944+982100062
2530+981003456+980339478+980024310+979767472+979394048+978932219+978640354
2520+978800050+979344530+979958917+980535219+981150845+981753945+982305343
2510+982937208+983594486+983949196+983964342+984015754+984262761+984439060
2500+984386338+984319853+984446342+984647982+984729396+984784958+985009610
2490+985213871+984991914+984412990+984006506+984025366+984281695+984674999
2480+985248315+985776920+985897438+985650941+985430367+985375533+985197195
2470+984680824+984099789+983958225+984416777+985093426+985459131+985357911
2461+985042524+984804547+984816198+985270671+986272392+987476990+988173593
2451+987945882+987142016+986544814+986571102+986921515+987107353+987140559
2441+987437158+988138784+988842814+989067320+988800942+988460287+988370936
2431+988472521+988507985+988314573+987940057+987629258+987595834+987682053
2421+987464975+986845490+986278654+986249016+986729705+987310158+987673897
2411+987781599+987714313+987581197+987534155+987643531+987784658+987800023
2401+987695525+987597290+987666251+988052128+988699212+989209903+989155579
2391+988585247+988051254+988046666+988520219+989006806+989111304+988759216
2381+988152984+987672441+987694433+988347051+989478684+990823972+992029954
2371+992682281+992662255+992397043+992434691+992805129+993057817+992920040
2361+992612228+992451804+992532489+992897903+993527656+994062232+993978634
2351+993065754+991531642+989861356+988772324+988959473+990321509+991726365
2342+992362817+992604363+993168213+994252658+995472694+996182914+996021398
2332+995364119+994951080+994863186+994443885+993475298+992684903+992761583
2322+993420318+993898895+993953365+993831827+993736359+993703590+993719902
2312+993814059+994107963+994683392+995392446+995892796+995852891+995218696
2302+994419198+994068567+994272101+994583045+994779078+995095192+995533427
2292+995590445+994923481+993842459+992971889+992654900+992755247+992965116
2282+993221591+993653198+994170006+994461580+994398736+994131120+993886151
2272+993945646+994585666+995733174+996886288+997630806+998080255+998609005
2262+999256963+999584438+999141543+997978233+996613065+995575371+995067011
2252+995064608+995603189+996746837+998198297+999188075+999096103+998206817
2242+997593595+998068676+999356800+1000600358+1001598000+1002848185+1004215683
2232+1004627411+1003765142+1002995792+1003600786+1005026759+1005862230
2224+1005653453+1004879225+1004081402+1003829952+1004573669+1005908617
2215+1006927523+1007436175+1007795763+1007788408+1006885287+1005388241
2207+1004302631+1004309695+1005349646+1006832783+1008088356+1008834477
2198+1009079372+1008745344+1008064253+1008026240+1009375170+1011331860
2190+1012276707+1011616515+1010220253+1009103840+1008431851+1007946429
2181+1007783020+1008412044+1009986499+1012102811+1014147105+1015687698
2173+1016516178+1016407966+1015200091+1013271364+1011556438+1010686232
2164+1010323512+1009597418+1008168896+1006909245+1007191134+1009070634
2156+1011120534+1012188376+1012199080+1011774172+1011671131+1012117813
2147+1012562091+1012688289+1013218351+1014672068+1016046339+1016031338
2139+1014912304+1013968913+1013527838+1013001418+1012489343+1012807132
2130+1013917356+1014633910+1014076760+1012566169+1010938119+1009698056
2122+1008987691+1008791148+1009007061+1009583582+1010521439+1011519518
2113+1011823472+1010804420+1008746582+1006872398+1006379329+1007317186
2105+1008465931+1008562127+1007662647+1007027724+1007663885+1009292809
2096+1010774491+1011285473+1010933895+1010291617+1009621959+1008849769
2088+1008091925+1007732264+1007984514+1008787871+1010002883+1011237266
2079+1011706667+1010893989+1009331040+1008302085+1008717090+1010389124
2071+1012318652+1013612383+1014203541+1014643960+1015204314+1015415276
2062+1014690565+1013246532+1012150145+1012358266+1013640637+1014513247
2054+1013605465+1011301348+1009619847+1010179400+1012468007+1014603617
2045+1015702189+1016383353+1017089640+1017369053+1016913341+1016106125
2037+1015391973+1015073529+1015669711+1017479158+1019849105+1021520775
2028+1021601751+1020391181+1019634284+1021044455+1024058500+1026304871
2020+1026620912+1025970697+1025230403+1024026022+1022130210+1020429922
2011+1020086718+1021397198+1023420956+1024701725+1024613685+1023725856
2003+1022839847+1022467880+1023148024+1025147533+1027625546+1029000617
1994+1028569082+1027222483+1026359122+1026539280+1027486822+1028716253
1986+1029499730+1028867501+1026507822+1023542858+1021905777+1022829216
1977+1025863214+1029165410+1030911503+1030712266+1029714186+1029190315
1969+1029097177+1028468954+1027095193+1025776193+1024955432+1024536932
1960+1024938028+1026663876+1028778514+1029469145+1028406037+1027187020
1952+1027108956+1027655693+1027639891+1026820150+1025738836+1024759108
1943+1023924510+1023227399+1022470283+1021368725+1020097059+1019291517
1935+1019404389+1020308239+1021458295+1022254442+1022476036+1022484264
1926+1022777877+1023384036+1023855040+1023798312+1023344203+1023029399
1918+1023211524+1023678959+1024066292+1024418744+1024897904+1025330895
1909+1025562756+1025999752+1027123593+1028565004+1029349210+1029060549
1901+1028244448+1027618919+1027445242+1027693487+1028214373+1028723753
1892+1029073074+1029406956+1029799969+1029993745+1029700860+1028951973
1884+1028121454+1027739146+1028051837+1028747347+1029350156+1029815043
1875+1030482954+1031523488+1032766900+1034096386+1035546754+1036793588
1867+1037158565+1036570976+1035627366+1034762184+1034055315+1033611983
1858+1033651524+1034241590+1035199618+1036191508+1036841140+1036932821
1850+1036572578+1036084534+1035821724+1036058828+1036767810+1037387004
1841+1037363483+1036828615+1036343630+1036318143+1036642267+1036916801
1833+1037048315+1037340107+1037946630+1038448073+1038396589+1037978380
1824+1037659280+1037587406+1037628186+1037746446+1038011950+1038376126
1816+1038631799+1038603326+1038354935+1038127225+1038021708+1037939858
1807+1037915463+1038131449+1038637771+1039361608+1040206472+1040962059
1799+1041439471+1041758425+1042204961+1043051647+1044534493+1046392438
1790+1047660609+1047920142+1047813023+1048083260+1048873873+1049795200
1782+1050572851+1051356037+1052301467+1053237503+1053962141+1054592258
1773+1055496180+1056915818+1058612029+1060177017+1061421230+1062249564
1765+1062805331+1063682092+1065315531+1067058492+1067977780+1068316687
1756+1068751645+1069222575+1069498129+1070000445+1071249100+1072844163
1748+1073741823+1073423961+1072006945+1069761448+1066522533+1061194394
1740+1052622023+1040813141+1024608005+998369790+956933985+908117664+862416683
1730+819065331+777179568+740017605+709729325+686598584+670793598+662151829
1720+661408622+671399101+692673280+718617154+743096533+765751391+787579517
1710+808381090+827796305+846411512+863719225+877193442+886881716+896772212
1700+908774142+918910262+925674861+931718171+936973052+940129972+942194072
1690+944394930+946272391+947282923+948890438+953160784+958435910+961581760
1680+963061039+964390670+966496278+969885714+973984641+977393010+980056642
1670+983168413+986591856+988656684+989323649+990223202+992479548+995380503
1660+997377318+998041223+997808051+997377390+998321874+1002333052+1006374669
1650+1007198561+1006622332+1007129527+1009245112+1011156580+1012008145
1642+1012421766+1012715451+1012905586+1013544733+1015524143+1018165201
1633+1019558405+1019609670+1019338778+1019304188+1019282706+1018907243
1625+1018458959+1018398227+1018314847+1017283634+1014713503+1009589262
1616+999985461+985147386+966037290+943481905+919347405+898066234+884672411
1606+881265717+886333886+896607638+908794969+920732671+932024090+943361241
1596+955055213+966433580+976496005+984760709+991371146+996654791+1000722769
1587+1003458931+1004876458+1005258620+1004748876+1003055869+999654200+993778158
1577+984673178+973681270+964044408+957301292+954129881+955377298+959854237
1567+964976876+969567925+972958598+974355225+973515458+970197313+964341079
1557+957998258+952722186+949011393+947814222+949893105+954761454+960654536
1547+966070787+970877094+975292208+979216948+983648738+989758242+994986981
1537+997451959+998999397+1001899988+1006423532+1010614649+1013492156+1015981383
1527+1018935643+1021972044+1024311625+1025981110+1027255690+1027891705
1519+1027803592+1027418080+1027108374+1027087183+1027590446+1028652243
1510+1030051783+1032170135+1036269498+1041149135+1043374242+1042937755
1502+1040973346+1037403752+1031093409+1021034843+1008730343+997978889+991365466
1492+990049961+994861074+1004337221+1014029354+1020947458+1025017184+1026863405
1482+1026685650+1024285337+1019320573+1011530806+1000839938+986863258+968674197
1472+947344019+926846981+909407026+895117509+885151425+881709195+884340640
1462+889788351+896333322+905125756+917618570+929679558+935196375+935598053
1452+934943760+935769400+938952972+943232130+945293755+942041586+932396204
1442+917517932+900478854+884079433+869062511+855823067+846156349+841167408
1432+840770317+844891163+852115697+858938260+862185186+860329134+853370979
1422+843047564+831816294+822122268+816655916+816649799+821481592+830690051
1412+843812544+859136551+873681959+884339038+888620090+884945343+874394582
1402+861669325+852351199+850365526+856684754+869250752+885004328+900462615
1392+912271862+919723159+924399408+927650047+929516658+929557656+928020995
1383+925842858+924120578+923550465+923874007+923804099+921449226+915403076
1373+906467258+897515565+891242214+888948147+890457645+894753260+901023844
1363+908516357+915961100+922574013+928902271+935870403+943795252+952262178
1353+960425879+967302767+971915152+973471911+971576973+966254368+957884294
1343+947119367+934847054+922495950+912063449+904883337+900632287+898137890
1333+896521127+895406243+894502685+893259782+891065843+887799183+884129533
1323+881241613+880140202+880994824+882964039+884652385+884863857+883051351
1313+879485763+875349406+872224236+870941064+870989563+871244435+871164988
1303+871040901+871269849+871828966+872279289+871752796+868932817+862497295
1293+851841527+837401417+820364670+802035065+783172486+763604931+742400077
1283+718625747+692215821+664262535+636606284+611242572+589988673+574364536
1273+565531723+564216437+570521137+583672649+601973053+623055678+644339396
1264+663681645+680025723+693514286+704984771+715323187+725059813+734303007
1254+742985045+751146124+758918123+766334102+773341411+779950975+786211873
1244+792072112+797383065+802024433+805924341+808958485+810954644+811907574
1234+812133974+812100403+812104554+812214732+812516500+813286214+814829283
1224+817263531+820661559+825323244+831572636+839235550+847603731+856020994
1214+864310747+872635600+881124445+889604260+897506025+904031117+908520945
1204+910695368+910555990+908208690+903843458+897739852+890185806+881515929
1194+872364270+863783817+856870373+852064358+848701284+845189437+839721336
1184+831152243+819746568+807657545+798759666+797091346+804048846+816378760
1174+827275055+830264633+822804816+806991600+787787420+770709674+760011670
1164+757558271+762647558+772845649+785255156+797371924+807342086+814142949
1154+817911489+819890607+821740105+824808111+829831277+836789724+844660832
1145+851373509+854408672+852158807+845395009+837407680+832169474+831952032
1135+836471862+843892938+852338819+860722802+868681368+875927966+881568724
1125+883971149+881368467+872765803+858494783+840121704+819895778+800087842
1115+782425565+767700289+755633476+745085483+734545426+722777251+709461709
1105+695605985+683481134+675948132+675318452+682326126+695856634+713548330
1095+732849944+751976570+770219009+787413777+803210462+817021548+828560339
1085+838025344+845685126+851564153+855587711+857843621+858731887+859019164
1075+859704260+861657164+865249041+870219630+875908304+881691135+887207297
1065+892261339+896723277+900575924+903918245+906888598+909629639+912270260
1055+914906294+917614128+920387793+923011520+925138027+926617524+927657475
1045+928558047+929414928+930225494+931097885+932054748+932769482+932871941
1035+932456281+932018993+932028532+932741446+934090740+935146566+933493246
1026+925870603+910725880+890262413+868621873+848095416+829288618+815055246
1016+810690888+818389410+833854762+850014968+862523875+870954318+876615174
1006+880613026+883353921+885041830+886361048+888351163+891512670+895336190
996+898767424+900900631+901363625+900419797+898764002+897052207+895513508
986+893930388+891881652+888974799+884903544+879397213+872202900+863147802
976+852368093+840715702+829839797+821362094+815687547+811788221+808291084
966+804756881+802121867+802233283+806801902+816270039+829377969+843809267
956+857314798+868471717+876874634+883019383+888001915+893004619+898752132
946+905263751+912056750+918611407+924720255+930457500+935845571+940652751
936+944599119+947620300+949672240+950381804+949351538+946965862+944528264
926+943294246+943405225+943809743+943151008+940839390+937517386+934592983
916+933254322+933774552+935559895+937733008+939651759+940949131+941257381
907+939993360+936233122+928694659+916205341+898722567+878020248+856986377
897+837774623+820810842+806252544+796109506+793324627+797972767+805652356
887+811093658+813218855+815859622+823535935+837124335+853712507+869855600
877+884125164+896797044+908212113+917908906+924802907+927641746+925275585
867+916854609+902125620+881668488+856962637+830390685+805023405+784224598
857+771635953+770958357+783959531+807806026+835504877+860127203+878493582
847+891024772+899419606+905140175+909317457+913038445+917255268+922380966
837+927991576+932954447+935946500+936030826+932935440+927120641+919882418
827+913151317+908610806+906782353+906966225+907928840+908684427+909114433
817+910269295+913861099+920882317+930472137+940346759+948518834+954586029
807+959498727+964414483+969785076+975225213+979946683+983093553+983874846
798+982110839+978927777+976283296+975345294+975395832+974092561+968595114
788+957358820+941821158+925168757+907698290+885221187+855747407+826540149
778+809337953+807805808+813953397+817629746+815434787+809579572+801875806
768+790969826+774722454+754510364+736226563+725899216+724821107+729956854
758+737944766+747116450+756627696+765909776+775544963+787429506+803085284
748+822004808+841724267+858814829+869975463+873646132+871250406+866157988
738+860889707+855494136+848778255+840949456+834674139+833050458+836597332
728+843019237+850200951+858577507+869892375+884065306+897609431+904370461
718+897591808+873136752+833531293+789795448+756987648+744909475+751705022
708+765261891+770818395+759808792+733898124+701415395+670669001+647193528
698+635181476+638070124+656288532+685210551+716636652+742938949+760670697
688+771744819+781463168+794317463+810921729+828596822+844252745+856383131
679+864760487+869635755+872056676+873831387+876141694+878994879+882421162
669+886669735+890433614+892426860+894127513+897353393+902428699+908388411
659+914261758+919714420+924573158+928519525+931210102+932515484+932739699
649+932619981+933012339+934359739+936228462+937201782+935474695+930392763
639+923468250+916631778+909626507+901254612+893178296+889768252+893243252
629+900105794+902857321+896061119+882463907+872307616+874187990+887452921
619+904658539+918946163+927583344+931200489+931610178+928337838+916407418
609+891150460+857457963+830701702+824741553+840147410+865922631+890366255
599+908091303+919243417+925983984+930520709+934464892+938280619+941298524
589+942814795+943025611+942731197+942690053+943431294+945135006+947465484
579+949875045+952167948+954487139+956750185+958066127+956294037+948321345
569+932114971+909667651+887142414+870972887+864007231+865009097+870535890
560+876999084+881960134+884792929+886900576+891031836+899226194+910766077
550+922575397+931822304+937643876+940579930+941557984+941560242+941286654
540+940903545+940312169+939454051+938363052+937171197+935999004+934881936
530+933876428+932815578+930662272+925512398+915782690+901340104+883800166
520+866692418+854822002+851835774+857691280+868823441+880586810+889493282
510+894383405+896386773+897508720+898694385+899194517+897906612+894902688
500+891159199+887196301+882991566+878874288+875536628+873192532+871326941
490+869422463+867512451+865887168+864839934+864922440+866781551+870413042
480+875034894+879726144+883931097+887612471+890827574+893003381+893652431
470+894115498+896610332+901492517+907035259+911687914+915364408+918784938
460+922895735+928571155+935444912+941476498+945224866+947184178+948445504
450+949215145+948484099+945117092+939305788+932687559+927166955+924027221
441+923509540+924901724+927525815+931426233+936716724+942652332+948060137
431+952325241+955434899+957617115+959457802+961731116+964373339+966447998
421+967759570+968949969+969035388+966221162+961280210+955951198+950409621
411+943605918+935860572+929627273+927055758+928098185+931199397+934628301
401+937058544+938230883+939404169+941258327+942356244+942501302+943579703
391+946112914+947731716+946385554+943902662+944576908+949939637+956841357
381+961929989+964087882+962316812+954154494+939245565+925160966
##END=
