##TITLE=SG-V3041(2-13)
##JCAMP-DX=4.24
##DATA TYPE=INFRARED SPECTRUM
##DATE=20/9/2018
##SAMPLING PROCEDURE=Diamant-ATR
##ORIGIN=Lara
##XUNITS=1/CM
##YUNITS=TRANSMITTANCE
##RESOLUTION=4
##FIRSTX=3997.453
##LASTX=373.96442
##DELTAX=-1.4165319
##MAXY=1.0029695
##MINY=0.52574182
##XFACTOR=1
##YFACTOR=9.3408814e-010
##NPOINTS=2559
##FIRSTY=1.0026397
##XYDATA=(X++(Y..Y))
3997+1073388696+1073662315+1073741823+1073549753+1073214365+1072815167
3989+1072434346+1072256825+1072336715+1072408949+1072178338+1071716605
3980+1071343951+1071182000+1071100068+1071050551+1071147926+1071399722
3972+1071604043+1071547890+1071201016+1070746557+1070460623+1070476511
3963+1070642163+1070681343+1070527687+1070422081+1070602601+1070982273
3955+1071217607+1071080669+1070705846+1070421953+1070337085+1070216675
3946+1069987850+1070028179+1070562783+1071062547+1070824151+1069977322
3938+1069163546+1068674183+1068411220+1068327246+1068551667+1069096800
3929+1069715060+1070190066+1070486211+1070562783+1070361078+1069881734
3921+1069416363+1069155315+1068966053+1068570683+1067945978+1067393060
3912+1067186250+1067347435+1067686971+1067957081+1067982988+1067753589
3904+1067523616+1067528019+1067509833+1067171191+1066743213+1066464298
3895+1066189211+1065885409+1065964853+1066643988+1067185420+1066987033
3887+1066543550+1066538509+1066733961+1066677297+1066917288+1067842796
3878+1068466863+1068076087+1067353306+1067234682+1067805914+1068384228
3870+1068343517+1067721110+1067317189+1067899970+1069387011+1070608599
3861+1070562783+1069599563+1068438276+1067372959+1066581581+1066812831
3853+1068538650+1069683730+1069013783+1067721939+1066818318+1066588728
3844+1066918692+1067345648+1067187335+1066384981+1066028663+1067055949
3836+1068615797+1069353829+1068996682+1067980244+1066904335+1066244534
3827+1066135673+1066299730+1066365200+1066430542+1066911737+1067454318
3819+1067095192+1066175683+1065768891+1065945901+1065816621+1065095052
3810+1064292443+1064181157+1065279974+1066810533+1067245657+1066664854
3802+1066387661+1066733642+1066670087+1066151690+1066104917+1066738555
3793+1067382276+1067642559+1067711985+1067760289+1067642367+1067230917
3785+1066770014+1066644435+1066924116+1067389550+1067731128+1067717089
3776+1067426496+1067055502+1066617634+1066131334+1065934224+1066406166
3768+1067283752+1067881657+1067867555+1067427964+1066988310+1066825912
3759+1066860433+1066761655+1066351800+1065686447+1064925762+1064606391
3751+1065574907+1067325676+1068115778+1067793534+1067356241+1067356241
3742+1067333844+1066849203+1065955281+1064775361+1063700728+1063688476
3734+1065087522+1066493140+1066706650+1065985783+1065172518+1064951095
3725+1065458963+1066263996+1067014472+1067610781+1067698903+1066966295
3717+1065783057+1064891688+1064777148+1065520285+1066601490+1066981227
3708+1066504179+1065916229+1065640695+1065658690+1065869903+1066179128
3700+1066483505+1066774800+1067027489+1067046888+1066703459+1066206631
3691+1065895172+1065860905+1066051954+1066571116+1067197800+1067298684
3683+1066567224+1065502609+1065040621+1065724415+1067484373+1069512462
3674+1070043047+1068658805+1066883150+1065898171+1065753193+1065787651
3666+1065778016+1065811771+1065826703+1065728371+1065591051+1065621361
3657+1065896193+1065960833+1065069464+1063250034+1061373431+1060714843
3649+1062214964+1064479982+1065539045+1065632974+1065531898+1065518562
3640+1065480276+1065158479+1064556619+1064179562+1064558660+1065438926
3632+1066036512+1066227624+1066643414+1067217836+1067225366+1066927243
3623+1066748765+1066601107+1066392383+1066309812+1066204015+1065621106
3615+1064715251+1064026800+1063742843+1063668568+1063681011+1063698367
3606+1063567045+1063414091+1063699707+1064703957+1066033704+1066785328
3598+1066551399+1065845272+1065403895+1065467258+1065731051+1065910805
3589+1066065865+1066306430+1066355756+1065934670+1065407659+1065214760
3581+1065322728+1065402363+1065303584+1065143356+1064961751+1064633000
3572+1064152570+1063739461+1063642597+1063992215+1064645060+1065078652
3564+1064949819+1064469645+1064066937+1064047602+1064369143+1064653291
3555+1064541304+1064051622+1063566790+1063358257+1063264902+1063069961
3547+1062846497+1062763798+1062886506+1063256735+1063816799+1064218550
3538+1064113901+1063630983+1063225850+1063069578+1063017126+1063062176
3530+1063309251+1063645468+1063875314+1064046262+1064184986+1064029288
3521+1063511147+1063093188+1063168229+1063476689+1063522441+1063333626
3513+1063331074+1063536607+1063457801+1062859259+1062158300+1061854690
3504+1062102721+1062782750+1063471521+1063615158+1063148895+1062655703
3496+1062713707+1063237974+1063687264+1063769133+1063596526+1063291320
3488+1062814783+1062237042+1061862539+1061904526+1062250634+1062643324
3479+1062916433+1062951720+1062638474+1062058628+1061545975+1061352884
3471+1061369539+1061350651+1061313896+1061437369+1061659621+1061745765
3462+1061744936+1061948172+1062338501+1062526615+1062337097+1062103232
3454+1062210880+1062603123+1062993006+1063346452+1063779406+1064058577
3445+1063729315+1062811656+1061848564+1061251361+1060962938+1060756766
3437+1060574204+1060524049+1060737176+1061231516+1061800004+1062057544
3428+1061743021+1061041425+1060511287+1060530813+1060886046+1061103576
3420+1061087879+1061069821+1061077478+1060954515+1060798817+1060932309
3411+1061440815+1061997051+1062143050+1061675765+1060859693+1060271296
3403+1060305945+1060825937+1061359393+1061564097+1061432966+1061151370
3394+1060888790+1060740175+1060731816+1060787970+1060807623+1060850504
3386+1061086092+1061511900+1061958701+1062388529+1062859386+1063179524
3377+1062984264+1062244125+1061366539+1060713311+1060270147+1059837576
3369+1059386435+1059194110+1059597648+1060486848+1061236302+1061425054
3360+1061371198+1061606722+1062107890+1062351901+1061887999+1060739282
3352+1059490255+1058908814+1059204384+1059812434+1060074568+1059849062
3343+1059343363+1058741311+1058184118+1057850389+1057838073+1057997089
3335+1058051200+1057961802+1057982668+1058247354+1058534756+1058604629
3326+1058568385+1058761667+1059342789+1060135890+1060822363+1061190040
3318+1061217095+1061060121+1060948708+1060922099+1060781206+1060464195
3309+1060183429+1060008014+1059761450+1059479854+1059472516+1059843638
3301+1060371734+1060834041+1061142054+1061250085+1061125974+1060792436
3292+1060398470+1060198424+1060290120+1060485380+1060608790+1060714651
3284+1060864478+1060970149+1060988143+1061012263+1061098152+1061174087
3275+1061120167+1060841762+1060369373+1059926081+1059754686+1059859144
3267+1060043684+1060162882+1060194276+1060156437+1060114641+1060125680
3258+1060038962+1059610155+1058984046+1058744757+1059208659+1059922252
3250+1060152417+1059710912+1059067510+1058807164+1059203363+1060166455
3241+1061311535+1062150196+1062459103+1062391464+1062094617+1061537041
3233+1060927140+1060844633+1061585473+1062664637+1063290490+1063121201
3224+1062349030+1061364625+1060612044+1060464195+1060878836+1061324042
3216+1061296093+1060807878+1060291779+1060172070+1060550531+1061140395
3207+1061491480+1061357223+1060833403+1060245644+1060007184+1060401724
3199+1061301453+1062189695+1062587617+1062384253+1061790943+1061163813
3190+1060855098+1061043467+1061613997+1062242403+1062646834+1062767627
3182+1062710134+1062588128+1062493497+1062502367+1062564390+1062470015
3173+1062114143+1061730515+1061658409+1061898592+1062122439+1062086705
3165+1061788965+1061286649+1060665517+1060150566+1059989381+1060220630
3156+1060627805+1060866074+1060685745+1060173921+1059730821+1059716081
3148+1060155416+1060775846+1061245746+1061403231+1061293285+1061006648
3139+1060633420+1060391387+1060517094+1060898745+1061101917+1060908699
3131+1060590859+1060511734+1060705143+1060990632+1061280778+1061517196
3122+1061460660+1060909146+1060084969+1059490191+1059437867+1059894495
3114+1060526155+1060758808+1060249154+1059464986+1059251157+1059695789
3105+1060053128+1059869481+1059522735+1059503783+1059740967+1059871523
3097+1059770830+1059564020+1059344001+1059127237+1058981749+1058981494
3088+1059056088+1059011230+1058679223+1058036652+1057251463+1056574242
3080+1056109574+1055813876+1055710248+1055882472+1056288690+1056728408
3071+1056840396+1056138863+1054452479+1052356303+1050793903+1050291076
3063+1050764614+1051826038+1052988729+1053863954+1054371248+1054602625
3054+1054566508+1054263408+1053800910+1053195858+1052232958+1050678087
3046+1048513953+1045964787+1043438912+1041346437+1039720609+1038114818
3037+1036144221+1034060425+1032570641+1032259884+1033345045+1035651285
3029+1038562640+1041256401+1043174034+1044181411+1044337874+1043714956
3020+1042406713+1040548104+1038327689+1036034722+1034080653+1032954653
3012+1033015209+1034205722+1036094449+1038268984+1040516262+1042649384
3003+1044481958+1046015899+1047423176+1048800590+1050009608+1050716565
2995+1050652052+1049948605+1049125322+1048622112+1048436998+1048266241
2986+1047851409+1047093595+1045945261+1044400408+1042656786+1041177914
2978+1040454239+1040639098+1041390849+1042113440+1042412839+1042253057
2969+1041585982+1040043299+1037247824+1033252265+1028329411+1022502044
2961+1015776735+1008922911+1003577696+1001249186+1002306973+1005964081
2952+1010894145+1015722432+1019408191+1021595998+1022491387+1022328543
2944+1021121184+1018759685+1014966660+1009165008+1000667298+989167942+975158598
2934+959995625+945602717+933876258+925857638+921097373+918030002+915335348
2924+912953301+911880008+913356009+918137076+925958395+935577255+945578851
2914+955096062+963751384+971304826+977607327+982677008+986604865+989472892
2904+991519487+993283783+995264143+997307100+998548151+998033838+995325146
2894+990771755+985636859+981756414+980526530+982082167+985540314+989873494
2884+994384132+998573994+1002038778+1004643395+1006472970+1007408943+1007045670
2874+1005217052+1002338623+999103877+996079450+993587585+991642130+989891744
2864+987741075+984570330+979917586+973716927+966506275+959230664+952668774
2854+947081142+942482510+939153962+937775528+939078219+943364690+950207347
2844+958486761+966821244+974180064+980217815+985082537+988963493+991888311
2834+993922654+995394125+996786406+998416382+1000251764+1002019762+1003523712
2825+1004873368+1006375531+1008198726+1010210097+1012159061+1013952201
2816+1015655303+1017234996+1018476494+1019291035+1019962641+1020878385
2808+1022081150+1023273704+1024201956+1024818557+1025081648+1024895704
2799+1024388410+1023962666+1023868418+1023939950+1023921509+1023841363
2791+1023937844+1024389814+1025184702+1026114548+1026897057+1027377741
2782+1027593740+1027632920+1027450804+1026802298+1025393171+1023117113
2774+1020093580+1016543546+1012801059+1009337552+1006484137+1004116384
2765+1001773390+999105089+996169231+993403620+991429131+990829503+991905413
2755+994482655+997990064+1001786981+1005373579+1008401324+1010761675+1012691815
2745+1014533323+1016348349+1017927978+1019138592+1020102641+1021053481
2737+1022104058+1023155144+1024014034+1024569441+1024805029+1024743579
2728+1024518584+1024422294+1024713525+1025389916+1026229918+1026996537
2720+1027550285+1027846557+1027899265+1027777195+1027635408+1027664506
2711+1027911644+1028214425+1028416832+1028585674+1028918829+1029461410
2703+1030018859+1030391512+1030595578+1030727283+1030728942+1030529470
2694+1030304474+1030318194+1030586964+1030914056+1031146773+1031278925
2686+1031428816+1031746145+1032211196+1032583531+1032651297+1032441808
2677+1032143749+1031967121+1032086383+1032550094+1033167716+1033595438
2669+1033616751+1033322648+1033009274+1032952738+1033256413+1033800908
2660+1034310881+1034563061+1034569186+1034541046+1034673644+1034954793
2652+1035193445+1035257829+1035224137+1035214119+1035230901+1035270209
2643+1035403636+1035626335+1035796071+1035836974+1035855160+1035988396
2635+1036242681+1036504113+1036649026+1036640795+1036573921+1036643985
2626+1036997304+1037553604+1038061536+1038403879+1038710872+1039085120
2618+1039405640+1039551511+1039628786+1039786015+1039945988+1039921102
2609+1039724757+1039590882+1039703253+1040012415+1040272123+1040248833
2601+1039971129+1039729224+1039740901+1039961941+1040291968+1040705014
2592+1041090366+1041266419+1041254486+1041253976+1041299664+1041215881
2584+1040979335+1040870283+1041103192+1041489628+1041694141+1041720431
2575+1041873895+1042281580+1042736677+1043040989+1043245311+1043471136
2567+1043677372+1043770088+1043836451+1044032413+1044251794+1044175923
2558+1043685412+1043016103+1042500706+1042317187+1042455974+1042808336
2550+1043285192+1043850872+1044445459+1044947328+1045187001+1044991804
2541+1044444693+1044065084+1044265960+1044655140+1044491275+1043787062
2533+1043250543+1043203578+1043289085+1043178182+1042937361+1042732338
2524+1042622775+1042637069+1042815164+1043230443+1043957883+1044850145
2516+1045450155+1045433437+1045045660+1044795204+1044816517+1044856526
2507+1044776444+1044716015+1044766362+1044742752+1044401493+1043852723
2499+1043612349+1044037327+1044785633+1045181258+1045054913+1044820984
2490+1044768340+1044766234+1044685705+1044663180+1044849124+1045205506
2482+1045607321+1045935626+1046073456+1046019409+1046004605+1046262782
2473+1046641753+1046715837+1046386447+1046067075+1046107467+1046346246
2465+1046453384+1046386511+1046228133+1045895042+1045381942+1045061103
2456+1045281695+1045791605+1046032745+1045962298+1046047868+1046460914
2448+1046832163+1046859666+1046657386+1046476866+1046446684+1046541634
2439+1046563521+1046282627+1045735771+1045263254+1045192935+1045521176
2431+1045866710+1045785926+1045228988+1044565167+1044122960+1043968028
2422+1044127810+1044631530+1045235050+1045489080+1045232115+1044747282
2414+1044378458+1044273106+1044475258+1044896408+1045202953+1045085797
2405+1044618513+1044097628+1043725421+1043675457+1044135084+1044967875
2397+1045614403+1045635971+1045199635+1044806754+1044645377+1044456306
2388+1044036497+1043583825+1043389331+1043426724+1043453141+1043382376
2380+1043357872+1043487918+1043661483+1043716296+1043729441+1043950736
2371+1044465176+1045183236+1046119400+1047306020+1048480580+1049281721
2363+1049723226+1050064230+1050312644+1050280930+1050011905+1049664393
2354+1049084675+1047999066+1046531999+1045095815+1043949077+1043144171
2346+1042693988+1042604972+1042786130+1043046732+1043232166+1043299422
2337+1043252521+1043075192+1042787981+1042452210+1042046120+1041428561
2329+1040515816+1039505376+1038924062+1039241584+1040219352+1040934604
2320+1040861796+1040495971+1040466044+1040673300+1040688296+1040510647
2312+1040569544+1041092471+1041757696+1042077706+1041958444+1041755399
2303+1041904269+1042582830+1043574892+1044397537+1044703955+1044579333
2295+1044327473+1044066999+1043742586+1043464117+1043484409+1043802440
2286+1044159460+1044478449+1044881540+1045270592+1045386089+1045240729
2278+1045090009+1045112917+1045321003+1045549700+1045584476+1045452389
2269+1045265743+1044836170+1044053726+1043382439+1043262348+1043416833
2261+1043395138+1043362658+1043897263+1045301923+1047190970+1048617582
2252+1048833197+1047951655+1046595682+1045211249+1044129022+1043805886
2244+1044431739+1045641587+1047017150+1048481857+1049861248+1050458643
2235+1049613281+1047735848+1046346246+1046642263+1048136067+1049263089
2227+1049291421+1048881629+1048819350+1049089014+1049311202+1049444311
2218+1049812051+1050485379+1050708588+1049584119+1047645620+1046779966
2210+1048008574+1050333063+1052120906+1052563496+1051613166+1049820474
2201+1048507700+1048832942+1050199317+1050558889+1048900836+1046807532
2193+1046868663+1049697702+1052932066+1053490663+1050775908+1047272903
2184+1045773994+1046381853+1046865983+1045876729+1044642314+1044963728
2176+1046805746+1048850298+1050504522+1052010961+1053225466+1053760071
2167+1053853936+1053706981+1052409968+1049267236+1046034468+1046008752
2159+1050234731+1055818853+1059181348+1059472516+1058179396+1057054927
2150+1056666448+1056386958+1055590667+1054466772+1053528822+1052837690
2142+1052037697+1050935052+1049842552+1049384265+1049920401+1051138480
2133+1052222365+1052417561+1051513494+1049953391+1048509997+1047751609
2125+1047812101+1048628812+1050113619+1051813786+1052672867+1051814105
2116+1049621449+1047468801+1046355563+1046252572+1046575135+1046773330
2108+1046650303+1046438580+1046402400+1046427286+1046294687+1046092727
2099+1046046911+1046275672+1046823166+1047593168+1048309951+1048821903
2091+1049180390+1049273936+1048859934+1048106842+1047648236+1047864873
2082+1048378101+1048464500+1047915028+1047382784+1047728701+1048957053
2074+1050080055+1050254449+1049639379+1048885650+1048361701+1048194007
2065+1048548411+1049549981+1051078625+1052645939+1053515230+1053214300
2057+1051836758+1049721759+1047320633+1045487293+1045138888+1046405718
2048+1048506041+1050561314+1052222301+1053546369+1054775360+1056019410
2040+1056745765+1056163047+1054495296+1052980051+1052268564+1051801407
2031+1050868051+1049223080+1047063221+1045408870+1045537129+1047239657
2023+1048839515+1049317200+1049268640+1049757365+1051055398+1052581682
2014+1053851830+1055053319+1056374771+1057508173+1058319141+1059075232
2006+1059478897+1058837027+1057479267+1056488991+1056021898+1055268615
1997+1054128513+1053452568+1053364637+1052895694+1051835610+1051396019
1989+1052126330+1053080617+1053514783+1053635704+1053563535+1053154701
1980+1053036332+1054403345+1057196203+1059512334+1059778168+1058483006
1972+1056961700+1055905827+1055708972+1056676850+1058054519+1058336944
1963+1057132903+1055384623+1054210509+1054401941+1056024706+1057799851
1955+1057885293+1055917377+1053561301+1052715493+1053746160+1055506246
1946+1056686357+1057053587+1057292238+1057603570+1057141262+1055443392
1938+1053432340+1052499239+1053099058+1054461348+1055554423+1055920248
1929+1055630804+1054993592+1054308522+1053435913+1051778691+1049294420
1921+1047055819+1046042572+1046104915+1046370175+1046187486+1045442370
1912+1044299460+1042954271+1041480886+1040042214+1039147591+1039187217
1904+1039825641+1040179024+1039600518+1038258646+1036903247+1036121569
1895+1035999371+1036409864+1037266776+1038510315+1040063080+1041663065
1887+1042862830+1043569340+1044312924+1045637056+1047361535+1048776151
1878+1049477045+1049763618+1050202060+1050957705+1051759101+1052411436
1870+1053031738+1053761283+1054421467+1054729991+1054685579+1054477556
1861+1054211020+1053892669+1053671885+1053719743+1053845130+1053715850
1853+1053408730+1053340836+1053780873+1054610027+1055385644+1055617850
1844+1055187576+1054584886+1054421212+1054844020+1055571970+1056125463
1836+1056221753+1055963320+1055601770+1055483274+1055972573+1056880596
1827+1057534399+1057626222+1057236659+1056599575+1056050486+1055816046
1819+1055966319+1056504689+1057236340+1057799021+1058051137+1058170654
1810+1058361830+1058619114+1058728166+1058482496+1057966460+1057496559
1802+1057285729+1057341691+1057526550+1057540333+1057163341+1056515217
1793+1055939966+1055739154+1055869455+1055994524+1056041935+1056266931
1785+1056727132+1057090023+1057213815+1057279986+1057312721+1057318719
1776+1057557116+1058205111+1059094375+1059694130+1059545387+1059031457
1768+1058823818+1058908239+1058934402+1059023035+1059502315+1060170092
1759+1060644268+1060960194+1061186211+1061281225+1061324105+1061479995
1751+1061984863+1062888101+1063711640+1064225506+1064777531+1065539045
1742+1066375729+1067157663+1067622331+1067679569+1067902906+1068861340
1734+1070120130+1070562783+1070260896+1069733055+1069461478+1069605243
1725+1069844341+1069909427+1069877075+1069718634+1069329517+1068926809
1717+1068678842+1068406371+1068157765+1067856707+1067387636+1067052694
1708+1067011026+1066906185+1066579986+1066166303+1065296629+1063329734
1700+1059681814+1053426278+1042719959+1025944302+1004613340+979871579+948138546
1690+907241303+864296189+827689883+792390417+745785259+694539992+654586379
1680+623029655+595392810+573591310+562839621+567001471+584362078+612883911
1670+653408883+698527256+734069585+758942860+780616867+803642380+825791967
1660+842621416+854293444+863012449+870373247+879478242+893897950+906462687
1650+911980638+915239504+919511108+924619714+928963295+932607259+936138788
1640+939515959+942510906+945585934+950018085+955383975+959498030+962525903
1630+965694287+969485907+973545149+977258794+980528572+983640228+986329969
1621+988029370+989046191+990304790+992023781+993265917+993755216+993993037
1611+994229264+994376858+994114405+993076272+991101209+988100073+983864203
1601+978202232+970897205+961257414+947937671+929638857+906576270+881505693
1591+859516973+846691697+847118845+859962753+880116091+901811220+921254283
1581+936889455+949030426+959596426+970612035+980709922+987052687+990643496
1571+993774742+997165249+999480805+999338317+996555157+991818503+986287982
1561+978714694+960218706+924574855+894093466+877871812+871029602+873671931
1551+886138081+904592975+922363693+935669653+945635388+954415906+962725949
1541+971724891+981891884+989028835+992257200+994275271+996990090+1000641838
1531+1003876903+1006098977+1008033329+1010182148+1012083701+1013274278
1523+1014171773+1015267463+1016310318+1016948806+1017311824+1017681223
1514+1018225080+1018989530+1019966022+1021192397+1023313267+1027701324
1506+1032328352+1032687095+1027342263+1014023924+990541590+961412218+940981623
1496+938456450+944255294+947275828+945532142+941375781+938842758+941115689
1486+947549958+955971032+964981332+973706718+981328820+987580017+992880054
1476+997622133+1002077000+1006665486+1011016789+1014035090+1015679806
1468+1016528741+1016947083+1017078533+1016962334+1016674038+1016330610
1459+1015771119+1014227734+1011377765+1008347532+1005275438+1001286388
1451+995905119+990247488+987304547+988689746+991356897+990715793+985279584
1441+977284446+969679700+964046444+961717743+963667090+969008030+976847599
1431+986821820+997197920+1005284372+1010009859+1011646663+1010560480+1007318970
1421+1002139215+993912828+981705812+966663568+949654620+931297165+914996514
1411+906413617+908409929+918132163+930246844+940662953+947693723+952050897
1401+955234850+957834427+959465232+959899845+959907120+960949528+964105341
1391+969474677+976764198+985383595+993713356+999857862+1003596647+1005929241
1381+1007658250+1009158053+1010702459+1012558515+1014819641+1017201049
1373+1019175283+1020614529+1021919454+1023414981+1024981146+1026393656
1364+1027747396+1029280379+1030942771+1032433704+1033590844+1034457965
1356+1035154010+1035763464+1036300621+1036775371+1037245016+1037789129
1347+1038462712+1039246050+1040043235+1040794221+1041575581+1042504151
1339+1043518611+1044397920+1045039662+1045489143+1045697357+1045278760
1330+1043319586+1038499276+1030048020+1019224800+1009616787+1005086431
1322+1007060155+1013913787+1022518571+1030197847+1035812981+1039443352
1313+1041404760+1041654770+1039812113+1035624676+1029582203+1023067341
1305+1017591761+1013729757+1010842012+1007752499+1003644569+998424614+992497127
1295+986457271+980962037+976524207+973086926+969929390+966442656+963128402
1285+961503723+962890835+967445949+974225816+981930872+989571288+996647619
1275+1002968369+1008444715+1013058598+1016911349+1020156050+1022834050
1266+1024822641+1025970209+1026243190+1025722879+1024567271+1023052856
1258+1021509088+1020073862+1018616622+1016964376+1015086305+1013039519
1249+1010887701+1008727715+1006677164+1004740834+1002695515+1000059631
1241+996145366+990206458+981637407+970061670+955305552+937572738+917882408
1231+898302726+881570716+870243648+865806839+868146005+875671370+886079312
1221+897282843+907945771+917502927+925872633+933035810+938582858+941447185
1211+940400373+935459078+928907206+924359750+924378829+928977589+936338004
1201+944545504+952452520+959409717+964841523+968213653+969223519+967979660
1191+965005835+960883229+955819482+949685441+942507332+934873170+927899957
1181+922915143+921260601+924237999+932571014+945250738+959016389+969761569
1171+975221069+976567534+977039030+978477575+979511177+977846935+973705888
1162+969738469+968068229+968786608+970913795+973334958+974604978+972730098
1152+965660531+952343787+933943898+914288217+898561414+890911746+892963445
1142+903954360+921385542+941598798+960859364+976763178+988779527+997591887
1132+1004120851+1008981681+1012473137+1014791309+1016008686+1015680125
1123+1012293765+1003182772+986304381+963991886+944460955+936842809+943614636
1113+959081156+975213348+987365677+994612957+996933809+993715334+985225026
1103+974967741+969003436+971414899+980669211+991334245+999025900+1003119090
1094+1005538210+1008182007+1011428941+1014318537+1015889041+1016463400
1085+1017540521+1020311556+1024491528+1028775574+1032154596+1034531155
1077+1036324741+1037895118+1039356634+1040721988+1042052054+1043396733
1068+1044652460+1045677767+1046535317+1047381444+1048137918+1048574637
1060+1048728484+1048905941+1049281530+1049806882+1050441158+1051142308
1051+1051733513+1052057606+1052129840+1052017406+1051820806+1051782009
1043+1052121800+1052818419+1053728293+1054697766+1055456984+1055755936
1034+1055698698+1055667176+1055880941+1056214479+1056430222+1056505454
1026+1056691271+1057207115+1057958165+1058630791+1058974347+1058970582
1017+1058870208+1059019972+1059457010+1059531477+1057933023+1053645212
1009+1047615629+1043117689+1043240333+1047872466+1053846726+1057836542
1000+1058668503+1057551436+1056811617+1057972522+1060472427+1062212539
992+1061357606+1057790152+1053312759+1050471851+1050567886+1052273988
983+1052193076+1047572621+1039431101+1032589657+1031353200+1035329170
975+1040516135+1043791018+1044765468+1043790699+1040322087+1034265576
966+1028018144+1025675213+1029539642+1037803614+1045950302+1050062826
958+1049001402+1044661904+1040655178+1039683280+1041275799+1042335564
949+1040170346+1034520754+1026565114+1017275197+1007945143+1001143388+998799756
939+999412783+999431927+998018715+998587203+1004765528+1016243445+1029427399
929+1040903975+1049210381+1054202661+1056125335+1055204230+1051280586
921+1043673990+1031681633+1015054208+993723374+967390562+936240502+902895233
911+873684183+856754679+857350925+874252033+900857699+929601082+955419709
901+976250588+991856853+1002738205+1009607534+1013207532+1014250068+1013376502
891+1011088129+1007641468+1002958734+996629943+987948650+975879912+959148157
881+936929464+910191774+882643498+859897411+846896912+845519881+854225805
871+869592142+888074985+906917018+924376213+939632733+952429421+962705211
861+970600805+976709960+982018611+987343216+992781212+997806992+1001959397
851+1005406696+1008817177+1012733164+1017113246+1021484649+1025473317
843+1029033241+1032151151+1034599496+1036146901+1036810467+1036787304
834+1036368005+1035937922+1035756445+1035671002+1035191722+1033725930
826+1030668705+1025576243+1018465837+1009971445+1001401566+994533895+990657853
816+989503074+989464214+988905616+986923662+982991084+976216577+965048843
806+948054189+925299104+898411778+868924174+837787387+807864595+786022894
796+780440558+794626721+824341490+860546172+894978262+923230495+944272842
786+958816853+968129743+973083417+973425441+968098986+956760559+941203492
776+925244738+913092536+907500820+908847095+915367763+924347243+933652028
766+942522711+951092718+959425797+967174180+973945816+979605234+984083839
756+987105267+988307840+987565340+985003412+980714580+974712946+967314499
747+959401996+952276531+947437205+946329008+949704137+957069913+967172840
737+978951623+991575895+1003895536+1014483359+1021975416+1024939542+1021234958
727+1006791193+974856711+919209667+842564497+763218420+708702289+696514098
717+721624174+764809854+808803694+845618341+874393820+896628083+913183083
707+923787625+928101088+927113492+923930241+923081753+928123166+939294920
697+953807217+968365969+980997962+991075302+998728926+1004495738+1009140122
687+1013360039+1017258159+1020228028+1021745570+1022115352+1022176291
679+1022587422+1023632957+1025351821+1027594697+1030071757+1032489346
670+1034490636+1035094730+1032791489+1026986200+1016820356+1000083687+976024635
660+948966169+927360056+918353713+923223029+937132764+953141610+966311590
650+974697184+977710317+974371878+963067016+942224078+910998083+870250922
640+824150888+780787241+749723644+737700786+745427474+767573104+796399696
630+825266743+848709386+861131315+857849987+839567253+815816661+800904718
620+804261534+824765192+853796488+882472805+906301821+924882103+939317317
611+950692690+960008196+968280144+976178928+983617767+990069648+995508473
601+1000606168+1005652686+1009996714+1013149018+1015629779+1018194770
592+1020972889+1023762557+1026513875+1029032284+1030478294+1029099796
584+1022074641+1006595805+983589945+960554988+946996721+945433364+949094237
574+950301787+949188357+951746010+961892584+977441866+992951012+1004972466
564+1013768299+1021078048+1027680458+1033119539+1036797896+1038826241
555+1040082287+1041473675+1043082785+1044261557+1044325495+1042936212
547+1040458259+1038199813+1037437214+1038153933+1039539706+1041144987
538+1042564708+1042776495+1040885789+1036675763+1029621447+1018873523
530+1005103150+990636285+977111774+963916590+947962940+923762419+885905173
520+836102087+789723265+768689597+781470077+817346199+860339107+899315590
510+929057735+949086898+961265582+966614945+962902577+944700436+909861107
500+868546735+839170990+834463944+853910772+886301181+919028764+945050181
490+963225649+975867916+986036377+995592512+1004767187+1012803356+1018859421
480+1022704259+1024865777+1026269225+1027822054+1030181129+1033443377
472+1036523766+1036925645+1031760184+1020297518+1006890546+999011798+1000278118
462+1007330392+1013915509+1015587728+1009962129+996825522+979378579+963265850
452+955319463+960079025+975818973+996071537+1013642783+1024497526+1029434865
442+1031144348+1030493673+1026169808+1017217129+1006015449+997947056+995924709
432+997840492+1000514153+1002365232+1002513592+1001076834+1001145686+1007072661
422+1019498930+1034814921+1046922455+1050753256+1049840574+1049802798
414+1051769438+1054797949+1057747143+1060112663+1062021937+1063435085
405+1064094567+1064378332+1065149992+1066476868+1067337736+1067531273
397+1068870975+1070562783+1070370777+1060037877+1040200847+1019195383
388+1007657804+1010360753+1023039137+1035484101+1041720367+1044681302
380+1048612477+1054290081+1060166583+1065485317+1070562783
##END=
