##TITLE=F. Mohr LL-14
##JCAMP-DX=4.24
##DATA TYPE=INFRARED SPECTRUM
##DATE=12/6/2017
##SAMPLING PROCEDURE=Diamant-ATR
##ORIGIN=Angelika Moesle
##XUNITS=1/CM
##YUNITS=TRANSMITTANCE
##RESOLUTION=4
##FIRSTX=3997.4121
##LASTX=373.82813
##DELTAX=-1.4160156
##MAXY=0.94869184
##MINY=0.60192102
##XFACTOR=1
##YFACTOR=8.8353813e-010
##NPOINTS=2560
##FIRSTY=0.88279408
##XYDATA=(X++(Y..Y))
3997+999157874+999118949+999088591+999010067+998992189+999182228+999459224
3988+999523582+999310607+999091897+999115171+999308178+999413350+999344472
3978+999310337+999563384+1000098825+1000596554+1000671099+1000225989+999586186
3968+999246384+999422458+999881532+1000277462+1000505481+1000573415+1000362126
3958+999839166+999306357+999063024+998979507+998738737+998419375+998574806
3948+999615262+1001117558+1002114501+1002211848+1001842767+1001506068
3939+1001251199+1000980612+1000724393+1000504470+1000404222+1000706719
3931+1001493857+1002186752+1002113354+1001353065+1000496239+1000016319
3922+999960664+1000049106+1000100376+1000220862+1000561474+1001023247
3914+1001324327+1001383895+1001428352+1001607799+1001643959+1001142451
3905+1000282994+999907707+1000685131+1002200110+1003573352+1004537307
3897+1004970409+1004475782+1003013828+1001356101+1000797656+1001778544
3888+1002771507+1002508813+1001753921+1001711150+1002044274+1001839934
3880+1001611240+1002003662+1002145601+1001354887+1000379599+999983533
3871+1000006875+1000388571+1001617986+1003092083+1003568090+1003344928
3863+1003602968+1004479628+1004959952+1004514505+1003316190+1001639101
3854+1000121627+1000339189+1003126151+1005482238+1005599351+1004802835
3846+1004095098+1003571126+1002959927+1001978229+1000664690+999758415
3837+1000291966+1002074699+1003462109+1003685675+1003438160+1003396401
3829+1003479041+1003390667+1003155902+1002750864+1001971011+1001280275
3820+1001955832+1003886845+1004741580+1004150012+1004062110+1005099665
3812+1005726583+1005077807+1003672251+1002442768+1002247063+1002927140
3803+1003212299+1002902719+1003277602+1004669531+1005587005+1005580124
3795+1005358649+1005023973+1004359074+1003776951+1003758534+1004038093
3786+1003997684+1003542388+1003077916+1002889429+1003057543+1003716235
3778+1004727953+1005400002+1005290580+1004592355+1003487744+1002146680
3769+1001182456+1001202222+1001899637+1002713221+1003576793+1004256061
3761+1004309355+1003853856+1003455767+1003319091+1003176410+1002951022
3752+1002871282+1003313424+1004465528+1005318846+1004677492+1003197728
3744+1002686978+1004091792+1005540254+1005220555+1003600404+1002019988
3735+1001972833+1004228132+1007314689+1008943003+1008849164+1008093800
3727+1007548510+1007492585+1007493867+1006892989+1005887680+1005330922
3718+1005417947+1005567779+1005363236+1004896943+1004566855+1004974726
3710+1006389660+1007900523+1008488989+1008241338+1007626091+1007074122
3701+1007056717+1007717703+1008487909+1008747770+1008340843+1007323324
3693+1005930316+1004719453+1004495683+1005794516+1007697532+1008350490
3684+1007619547+1006585500+1005855501+1005409987+1005064855+1004859232
3676+1005256580+1006702950+1008131444+1008061756+1007215859+1007249252
3667+1008472258+1009451999+1009442487+1008790136+1007889460+1006993641
3659+1006325909+1006126898+1006571873+1007195418+1006793281+1004962448
3650+1002842139+1002613513+1005728674+1009511837+1010684045+1009797198
3642+1008453369+1007496498+1006982038+1006602298+1006263305+1006178776
3633+1006370366+1006365981+1005773198+1005174007+1005912911+1007701782
3625+1008314534+1007394024+1006002499+1004915428+1004592423+1005328089
3617+1006564452+1007185906+1007122155+1007220986+1007893305+1008663578
3608+1009055933+1009049660+1008680309+1007985997+1007297554+1007159798
3600+1007800343+1008692722+1009074485+1008838371+1008463758+1008268525
3591+1008103447+1007837784+1007736188+1008217861+1009156990+1009748963
3583+1009542802+1008740080+1007804863+1007221728+1007202231+1007534816
3574+1007843856+1007885884+1007550332+1006831531+1006056873+1006052286
3566+1007368186+1008952583+1009400863+1008888697+1008377138+1008374642
3557+1008659531+1008806731+1008711813+1008576149+1008558136+1008498838
3549+1008158496+1007730116+1007754402+1008387257+1009070438+1009330568
3540+1009300953+1009229174+1009104843+1008862522+1008559755+1008212869
3532+1007730723+1007209045+1007039582+1007440370+1008014735+1008191821
3523+1007964409+1007718850+1007571717+1007389706+1007264228+1007450017
3515+1007865983+1008065871+1007829149+1007479430+1007425461+1007567602
3506+1007526990+1007383365+1007686199+1008670932+1009789913+1010368731
3498+1010343230+1009953844+1009289889+1008486223+1007965759+1008027688
3489+1008422067+1008634165+1008470302+1008216647+1008333085+1009051211
3481+1010117032+1010900326+1010942287+1010341476+1009587056+1009167649
3472+1009205765+1009399042+1009447344+1009436415+1009636775+1010108937
3464+1010693962+1011163357+1011222858+1010724522+1010076623+1010043297
3455+1010907814+1012136285+1013000801+1013256277+1013090592+1012747821
3447+1012384745+1012134058+1012143908+1012494369+1013012405+1013276718
3438+1012998777+1012309188+1011559288+1011012716+1010753665+1010661985
3430+1010509387+1010320631+1010453395+1011023847+1011529807+1011411413
3421+1010718922+1009865941+1008999873+1008033962+1007073178+1006372255
3413+1005961078+1005593144+1005059930+1004460671+1004151496+1004399079
3404+1005070049+1005789187+1006403557+1007067039+1007845947+1008519414
3396+1008825823+1008719369+1008342597+1007918805+1007680060+1007728160
3387+1007943564+1008157281+1008382062+1008748782+1009260274+1009760432
3379+1010100235+1010220586+1010166144+1010092139+1010119191+1010187327
3370+1010194613+1010173295+1010149414+1010042960+1009927534+1010111028
3362+1010703878+1011394885+1011868733+1012169610+1012434598+1012520207
3353+1012145122+1011322566+1010477613+1010134910+1010499740+1011269744
3345+1011849237+1011821308+1011213751+1010351933+1009582941+1009167919
3336+1009262028+1009881255+1010895266+1012053240+1012981103+1013281440
3328+1012819533+1011940377+1011275073+1011215910+1011612717+1012031315
3319+1012219060+1012249282+1012314247+1012507794+1012743909+1012833160
3311+1012692436+1012476829+1012447011+1012734734+1013240761+1013698824
3302+1013887918+1013823829+1013663946+1013440109+1013066036+1012568779
3294+1012091693+1011730842+1011567586+1011775299+1012460841+1013414474
3285+1014188525+1014421064+1014026618+1013222277+1012493222+1012299878
3277+1012598462+1012850565+1012671860+1012235723+1011940107+1012030842
3268+1012599406+1013531452+1014381600+1014679374+1014434624+1014083555
3260+1013945597+1013991943+1014119850+1014321694+1014504986+1014496149
3251+1014418636+1014697791+1015409777+1015983873+1015883963+1015322482
3243+1014935120+1014907191+1014849241+1014507145+1014126191+1014005975
3234+1014065678+1014065543+1013980272+1013935545+1013940268+1013890009
3226+1013832262+1014033971+1014596936+1015139123+1015167524+1014713981
3217+1014281285+1014245530+1014599365+1015107078+1015452278+1015436492
3209+1015195318+1015067681+1015214005+1015508743+1015781422+1016026104
3200+1016361117+1016830513+1017285539+1017513086+1017481110+1017361906
3192+1017290531+1017194129+1016956598+1016679399+1016628736+1016924554
3183+1017391116+1017707712+1017642477+1017200133+1016598446+1016063950
3175+1015678543+1015465905+1015472112+1015664376+1015884030+1016023136
3166+1016145106+1016324485+1016444634+1016348771+1016201503+1016396129
3158+1016949245+1017313738+1017027972+1016264040+1015559609+1015281196
3149+1015455584+1015885919+1016379197+1016904315+1017432200+1017736788
3141+1017640521+1017364671+1017286551+1017442589+1017569956+1017539464
3132+1017467685+1017409263+1017173149+1016576858+1015777104+1015163611
3124+1014896802+1014740494+1014457628+1014187783+1014276427+1014850051
3115+1015658103+1016278072+1016427094+1016128713+1015613848+1015092102
3107+1014656842+1014331273+1014067904+1013770872+1013481328+1013417712
3098+1013659763+1013967320+1014095766+1014087198+1014095968+1014132667
3090+1014137727+1014167140+1014385984+1014885940+1015498894+1015825541
3081+1015549085+1014746363+1013829631+1013145978+1012676447+1012197337
3073+1011691445+1011386250+1011334844+1011260839+1011004688+1010844738
3064+1011110535+1011652789+1011937071+1011560974+1010508038+1009041632
3056+1007569828+1006520265+1006103894+1006172637+1006416644+1006664295
3047+1006947767+1007392135+1008091372+1008997849+1009916470+1010660906
3039+1011173477+1011470576+1011530145+1011261041+1010598234+1009671518
3030+1008819279+1008321752+1008146352+1008029037+1007767760+1007451096
3022+1007402052+1007822336+1008583165+1009475340+1010474308+1011594840
3013+1012698102+1013607346+1014257606+1014655695+1014839797+1014897813
3005+1014937481+1015033613+1015171909+1015195453+1014877643+1014128889
2996+1013085465+1011958591+1010847166+1009726027+1008553144+1007355031
2988+1006249880+1005437039+1005114236+1005348462+1006007289+1006770614
2979+1007180914+1006790448+1005379089+1002972272+999551916+994781456+988107576
2969+979307247+969124029+959232109+951014039+944088190+936614758+927887895
2959+920495417+918878639+925251574+937462275+951054043+962726942+971565926
2950+977983791+982541680+985578721+987167975+987127363+985213081+981413794
2940+976113021+970004264+963820558+958059092+952858229+948047832+943314814
2930+938499763+933962989+930674182+929727835+931579243+935720019+941035566
2920+946412368+951170347+955178561+958638719+961762246+964619030+967105654
2910+968948967+969897675+970005344+969614473+969108446+968859851+969280067
2900+970611551+972680792+975008410+977146461+978930408+980535246+982257061
2890+984114945+985726799+986634356+986600625+985549308+983365518+979807405
2880+974604317+967868237+960614661+954663696+951637719+951899536+954429403
2870+957643193+960353856+962206613+963488648+964685412+966165918+968030211
2860+970079619+972019604+973757475+975388150+976925121+978290268+979557731
2850+980932660+982475635+984055917+985546205+986890844+988033841+988920687
2841+989526490+989824331+989794311+989499640+989098920+988786709+988779625
2831+989304205+990461301+992094877+993905066+995658049+997179639+998256186
2821+998800599+999084004+999532150+1000245553+1000936357+1001375125+1001671483
2811+1002033818+1002470090+1002876005+1003264379+1003721430+1004192984
2802+1004501553+1004617046+1004762965+1005163685+1005791615+1006439919
2794+1006944462+1007264296+1007440505+1007530835+1007541832+1007475247
2785+1007458517+1007669738+1008087998+1008512398+1008825013+1009034751
2777+1009123597+1009064636+1008939630+1008882490+1008958114+1009141542
2768+1009350672+1009512714+1009655867+1009900077+1010318270+1010854924
2760+1011383416+1011822387+1012167452+1012399384+1012410447+1012123265
2751+1011655083+1011214493+1010841702+1010417303+1009934415+1009575183
2743+1009474463+1009571135+1009698907+1009668887+1009296703+1008551593
2734+1007689167+1007124448+1007161215+1007827530+1008867649+1009899537
2726+1010689846+1011259490+1011709457+1012079415+1012404848+1012722388
2717+1013007750+1013254861+1013565790+1013991606+1014381060+1014593833
2709+1014748657+1015032669+1015372741+1015510565+1015332399+1014977688
2700+1014721200+1014803165+1015238965+1015749782+1016008497+1015928083
2692+1015655741+1015411329+1015397702+1015672269+1016021112+1016124395
2683+1015919987+1015686908+1015705393+1015944341+1016161431+1016215468
2675+1016173844+1016182884+1016341823+1016633121+1016900470+1017007936
2666+1017055564+1017252686+1017541622+1017571913+1017146569+1016510476
2658+1016082771+1016013759+1016128713+1016226464+1016294667+1016426082
2649+1016634942+1016802179+1016817358+1016777286+1016921720+1017288440
2641+1017600044+1017637485+1017534809+1017555519+1017743534+1017911648
2632+1017879671+1017693208+1017600449+1017754733+1018041646+1018318170
2624+1018626738+1019021859+1019410166+1019692626+1019859054+1019889141
2615+1019753746+1019560132+1019569577+1019975222+1020678304+1021370524
2607+1021840392+1022050265+1021949207+1021481903+1020785567+1020159459
2598+1019882260+1020149879+1020971086+1022035558+1022910666+1023381411
2590+1023462904+1023262342+1022975294+1022772640+1022618559+1022432096
2581+1022364837+1022607630+1023031085+1023340934+1023482536+1023603426
2573+1023697400+1023583998+1023214040+1022767513+1022462048+1022433850
2564+1022733918+1023231310+1023581164+1023556338+1023389776+1023528409
2556+1024027826+1024481098+1024587417+1024488047+1024454451+1024570012
2547+1024816313+1025177839+1025551035+1025772780+1025776558+1025590769
2539+1025262907+1024910489+1024723082+1024827984+1025227490+1025844221
2530+1026510604+1026999227+1027183733+1027111280+1026865248+1026475727
2522+1026044244+1025793018+1025896976+1026379594+1027183801+1028150117
2513+1028940831+1029234962+1029049983+1028690010+1028407617+1028256706
2505+1028211237+1028273706+1028424077+1028505773+1028302242+1027854704
2496+1027575414+1027822255+1028441550+1028910743+1028876135+1028445462
2488+1028026595+1027950836+1028194844+1028430756+1028375640+1028083600
2479+1027852005+1027845124+1027916970+1027854434+1027673705+1027574065
2471+1027711078+1028095338+1028586389+1028911687+1028844766+1028468197
2462+1028111934+1027932689+1027721535+1027304557+1026936690+1026967452
2454+1027249238+1027297608+1027021152+1026850070+1027070466+1027462821
2445+1027768690+1028100060+1028575190+1028910676+1028822504+1028567567
2437+1028589290+1028833365+1028876810+1028530531+1027973098+1027468420
2428+1027181710+1027092188+1027011370+1026830236+1026677031+1026713865
2420+1026929269+1027229067+1027564822+1027891335+1028146609+1028355064
2411+1028655200+1029126484+1029643913+1030007934+1030169436+1030191766
2403+1030077149+1029822618+1029597162+1029647151+1030027700+1030558553
2394+1030997187+1031161590+1031002381+1030711623+1030650570+1030952055
2386+1031276072+1031204698+1030816863+1030598018+1030771731+1031007508
2377+1030901189+1030544656+1030416749+1030795882+1031506722+1032235439
2369+1032826805+1033206545+1033345987+1033453048+1033857277+1034491278
2360+1034834858+1034587478+1034067553+1033758648+1033796022+1034060942
2352+1034366002+1034415654+1033957389+1033075130+1032234292+1032046547
2344+1032700855+1033539331+1033740299+1033284395+1032791388+1032658961
2335+1032726692+1032733506+1032687700+1032624691+1032350056+1031684280
2327+1030769775+1029972719+1029601007+1029686278+1029997545+1030394352
2318+1031042656+1032025230+1033023387+1033651182+1033809446+1033566923
2310+1033062380+1032671374+1032866067+1033695302+1034643133+1035129192
2301+1035002163+1034511044+1033982215+1033614281+1033449271+1033377964
2293+1033202969+1032837396+1032436069+1032226602+1032267618+1032488217
2284+1032773241+1032829301+1032318619+1031477039+1031162467+1031852056
2276+1033086733+1034281946+1035408887+1036443676+1036960430+1036816130
2267+1036534074+1036519570+1036503986+1036205605+1035983657+1036335535
2259+1037102436+1037628094+1037552133+1037165782+1037037133+1037337741
2250+1037530275+1036893306+1035457054+1034115788+1033662313+1034045966
2242+1034736028+1035414621+1036038436+1036497847+1036626024+1036570301
2233+1036836638+1037747973+1038987372+1039816067+1039737475+1039010309
2225+1038551302+1039167157+1040814764+1042622863+1043470514+1042666982
2216+1040594166+1038639947+1037989080+1038641970+1039848314+1040914607
2208+1041332193+1040970735+1040489264+1040736442+1041557581+1041997833
2199+1041679011+1041092030+1040654814+1040521645+1041211504+1043168490
2191+1045490103+1046287631+1044865479+1042732420+1041918162+1042713396
2182+1043599972+1043194867+1041486747+1039181324+1037000232+1035907898
2174+1036650377+1038661332+1040568666+1041774806+1042528687+1042943304
2165+1043127743+1043838111+1045829501+1048840502+1052045657+1054860750
2157+1056481508+1055801566+1052919618+1049681677+1047992986+1048190512
2148+1049300453+1050161327+1050099803+1049243921+1048341288+1047809289
2140+1047311694+1046656847+1046355025+1046717495+1047214145+1047265146
2131+1046944030+1046569957+1046257746+1046092061+1046252551+1046795682
2123+1047521296+1048121634+1048355725+1048082372+1047244637+1045909038
2114+1044343801+1043050905+1042653018+1043589448+1045682638+1047945493
2106+1049126201+1048716508+1047320329+1045952753+1045196579+1045071641
2097+1045373935+1045928535+1046646593+1047403913+1047942592+1048095662
2089+1048051205+1048063415+1048002295+1047630651+1047197684+1047218327
2080+1047704858+1048049856+1047719835+1046862806+1046221384+1046459792
2072+1047514820+1048662269+1049285072+1049369197+1049149205+1048633598
2063+1047896111+1047564876+1048332114+1050049072+1051814939+1052786112
2055+1052513434+1051074349+1049460944+1049114328+1050427125+1052212961
2046+1053233988+1053620541+1054089195+1054739185+1055263224+1055579685
2038+1055633654+1054976379+1053237901+1051097758+1050091302+1051041158
2029+1053139407+1054882877+1055554320+1055558975+1055566126+1055752116
2021+1056022771+1056526977+1057521222+1058778026+1059552280+1059308542
2012+1058113735+1056157424+1053594569+1051247657+1050548960+1051837269
2004+1053614605+1054484113+1054779729+1055416226+1056141705+1055953961
1995+1054803678+1053940915+1054473252+1056041930+1057293945+1057501658
1987+1056954344+1056135027+1055414405+1055328527+1056404872+1058563229
1978+1061007016+1062705894+1062886150+1061355386+1058864377+1057006897
1970+1056993135+1058465883+1059945107+1060413086+1060029838+1059403258
1961+1059096781+1059760668+1061638184+1063794045+1064739178+1064011608
1953+1062566047+1061544345+1061267686+1061497729+1061936498+1062306995
1944+1062486577+1062602206+1062708727+1062698203+1062732406+1063089816
1936+1063557930+1063643066+1063320264+1062957322+1062638500+1062116484
1927+1061268833+1060196738+1058874159+1056822053+1053464098+1049147721
1919+1045427904+1044017086+1045246096+1047803892+1050313857+1052318740
1910+1054002102+1055626166+1057130958+1058290281+1059090305+1059689024
1902+1060250100+1060926264+1061689387+1062246617+1062441108+1062556804
1893+1062942616+1063547339+1064058628+1064301826+1064402074+1064541854
1885+1064653367+1064551028+1064239290+1063924852+1063764429+1063676797
1876+1063376122+1062655298+1061650664+1060724825+1060207734+1060341712
1868+1061087160+1061899326+1062321229+1062511740+1062901127+1063737715
1859+1064898724+1066004010+1066729489+1067040216+1067178916+1067466099
1851+1068038508+1068768170+1069449529+1069905770+1069787106+1068667315
1842+1066857261+1065385322+1064896498+1065457034+1066725711+1068096323
1834+1069213617+1070154837+1070993584+1071562485+1071759675+1071795429
1825+1071840156+1071699432+1071085938+1070212112+1069744133+1070115103
1817+1071082970+1072022706+1072511464+1072516321+1072299905+1072239190
1808+1072512813+1072993272+1073435549+1073677465+1073741823+1073681985
1800+1073317221+1072460193+1071313688+1070192548+1069122882+1067800775
1791+1065789618+1063222917+1060945019+1059582502+1059269549+1059826510
1783+1060824533+1061826671+1062638500+1063182913+1063294966+1062819634
1774+1061670430+1059723227+1057170625+1054913302+1053632954+1053282493
1766+1053611704+1054388858+1055466755+1056657177+1057463880+1057561564
1757+1057235456+1056741437+1055919960+1054718542+1053390903+1052068324
1749+1050659259+1049113586+1047205645+1044520549+1040928774+1036368591
1740+1030277712+1022394520+1013676494+1004402587+992145743+973830535+951830321
1730+930255248+908481568+885871099+863071873+839346875+813494957+786711533
1720+761062943+736274687+711401363+690687771+681262076+682012515+688391118
1711+698444877+711102509+725692031+742833883+761597439+777570794+789320936
1701+801055630+815379489+828135344+837815368+847266833+855712855+861654645
1691+866614131+872022708+877046214+880636775+884002623+888874004+893149568
1681+894425599+894314152+894799402+897167968+902302652+909261354+915489382
1671+920403265+925069699+928451062+928337322+925478312+922410239+921796611
1661+925011817+930571574+936169244+940711414+944432918+949485905+958216884
1651+965503515+967492072+967332054+967923285+969974177+971933321+973081107
1641+973833436+974258577+974059634+972885942+970536197+968001001+966998121
1631+968070756+971350860+976742773+982986520+988413243+992828316+996816225
1621+999947441+1001591136+1002268718+1002780547+1002627680+1000075888+994385526
1611+985545732+973398378+958438359+942352073+926833138+912189445+897743076
1602+883470758+871075955+863257121+861961325+867282066+877398497+889528312
1592+901557676+912785600+923149885+932379874+940120790+946397121+951551368
1582+955760347+958873485+960972341+963033217+966530007+970958842+974008768
1572+975708523+977787344+981082829+984349036+986465028+987848929+988782661
1562+989082864+989365999+992009471+997695448+1001080050+1001209778+1000197925
1552+998961967+997955849+997660840+998191356+999194911+1000346947+1001480432
1542+1002654529+1004736993+1008099332+1010411838+1010879818+1010955172
1534+1011872106+1013582925+1014870964+1015370043+1015769211+1016569910
1525+1017554035+1018461930+1019751520+1021701962+1023386134+1024285325
1517+1025166168+1026469723+1027694146+1028414835+1028650612+1028418343
1508+1027606716+1026063538+1023904709+1021820154+1020308144+1019501644
1500+1019190377+1018226827+1013333790+1000506224+979747297+954129807+927855851
1490+910049639+911748180+929283670+948721434+963707290+974776275+983551778
1480+990563303+995759376+999501320+1002304607+1003928873+1002344005+994380466
1470+980400053+964520132+951035694+944018773+944829793+948420826+949324740
1460+947324445+944654258+943863477+945575578+947241535+947936184+948376639
1450+949050915+950169086+951770618+953569069+955356052+957289628+959269280
1440+960653316+960810704+959197704+955129651+948796518+941233565+932737757
1430+923421754+914814837+909647502+910002754+916404428+926958818+938190520
1420+948662337+959256260+969179078+976045493+980228634+983723332+987701054
1410+992198565+996618428+1000499073+1003973263+1007377159+1010533876+1013037230
1400+1015067209+1017126263+1019242862+1020988896+1022034951+1021899758
1392+1019567553+1013121152+998934038+974073261+944551920+925377929+923544466
1382+931265346+935115903+927016093+911298416+901118840+907058202+927716476
1372+950911970+967514470+977773379+984753602+989958107+993950535+997307545
1362+1000403480+1003100111+1005116462+1006571805+1007822538+1008998929
1354+1009941835+1010485978+1010551348+1010079119+1009076104+1007643766
1345+1006040345+1004810121+1004630943+1005943808+1008606236+1011667496
1337+1014001792+1015408091+1016482277+1017749403+1019298922+1020945653
1328+1022523910+1024026814+1025481482+1026804061+1027908133+1028821357
1320+1029541034+1029947556+1030003077+1029893587+1029913353+1030294712
1311+1031071731+1032057071+1032976164+1033642007+1034100879+1034626538
1303+1035419478+1036379655+1037274799+1037986111+1038523508+1038971384
1294+1039436732+1039969879+1040542760+1041053173+1041334217+1041299811
1286+1041084610+1040948203+1041074895+1041376043+1041180742+1038641296
1277+1030367300+1013481800+990711110+972521179+969912652+983611819+1003292713
1267+1017854845+1022702818+1017185764+999611214+967616943+923914694+880323620
1257+852138552+846604093+858772091+878274213+897801025+915316479+931206790
1248+945633189+958222281+968830235+977831261+985669254+992416330+997905657
1238+1002162736+1005565620+1008578442+1011387666+1013868084+1015865951
1229+1017454665+1018911020+1020453860+1022044530+1023517751+1024842826
1221+1026110829+1027340379+1028452681+1029388032+1030180365+1030960420
1212+1031851112+1032828761+1033759188+1034535128+1035083116+1035301488
1204+1035071175+1034297597+1033024669+1031611827+1030629927+1030381670
1195+1030599570+1030645443+1029781466+1027166328+1021892270+1013388771
1187+1001885605+988382751+974018482+959331614+943989697+927103657+907907742
1177+886648118+865481591+848524852+840019194+841442358+850356224+862429169
1167+874650528+886595903+899021198+912006962+924677276+936061778+945700651
1157+953702103+960576748+966863805+972750952+978124043+982884316+987040338
1147+990630427+993762858+996621464+999304265+1001748591+1003890960+1005815159
1137+1007669941+1009502257+1011262121+1012916137+1014446565+1015792216
1129+1016910589+1017802630+1018341781+1018132718+1016584751+1012939142
1120+1006032385+994044779+974872543+947784733+915851312+886604538+868711841
1110+866544444+877599195+894988968+912153825+925944874+936840686+947059929
1100+958130533+969769297+980686359+989932202+997336958+1003162985+1007710620
1090+1011085507+1013034060+1013016992+1010840353+1007529351+1005171646
1082+1005162876+1006559865+1006520332+1002143510+991632160+974453406+951514332
1072+925173184+898263001+872864557+850379094+832635621+822103021+820519906
1062+827528327+840808829+857363026+874717450+891355434+906426629+919268295
1052+929209665+935648982+938175543+936783951+932306342+926734644+922814399
1042+922855214+927610562+936087413+946185967+955462033+961560469+962197304
1032+955007277+938253394+912911213+884430328+861343379+850556045+853221846
1022+865075204+880388113+895344017+908529871+919783700+929282590+937281411
1012+944063567+949835152+954685688+958716974+962105084+964950332+967197401
1003+968713662+969177661+967810355+963484668+955526796+944917897+934821097
993+929238201+930373845+937223394+946776929+956333971+964682916+971718187
983+977636838+982580403+986600153+989661952+991808234+993365578+994780444
973+996262097+997755354+999136624+1000281847+1001087066+1001437122+1001075799
963+999819332+998159582+997251013+997867879+999596036+1001385379+1002662220
953+1003536046+1004196155+1004679043+1005148372+1005858267+1006808190
944+1007753188+1008515771+1009133042+1009775881+1010562749+1011454588
936+1012359514+1013224368+1013969883+1014492978+1014693001+1014349151
927+1012705321+1007444890+994695915+973319988+950578306+939463380+946837576
918+966557733+986681241+1000504942+1008474619+1013081350+1015281061+1013836040
908+1005569060+988096107+964948781+946433551+942001140+951734931+967440465
898+981216875+990565934+996546042+1000568423+1003477895+1005712281+1007451501
888+1008814085+1009898525+1010741050+1011395559+1011855645+1011891535
879+1011179008+1009442487+1006190514+999853873+986743373+962629528+929130060
869+898679169+887940003+903044119+933917520+964652693+986322280+998961562
860+1006023143+1010327309+1013348295+1015558125+1016879490+1017002607
851+1015509080+1012253060+1007852693+1003604047+1000795160+999989740+1000808248
841+1002251380+1002952034+1000777148+991845270+970400532+932743761+885052253
831+845791319+834263935+854378740+892392045+930579939+959728085+979433063
821+992192696+1000067455+1004656848+1007421143+1009394050+1010962525+1012131360
811+1012968960+1013730598+1014603412+1015492687+1016155900+1016518302
803+1016795905+1017329119+1018331460+1019771759+1021386310+1022773787
794+1023597692+1023858498+1023915705+1024085168+1024290115+1024273924
786+1023998075+1023567402+1022881725+1021508010+1018313245+1010753125+996146738
776+976273984+959912996+956853558+968396256+986429678+1001933300+1011546673
766+1016566334+1019319768+1021258336+1022758136+1023818358+1024548087
758+1024838778+1023905181+1019449159+1007479093+986804561+965374799+956753310
748+965966502+982384158+990519318+985747374+976815901+974794423+982539926
738+994687887+1004952464+1011156476+1014303277+1015733457+1016036223+1015212521
728+1012812112+1007822943+998050564+979703717+949943765+912973750+882750271
718+874334809+890759278+921424494+952481323+976131978+991654692+1001496758
708+1008085840+1012847192+1016462646+1019413944+1022074686+1024443387
700+1026206624+1027166396+1027519893+1027669320+1027417757+1025157398
691+1018730223+1008404257+998686590+995297333+999752074+1008210980+1015556303
681+1019016664+1017940184+1012279640+1002909465+992584511+984874762+981464525
671+981218831+982466056+985145484+989684349+994880557+999823313+1004540882
661+1008735155+1011934980+1014345440+1016638113+1019088375+1021265285
653+1022613432+1023331692+1024225285+1025569249+1026797315+1027431654
644+1027641323+1027848092+1028254682+1028810361+1029433433+1030059407
636+1030429095+1030271977+1029879353+1029870987+1030246342+1030343352
627+1029800086+1028925045+1028061742+1027078494+1025622139+1023506889
619+1020647676+1016898176+1012288207+1007348488+1003057206+1000612340
610+1001037549+1004437532+1009674149+1015107348+1019555275+1022605336
602+1024541813+1026047887+1027554501+1028858326+1029518367+1029433838
593+1029031431+1028977125+1029420953+1029535502+1027767274+1021341516
585+1005770567+978720873+947098044+926739231+929364488+950973292+977210617
575+997097066+1008746893+1015015668+1018589701+1021315611+1024325060+1027500397
565+1030014680+1031404518+1031708364+1031233639+1030572990+1030306720
556+1030476520+1030705079+1030833121+1031037663+1031302584+1031301437
548+1030794128+1029228014+1025067674+1017459387+1009128117+1005443785
540+1009219595+1017622846+1025561289+1030731187+1033894448+1035920311
531+1036650175+1036013273+1034625661+1033318463+1032692152+1032880369
523+1033553093+1034299013+1034797552+1034593145+1033125726+1030272247
514+1026551014+1022773450+1019861685+1018759367+1020000115+1023191373
506+1027150542+1030814839+1033760402+1035864655+1037082535+1037553347
497+1037469763+1036987549+1036396116+1035883275+1034917431+1032513784
489+1028189447+1021593214+1010998752+993450310+968080335+939419193+916240699
479+906792337+913546901+931541533+953041926+972392597+986695341+995844512
469+1001910971+1006685275+1010196367+1011118226+1007958743+1000547308+991082822
459+983656006+982236620+987316524+995720248+1004454465+1011881483+1017264424
449+1020933442+1023596748+1025150179+1024556115+1021007313+1014900040
440+1006638322+995210713+981067515+970360797+971250545+983800238+999666600
430+1011488454+1017974859+1021509090+1024124430+1026311189+1027683757
422+1027996845+1027957717+1029057539+1031588148+1033649496+1034180686
413+1033480977+1031868652+1029260395+1025996617+1023883728+1024781099
405+1027932621+1030809847+1032142342+1031965729+1029937167+1026398079
396+1024033762+1023984380+1024533448+1024745479+1024695895+1024286270
388+1024497761+1028457268+1037181635+1043286007+1038929288+1028911350
379+1023474778+1027712158+1040481033+1055140175+1061792603
##END=
