##TITLE=HMS-Q281
##JCAMP-DX=4.24
##DATA TYPE=INFRARED SPECTRUM
##DATE=28/7/2021
##SAMPLING PROCEDURE=Diamant-ATR
##ORIGIN=Angelika Moesle
##XUNITS=1/CM
##YUNITS=TRANSMITTANCE
##RESOLUTION=4
##FIRSTX=3997.453
##LASTX=373.96442
##DELTAX=-1.4165319
##MAXY=0.99827194
##MINY=0.30293345
##XFACTOR=1
##YFACTOR=9.297132e-010
##NPOINTS=2559
##FIRSTY=0.99041367
##XYDATA=(X++(Y..Y))
3997+1065289457+1065233616+1065221243+1065232847+1065138925+1065009998
3989+1065061928+1065273750+1065420179+1065445118+1065504933+1065616230
3980+1065488649+1064883700+1064071608+1063666556+1063943836+1064582892
3972+1065184315+1065686110+1066133475+1066429475+1066495637+1066454286
3963+1066479481+1066536604+1066465762+1066303946+1066214768+1066107062
3955+1065759517+1065318627+1065191431+1065476212+1065854978+1066007562
3946+1065879148+1065588149+1065299202+1065140784+1065130206+1065227269
3938+1065395945+1065532180+1065474801+1065173224+1064803305+1064634693
3929+1064747528+1064998779+1065265479+1065550131+1065844977+1065988393
3921+1065789072+1065250990+1064611101+1064181302+1064089046+1064279776
3912+1064722205+1065395624+1066140271+1066673352+1066747657+1066193034
3904+1064977878+1063527244+1062740604+1063163287+1064351452+1065518332
3895+1066407677+1067029295+1067139951+1066562441+1065833886+1065580584
3887+1065791124+1066062120+1065919666+1065232847+1064403766+1064041092
3878+1064276699+1064668416+1064931655+1065111229+1065276378+1065305549
3870+1065046669+1064692137+1064662325+1065102061+1065802856+1066347605
3861+1066402677+1065925115+1065112511+1064343502+1064076096+1064689123
3853+1066016217+1067107831+1067612575+1067700984+1067427616+1066912550
3844+1066340233+1065762915+1065237527+1065073916+1065459158+1065940310
3836+1065972685+1065657581+1065327539+1065181494+1065278430+1065502112
3827+1065693996+1065876583+1066208164+1066745605+1067353055+1067697266
3819+1067592252+1067208100+1066700984+1066218871+1065942682+1065927744
3810+1066117191+1066406780+1066609947+1066568659+1066468005+1066641938
3802+1066991726+1066867480+1066069685+1065317153+1065193932+1065588790
3793+1066058594+1066431975+1066740220+1066913575+1066895176+1066806382
3785+1066740861+1066591419+1066294522+1065975122+1065686751+1065296317
3776+1064861004+1064763556+1065283495+1066227077+1066987944+1067094432
3768+1066725538+1066272083+1065801446+1065338117+1065089880+1065227269
3759+1065659440+1065989483+1065917101+1065647387+1065582892+1065819781
3751+1065892419+1065551029+1065677199+1066854016+1068452042+1068960440
3742+1068006921+1066974288+1066593214+1066600010+1066519679+1066230154
3734+1065958517+1065660851+1065349465+1065470570+1066213678+1066989931
3725+1066866582+1065814332+1064884148+1064670467+1064718294+1064505382
3717+1064165338+1064184572+1064856068+1065925372+1066456209+1065897804
3708+1065234450+1065349913+1065992303+1066453132+1066253170+1065567634
3700+1065088405+1065120461+1065402292+1065734963+1066160145+1066602125
3691+1066653863+1066029424+1065307344+1065235860+1065518717+1065665659
3683+1065597637+1065380430+1065096163+1064955888+1065215986+1065622064
3674+1065263748+1064153991+1063242271+1063096868+1063580840+1064134757
3666+1064525128+1064636553+1064327731+1063834975+1063675917+1064000702
3657+1064508844+1064854080+1064824782+1064362158+1063607574+1063046861
3649+1063156170+1063160402+1062289713+1061195342+1060574108+1060485636
3640+1060523333+1060390431+1060236950+1060257465+1060360812+1060458388
3632+1060651426+1060855747+1060507433+1059315421+1058162774+1057724384
3623+1057927038+1058526923+1059238168+1059673480+1059560966+1059088918
3615+1058576416+1058001920+1057220409+1056571608+1056714190+1057647323
3606+1058474288+1058611870+1058311446+1057830231+1057115460+1056297021
3598+1055928641+1056394470+1057293047+1057704510+1057301702+1056637257
3589+1056232975+1056103471+1056041219+1055944284+1055665210+1055034103
3581+1054213164+1053704381+1053827538+1054316960+1054602125+1054350810
3572+1053686815+1052985571+1052626294+1052954541+1054061222+1055232654
3564+1055550964+1054987110+1054188289+1053826512+1053983968+1054168671
3555+1054029615+1053648861+1053170723+1052623858+1052175403+1052138347
3547+1052636039+1053330872+1053581160+1053101804+1052264004+1051631231
3538+1051401522+1051335231+1051197329+1051032244+1050874467+1050601740
3530+1050259260+1050152131+1050387866+1050648861+1050639244+1050393059
3521+1050045835+1049613985+1049071543+1048488776+1048039296+1047845553
3513+1047831320+1047833372+1047862222+1048097252+1048603983+1049258490
3504+1049873056+1050174313+1049877801+1049020191+1047975249+1047075646
3496+1046417870+1046003842+1045902868+1046160144+1046666620+1047237911
3488+1047714703+1047916523+1047690212+1047119690+1046574300+1046442873
3479+1046792982+1047295033+1047493905+1047223742+1046787020+1046602701
3471+1046683737+1046563081+1045807407+1044680083+1044043591+1044336385
3462+1045029294+1045428127+1045515190+1045579557+1045644886+1045654567
3454+1045695021+1045795674+1045876454+1045930564+1045997688+1046050451
3445+1046060388+1046083788+1046205407+1046429281+1046589494+1046423704
3437+1045862606+1045190084+1044799713+1044812471+1045015510+1045141103
3428+1045103278+1044987879+1044970056+1045235795+1045776057+1046243488
3420+1046228166+1045680980+1044861965+1044010766+1043252335+1042693353
3411+1042486404+1042763106+1043387545+1043883955+1043862029+1043439026
3403+1042990956+1042642962+1042274133+1041881006+1041666876+1041751951
3394+1041959285+1042017369+1041925050+1041921139+1042115074+1042363503
3386+1042500380+1042501406+1042429345+1042314266+1042107766+1041772915
3377+1041406073+1041143603+1040924216+1040484609+1039634628+1038500829
3369+1037517177+1037100905+1037240026+1037534743+1037732204+1037948899
3360+1038254771+1038396713+1038141872+1037553463+1036754322+1035794969
3352+1034966529+1034800033+1035442359+1036386327+1037039103+1037226755
3343+1037058528+1036716433+1036407932+1036168286+1035822921+1035401200
3335+1035267722+1035574043+1035930627+1035858759+1035308817+1034632768
3326+1034179954+1033985057+1033845680+1033653156+1033483647+1033390237
3318+1033348116+1033381454+1033481980+1033453386+1033070388+1032392417
3309+1031774197+1031530063+1031634691+1031783108+1031751822+1031615202
3301+1031532499+1031425242+1031051412+1030384403+1029712907+1029323818
3292+1029282274+1029573658+1030158156+1030748680+1030904213+1030577248
3284+1030212073+1030069170+1029854463+1029282851+1028651168+1028473324
3275+1028702649+1028705341+1028107508+1027294648+1026800930+1026631870
3267+1026582890+1026785800+1027350680+1027832794+1027694891+1027060707
3258+1026506983+1026322792+1026356194+1026367926+1026200982+1025744256
3250+1025014291+1024232139+1023659951+1023389275+1023346898+1023416009
3241+1023466400+1023344461+1022946462+1022336576+1021767657+1021485762
3233+1021458130+1021387351+1021066926+1020618407+1020290352+1020131549
3224+1019942871+1019544743+1019016855+1018567118+1018190852+1017714701
3216+1017203610+1017006790+1017295416+1017782979+1017984094+1017615970
3207+1016752526+1015692198+1014732908+1014058270+1013732780+1013678606
3199+1013704828+1013638729+1013405430+1013025638+1012625138+1012341768
3190+1012145653+1011937037+1011822022+1011958706+1012164694+1012129818
3182+1011979991+1012096929+1012408251+1012392223+1011823368+1011050321
3173+1010504674+1010316380+1010447679+1010905879+1011678414+1012549615
3165+1013185274+1013468131+1013583851+1013669887+1013562758+1013071413
3156+1012343948+1011775926+1011595903+1011693608+1011868823+1012054103
3148+1012188351+1012126741+1011898442+1011774388+1011853116+1011868695
3139+1011579299+1011084171+1010666810+1010523779+1010638152+1010829267
3131+1010948448+1010948256+1010711046+1010024035+1008835036+1007360039
3122+1005923637+1004827663+1004252654+1004100262+1004069810+1003977811
3114+1003821380+1003567438+1003191877+1002870105+1002774836+1002759449
3105+1002553333+1002123342+1001567181+1000887414+1000153795+999651294+999630715
3095+1000002942+1000323047+1000072182+999077759+997669630+996318944+995198031
3085+994183991+993137190+992042947+991002877+990176682+989696748+989607442
3075+989823431+990125842+990302146+990332214+990328881+990324842+990265796
3065+990195466+990281759+990573207+990799518+990567629+989845229+989145011
3055+989052884+989588273+990182067+990267142+989740023+988902159+988183926
3046+987943575+988303364+989084619+989999928+990871707+991595710+992084170
3036+992406968+992821316+993520572+994462488+995484542+996467745+997359462
3026+998161488+998921842+999612700+999969669+999647832+998663668+997535446
3016+996872925+996936523+997627189+998708096+999891966+1000801762+1001056731
3006+1000599108+999883119+999495890+999580965+999850807+1000055833+1000166232
2996+1000201493+1000130779+999913956+999564104+999182260+998898954+998772079
2986+998815738+999014418+999150717+998863886+998137703+997463065+997243550
2976+997320675+997297980+997019226+996532882+995905493+995243806+994656551
2966+994096864+993434407+992725919+992232074+992080067+992024547+991707070
2956+991117828+990586542+990307275+990140587+989908891+989588529+989182836
2946+988705211+988354397+988485119+989278233+990507622+991693928+992505314
2936+992963001+993254064+993458321+993551089+993597185+993796633+994302211
2927+995037241+995733228+996151679+996266245+996246370+996298364+996526022
2917+996912161+997366129+997748999+997947678+998024163+998189056+998523970
2907+998859270+999015764+999005186+998931651+998887607+998959283+999109174
2897+999090966+998749640+998338305+998223098+998335485+998263745+997849781
2887+997367604+997131035+997224381+997612123+998226624+998861962+999191620
2877+999071092+998748871+998635972+998892159+999372925+999910430+1000457167
2867+1000966976+1001331895+1001508840+1001623663+1001884145+1002386389
2859+1003018649+1003548846+1003811443+1003855680+1003954731+1004423188
2850+1005350359+1006515572+1007596288+1008420111+1008990313+1009362219
2842+1009635395+1010030318+1010747589+1011663156+1012383440+1012745346
2833+1013043333+1013591993+1014310739+1014955950+1015527433+1016139563
2825+1016671618+1016905623+1016940307+1017128280+1017593788+1018093788
2816+1018355616+1018353950+1018253232+1018238678+1018415688+1018780799
2808+1019251308+1019739191+1020217201+1020688672+1021096609+1021357861
2799+1021500635+1021621741+1021735858+1021816124+1021875491+1021862669
2791+1021684826+1021466015+1021511662+1021946846+1022624561+1023338820
2782+1023918830+1024256373+1024393250+1024433319+1024367734+1024181877
2774+1024048270+1024193417+1024641038+1025238230+1025829075+1026288942
2765+1026481851+1026317792+1025865426+1025358117+1025068593+1025156425
2757+1025565195+1026017625+1026194378+1026020446+1025741436+1025642513
2748+1025755412+1025932229+1026140012+1026498071+1027006983+1027427678
2740+1027572953+1027607380+1027875363+1028459348+1029064426+1029381646
2731+1029443385+1029510124+1029665465+1029721561+1029580582+1029461977
2723+1029592955+1029865490+1030012689+1029960054+1029821703+1029727716
2714+1029799328+1030116484+1030618087+1031152194+1031598020+1031865490
2706+1031910240+1031806957+1031653604+1031457746+1031262528+1031211368
2697+1031324203+1031416522+1031371773+1031291955+1031309842+1031401072
2689+1031415368+1031246308+1031004354+1030969991+1031275158+1031710919
2680+1031963708+1031950373+1031812214+1031682390+1031604752+1031601482
2672+1031659502+1031673927+1031532114+1031246949+1030938256+1030716497
2663+1030621805+1030621228+1030658541+1030739448+1030903700+1031100585
2655+1031236756+1031343500+1031520446+1031728870+1031817215+1031735666
2646+1031587378+1031491789+1031462298+1031411073+1031301636+1031287275
2638+1031568016+1032098661+1032606932+1032903188+1033002175+1032989609
2629+1032960887+1033011727+1033132576+1033191814+1033149373+1033143795
2621+1033239064+1033257592+1033027755+1032666875+1032477235+1032669375
2612+1033235794+1033920690+1034302598+1034145590+1033691045+1033412868
2604+1033527819+1033881582+1034163798+1034145078+1033864785+1033614625
2595+1033633025+1033925178+1034423831+1035079300+1035718677+1036091225
2587+1036147834+1036097251+1036096482+1036029742+1035746886+1035431268
2578+1035427678+1035685852+1035776633+1035562375+1035447424+1035791507
2570+1036365042+1036572504+1036112061+1035330101+1034890365+1035104047
2561+1035673351+1036066991+1036016536+1035668735+1035379723+1035367991
2553+1035527498+1035645847+1035751566+1036031281+1036412035+1036579172
2544+1036476595+1036407291+1036565773+1036906586+1037461913+1038256823
2536+1038956464+1039126742+1038804714+1038418318+1038276377+1038399726
2527+1038723870+1039221947+1039781506+1040113279+1040020639+1039719703
2519+1039563978+1039537051+1039394533+1039176107+1039187455+1039567888
2510+1040137962+1040637000+1041024742+1041496982+1042152194+1042757592
2502+1043001149+1042859465+1042594815+1042496918+1042706624+1043199636
2493+1043847925+1044461785+1044858952+1045036987+1045208099+1045509804
2485+1045817087+1045993007+1046135526+1046383634+1046656169+1046789969
2476+1046825358+1046919344+1047021857+1046903317+1046510317+1046041411
2468+1045686558+1045524486+1045576608+1045719126+1045695021+1045438321
2459+1045237654+1045386840+1045794905+1046088661+1046036731+1045755541
2451+1045504804+1045422998+1045525832+1045796636+1046165530+1046525383
2442+1046836641+1047106035+1047270223+1047256054+1047145591+1047138603
2434+1047304650+1047472492+1047436847+1047262722+1047282083+1047722717
2425+1048388571+1048832731+1048890687+1048917934+1049359337+1050200214
2417+1050994867+1051318434+1051050964+1050380878+1049732782+1049568979
2408+1050014613+1050661042+1050930243+1050709446+1050471402+1050673480
2400+1051208676+1051564107+1051362286+1050632513+1049701304+1048960311
2391+1048652708+1048745284+1049010766+1049294905+1049647771+1050128987
2383+1050621422+1051027756+1051454221+1051941399+1052301894+1052598791
2374+1053359529+1054747207+1056044040+1056606612+1056685405+1056742655
2366+1056822153+1057038719+1057595714+1057999547+1057395624+1055921909
2357+1054685340+1054271313+1054209702+1053927294+1053440181+1053007433
2349+1052693098+1052421717+1052192136+1052150079+1052416780+1052878762
2340+1053246181+1053302727+1053115908+1052966979+1052987174+1052982494
2332+1052707266+1052126230+1051295675+1050266184+1049269261+1048729769
2323+1048899406+1049588148+1050421652+1051227397+1051934346+1052338116
2315+1052315485+1052147002+1052296252+1052841258+1053366389+1053449156
2306+1053089815+1052641104+1052451592+1052667325+1053266056+1054039039
2298+1054564107+1054517755+1054041155+1053553336+1053369787+1053726692
2289+1054730923+1055961337+1056678801+1056755862+1056791636+1057126423
2281+1057412741+1057315549+1057081289+1057236501+1057936719+1058708420
2272+1058914344+1058509164+1058068146+1058052824+1058450503+1059107446
2264+1059937873+1060799201+1061530385+1062066479+1062265864+1061816768
2255+1060589816+1058958388+1057549426+1056769133+1056697970+1057296124
2247+1058403894+1059552503+1060160337+1060091675+1059656747+1058948772
2238+1057667582+1055857927+1054352221+1054088982+1055012498+1055770992
2230+1054793111+1051847861+1048180916+1044994803+1042540770+1041006406
2221+1041264837+1043828050+1047605907+1050656234+1052127833+1052803432
2213+1053773941+1055380878+1057482173+1059742784+1061477686+1062137322
2204+1062143284+1062513396+1063595009+1064673224+1064783815+1063703035
2196+1062131552+1060919409+1060366582+1060558017+1061739899+1063615588
2187+1064856709+1064389149+1062957171+1062477942+1063795227+1065732206
2179+1066516089+1065633604+1064073147+1063158030+1063342156+1063950695
2170+1063957619+1063115139+1062354465+1062861645+1064746695+1066986982
2162+1068807664+1070562761+1072598792+1073741823+1072520256+1069554619
2153+1067026410+1066031347+1065638412+1064858055+1064117960+1063846964
2145+1063139566+1061333949+1059560068+1059177391+1059836514+1060412870
2136+1060888059+1061947169+1063340617+1063948003+1063240604+1061787533
2128+1060433770+1059486725+1058624820+1057441591+1056134885+1055485635
2119+1055901330+1056803432+1057333116+1057292021+1057009100+1056694636
2111+1056343630+1056009036+1055804009+1055693675+1055468261+1054986340
2102+1054381199+1054011921+1054264774+1055292405+1056695598+1057657901
2094+1057776442+1057515896+1057485956+1057686751+1057793688+1057795483
2085+1057943194+1058257145+1058449605+1058330295+1058003266+1057602638
2077+1057111869+1056598214+1056371518+1056767851+1057806895+1058991790
2068+1059565325+1059315614+1058966787+1059349785+1060317152+1060909087
2060+1060445951+1059187328+1057911203+1057001342+1056309715+1055902355
2051+1056268556+1057549233+1059150785+1060412613+1061221563+1061713934
2043+1061826256+1061415370+1060813819+1060928898+1062201112+1063695919
2034+1064069300+1063270480+1062278301+1061610780+1061199573+1061171108
2026+1061846708+1063252208+1065048528+1066890239+1068765800+1070796958
2017+1072475507+1072608088+1070673609+1067710472+1065284072+1064060645
2009+1063706177+1063784520+1064204574+1064783046+1065042053+1064785482
2000+1064247464+1063350041+1061621871+1059307985+1057641617+1057520576
1992+1058488841+1059367415+1059624499+1059621358+1059580904+1058780417
1983+1056476980+1053674057+1052645784+1054298047+1057304074+1060056863
1975+1061743489+1061671621+1059839335+1057834013+1057493329+1058902356
1966+1060351644+1060434347+1059576545+1059040450+1059164312+1059211305
1958+1058646554+1057724192+1056852670+1056180853+1055806253+1055828820
1949+1056037052+1055872480+1055055195+1054140014+1053970505+1054501214
1941+1054765607+1054244322+1053370492+1052845233+1053000958+1053522435
1932+1053734257+1053420114+1053171813+1053670210+1054864530+1056052182
1924+1056512626+1056080519+1055174506+1054202266+1053252785+1052324653
1915+1051423448+1050546476+1049883186+1049810420+1050392161+1051122319
1907+1051497496+1051458388+1050998457+1049852349+1048012561+1046212972
1898+1045292982+1045231500+1045300419+1045043847+1044652066+1044588661
1890+1045279006+1046710856+1048250092+1049375044+1050178352+1050912485
1881+1051452746+1051503009+1051166748+1050962235+1051194508+1051606356
1873+1051819652+1051836834+1051962363+1052387481+1052847092+1052883186
1864+1052425115+1051845297+1051521537+1051470441+1051564876+1051824909
1856+1052184571+1052390046+1052330487+1052114626+1051813305+1051421075
1847+1050971402+1050541732+1050283430+1050364401+1050670915+1050867479
1839+1050734449+1050365427+1050118216+1050173351+1050249259+1049898252
1830+1049004932+1048071159+1047669056+1047754195+1047911587+1047925627
1822+1047919344+1047974672+1047979480+1047845232+1047590841+1047253682
1813+1046918767+1046756952+1046872159+1047123152+1047221114+1047036475
1805+1046714254+1046441719+1046200085+1045894790+1045566671+1045245155
1796+1044889853+1044543463+1044250861+1043944091+1043623088+1043364016
1788+1043136744+1042918446+1042731564+1042477685+1041999803+1041338500
1779+1040674505+1040071992+1039463965+1038768427+1037905496+1036845296
1771+1035707970+1034570260+1033317984+1031884788+1030370170+1028846000
1762+1027272594+1025684377+1024096353+1022177581+1019573657+1016507815
1754+1013441525+1010442486+1007358052+1004113020+1000626676+996858051+992985824
1744+989273040+985812083+982485311+979304133+976575835+974315096+971841445
1734+968473193+965062371+962707902+961045573+959632315+958466781+957520570
1724+956606222+955582373+954367089+952777077+950356382+946391386+941025057
1714+935355612+929575447+923002232+915096924+905275856+892044223+874958250
1704+856985880+838966646+815271748+782365284+748600633+718229622+687397398
1694+660261866+641050364+626567352+614088893+604791418+600337193+602194034
1684+613198137+630384508+646736606+662233786+678547545+697114221+719604990
1674+743514724+763199172+778685260+793796558+807989468+817669491+823415485
1664+827744822+832050759+836354901+840033450+843028449+845659235+848236809
1655+851738284+857252453+861972866+864334900+866684304+870698793+875697255
1645+879624553+882508834+885233606+888072945+891060828+894661867+899565829
1635+904495820+907416259+909036787+910686999+912783742+914994282+916942417
1625+918723735+920530185+922076857+922959599+923215080+922800219+920966779
1615+917083012+911158983+902445044+889451006+871473187+850026013+828877980
1605+813179749+808244244+816603970+834630834+854188534+868959019+878315732
1595+885946903+895365995+906755661+918125453+927980371+936286821+943683475
1585+950291886+955615133+959370230+961849459+963604363+965159434+966553139
1575+966901709+965921455+964514159+963538201+963729636+965208992+967169244
1565+968983386+970403697+971319904+971957037+972879848+973871834+973888118
1555+973470693+973161038+972969411+972875232+972816635+972652639+972463128
1545+972503325+972836573+973289259+973438573+972428380+970656422+969355421
1536+968601350+968018455+967308300+966352344+965176937+963684950+961505697
1526+958444791+954394464+947655779+935401772+916396193+886217514+835153144
1516+762426188+681948430+606473172+543857192+504793881+508846355+584937654
1506+698813798+772489209+813173274+844370865+872809448+897622631+916875357
1496+929026851+934208477+934086218+929056663+918106540+903341441+891724118
1486+887272137+889575701+897538069+909512233+922335160+932909272+940353945
1476+945325096+948378179+949568524+949099746+947740277+946058074+943951843
1466+940876320+936560638+931781499+927274768+922320991+913860996+896152122
1456+871251428+852726360+844296112+843610190+849394009+860097369+872084420
1446+880755147+884402025+884638530+883572816+882520630+882366251+884224118
1436+888827849+894592883+899467483+903443762+907037428+909983191+911685204
1426+912062239+911398116+910079742+908449276+906330735+902972804+898162187
1417+892798999+887172124+880731362+873302781+865652697+859146029+854809383
1407+853000113+853772391+856719180+861101601+866902922+874562750+883613975
1397+893065508+902727645+912141673+920061022+926272075+931750983+937376704
1387+943089937+948106350+952065704+955229315+957799067+959680206+960711813
1377+960776436+959569294+956528327+951342021+944174692+935412991+926247136
1367+918869459+914841699+914136800+915698090+917875229+919287525+919490692
1357+918510887+916574100+914250982+912373690+911737967+912819837+915505886
1347+919110002+922801053+925993962+928441007+930072819+930785859+930536532
1337+929566536+928142187+926238417+923649751+920159432+915572433+909735082
1327+902614361+894487101+886148211+878748864+873236811+870049287+869269635
1317+870784894+874342209+879599871+885939915+892340543+897833427+902007168
1307+904894653+906595833+907084357+906230466+903963765+900501718+896580061
1298+893493832+892531016+893947288+896609424+898906898+899931453+899732261
1288+898734504+897207257+895220592+892788549+889898115+886529798+882767072
1278+878847531+875063135+871607948+868452543+865313295+861785791+857547876
1268+852356633+845892919+837751939+827575185+815126217+800377081+783650128
1258+765511071+746391952+726419070+705594091+684018439+661968367+639850466
1248+618082418+596926178+576414509+556480734+537116520+518349529+500230122
1238+483052182+467523491+454578658+444967681+438886485+435812341+434711815
1228+434537241+434612379+434647832+434494415+433914950+432540222+429921329
1218+425587023+419192741+410730534+400578046+389383405+377921518+366866254
1208+356561406+347114618+338753161+331993736+327494986+325835382+327394813
1198+332340127+340606027+351811406+365267555+380175846+395812883+411503710
1188+426498486+440029644+451616579+461294455+469475056+476633153+483163029
1179+489405529+495705023+502478744+510195439+519106838+528913288+538745703
1169+547529202+554372387+558517406+558832446+553594403+541342895+522501633
1159+500296252+479568049+463879658+453381645+445450404+437152512+427094748
1149+415840356+405471494+398391836+395667833+396579744+400268936+407407896
1139+419301729+435238966+451552917+463939474+470758105+474180916+478547117
1129+487654952+503040322+524056479+548989581+576002982+603569723+630604601
1119+656323540+679954264+700656150+717711030+730622493+738848869+741442086
1109+737386758+727100375+713974909+703517927+699328415+699438429+697897719
1099+690989461+681155251+674261995+674282767+681290717+692771805+705371755
1089+716430288+725278474+733111274+741486643+751198786+762281746+774340152
1079+786711290+798688916+809837525+820089930+829578711+838470172+846902279
1069+854904844+862365929+869176034+875339452+880861956+885663148+889673086
1060+892870034+895209373+896669881+897361187+897426644+896815797+895193409
1050+892050442+886913373+879591664+870407410+860252389+850289316+841414268
1040+833986328+828103714+823980044+821841821+821498893+822255657+823350669
1030+824358490+825063068+825107176+823994469+821369517+816961580+810164298
1020+800276812+788033126+776973695+772266617+777095377+790004982+806012804
1010+820353041+831286943+839990431+848570186+858354261+869406576+880853301
1000+891441518+900161803+906731299+911532428+915035570+917397155+918605579
990+918720914+917854585+916193667+914163471+912320414+910975241+910047430
980+909228671+908134043+906424401+904015374+901181036+898362534+895822080
970+893449211+890899012+887943248+884711680+881658981+879337016+878108974
960+877964020+878570059+879518642+880554865+881610385+882659237+883647505
950+884684946+886174752+888521848+891724759+895338748+898749699+901514476
941+903652507+905623273+907881831+910496334+913232069+915853431+918260663
931+920430236+922290859+923670651+924402091+924499219+924216106+923926389
921+923922799+924312144+925070511+926143020+927461715+928859522+929983897
911+930414209+929976717+928812208+927024223+924471972+921041917+916922414
901+912468766+907876703+903039864+897782010+892286434+887176291+883076022
891+880217642+878493831+877748223+877996716+879389010+881868174+884932991
881+887873945+890179433+891716297+892720079+893587113+894446839+894921708
871+894318361+891887793+886996204+879465494+869960557+859882406+850579866
861+842362082+834150580+824440552+813102175+802125382+793989788+789128395
851+785305661+779419714+769473246+754902338+735609030+710882974+679283857
841+640164994+596130948+554355846+525163609+517883540+535686016+572848411
832+617368223+657336683+685985165+702409259+709365921+710890603+710732378
822+711321941+713442149+716941572+721765524+728118326+735890348+744504530
812+753337137+761651858+767876887+769721226+765809442+756874194+744658076
802+730311748+715286488+703601207+701214683+711726159+732908107+757812006
792+779148589+793106726+800118394+802763349+803095891+801707572+798506905
782+793475363+786834767+779335857+772333164+766883362+762857333+759249434
772+754759179+747760012+736895029+722828288+708890219+699141404+696007925
762+699854829+709494399+721740585+731065178+731711800+721462344+703649098
752+685613708+674297512+671359892+672422400+672997346+674839697+683637108
742+700380345+718132302+728255074+728166922+722728211+719408811+722499272
732+731116210+741620571+750758922+756406634+756907980+751336624+740910223
722+730262575+726771422+736258280+757395671+781440742+798288095+802388814
713+794658463+780828933+767677182+759322777+755945036+755366693+755337522
703+754524726+752496132+749568577+746677886+745334701+747462410+754496389
693+766195902+780567746+794999212+807437923+816975877+823739629+828109677
683+830098393+829759440+827759375+824896123+821180262+815659169+807305534
673+796322907+783929587+770920611+758594478+750658140+748306108+748651024
663+750068064+752848998+757653012+764385606+771786876+777810918+780772836
653+780461065+778306302+776364706+775832715+776459590+777235780+777387081
643+776899262+776448884+776687697+777510815+778398236+779479401+781711033
633+785756616+791153526+796917663+802490878+807588134+811464465+813126793
623+812411125+810292263+807971581+805877274+803579607+800661861+797486133
613+794874709+793339512+792757642+792370029+791086979+788187056+783732767
603+778252513+772318226+766480875+761239754+757034407+754450165+754196350
594+756552742+760762769+765193786+768639036+771423239+774663783+778650128
584+782586915+785884774+788799378+791541525+793401186+793040371+789599801
574+783493890+775843422+767309827+757929714+747940356+738263089+729717570
564+722003183+714145188+706169485+699846879+697303668+699060176+703704746
554+709450098+715852778+723932789+734814377+748295850+762409904+774370476
544+782364579+786224881+786115637+781449846+771694748+757556653+740834444
534+723230199+705405156+687513246+670495038+656219168+646701601+643221668
524+645044145+649400281+653312898+654657750+652315270+647321873+644170636
514+648876239+664702820+689606527+717337200+741328674+757912532+767149422
504+771679298+774332715+776511648+778451064+780113969+781194813+780676926
494+776765783+767349704+751434329+731143073+711753663+699545238+699553701
484+713056650+735971128+761414007+784076914+801508124+813403816+821216100
475+827143399+832460042+836981904+840127692+841698279+841661864+840279186
465+838212575+836126795+834389008+832562940+828883814+821618844+811485878
455+799888301+786569413+772158141+759455999+750427982+745060435+743253280
445+745020366+749274565+753940484+757559666+760584349+764529727+769931509
435+775740396+781291813+787122625+792680389+795726549+795292326+793064989
425+790992865+789120509+786365156+783033382+782959078+790037870+800102046
415+807761490+812420613+815403432+817814831+819927858+821682634+823075890
405+824141988+825269505+827019537+829133013+830178596+828531141+823697380
395+816322331+808114740+802058899+800828293+804822010+812121664+820012741
385+826351374+830434141+832826564+834044412+834604099+835972288+840643592
375+849237387+856474469
##END=
