##TITLE=LSH-R203A
##JCAMP-DX=4.24
##DATA TYPE=INFRARED SPECTRUM
##DATE=16/6/2020
##SAMPLING PROCEDURE=Diamant-ATR
##ORIGIN=Angelika Moesle
##XUNITS=1/CM
##YUNITS=TRANSMITTANCE
##RESOLUTION=4
##FIRSTX=3997.453
##LASTX=373.96442
##DELTAX=-1.4165319
##MAXY=0.91003174
##MINY=0.32851011
##XFACTOR=1
##YFACTOR=8.475331e-010
##NPOINTS=2559
##FIRSTY=0.75382227
##XYDATA=(X++(Y..Y))
3997+889431064+889243431+888945033+888658660+888311244+887878169+887529979
3988+887398748+887446711+887617325+887866987+888059332+888073819+888008766
3978+888096043+888438466+888912612+889315165+889544080+889594786+889422344
3968+888952839+888263351+887636876+887358732+887490596+887897228+888462447
3958+889109950+889636349+889791491+889541267+889065996+888618011+888483335
3948+888759931+889149826+889416506+889768635+890396938+891000768+891220892
3938+891076158+890769250+890566356+890799983+891520908+892203574+892279879
3928+891865159+891583780+891920929+892720831+893368122+893558498+893441825
3918+893171417+892753814+892257445+891859182+891664938+891542639+891153729
3908+890387796+889746622+889955635+891029742+892158002+893024855+894051984
3898+895001261+894976436+893774473+892290428+891884499+893008680+894269999
3888+894542587+894515370+894951962+895134320+894558833+894429219+895350154
3878+895767124+894785849+893540565+893038569+893038780+893394003+894599833
3869+896012777+896393107+896097592+896229174+896787432+896773366+895722115
3859+893853029+891589899+889898670+890879102+895480189+899349734+899646936
3849+898054095+896137749+894560942+893673202+893469394+893543519+893877362
3839+895028829+896663726+897392668+897068600+896837434+897254404+897773490
3829+897872299+897663850+897135551+895948498+894519238+894278297+895553400
3819+896405907+896300627+896741367+898057330+898825444+898280619+896750862
3809+895120044+894694212+895692437+896368422+895908482+895550517+896054200
3799+896459566+896590094+897189914+897975821+898087782+897605056+897161010
3789+897024434+897198213+897784039+898602366+898936069+898450319+897858234
3779+898030958+898734441+899046553+898688587+898014501+897579457+897933203
3769+899002317+899925151+900294650+900405064+900272075+899815722+899577523
3759+900121715+900826113+900515829+899164281+897735091+897580723+899740190
3750+902735145+903961511+903754046+903828171+904122420+902880090+900377847
3740+898331606+897708226+898575923+900504507+902947533+905167553+906187438
3730+905528894+903738293+902120978+901745641+902309455+902644704+902294897
3720+901683472+901247232+900890040+900181916+899161608+898956745+900809586
3710+903609734+905043425+904751075+903555231+902409601+902296444+903358244
3700+904271654+904000191+902974047+902044602+901588179+901572355+902038906
3690+903375404+905575380+907279338+907360144+906181320+904675754+903492569
3680+902701740+902131316+902164510+903558466+905262635+905286476+904411324
3670+904817253+906770169+908056102+907736536+906834026+906430278+906676001
3660+906921935+906865392+907085517+907779435+907788367+906456299+904897355
3650+905006433+907562335+910159449+910442938+909058265+907368302+906216835
3640+905872231+906105929+906514249+906876645+907080172+906784164+905771242
3631+904929284+905979902+908402534+909320164+908438612+907065614+905842483
3621+905186471+905906973+907905743+909603442+910113314+909925400+909868927
3611+910309598+911023419+911485187+911360567+910852102+910406368+910318388
3601+910470084+910299470+909481424+908526029+908203508+908448810+908409919
3591+907795399+907406982+908219051+909790372+910513968+910006065+908990259
3581+908021080+907396996+907401004+908107863+909113613+909722998+909434375
3571+908306256+906983964+906501801+907525202+909174094+909964080+909654429
3561+908862896+908148301+907720501+907568102+907672538+908050969+908552402
3551+908712326+908154912+907156617+906565447+907073631+908372364+909354132
3541+909318546+908607327+908083319+908113068+908254566+908055681+907688572
3531+907560718+907792305+908215886+908630535+908951298+909139493+909129507
3521+908979429+908981820+909390350+910093623+910670517+910768694+910425004
3512+910059444+910104664+910515023+910747103+910384988+909630448+909101657
3502+909168960+909635441+910180266+910686340+911059215+911185734+911136013
3492+911094660+911079751+910957030+910668477+910311356+910078784+910160574
3482+910537528+910894298+911002321+911117235+911662482+912562389+913184855
3472+913079294+912519771+912165462+912336780+912732230+912848902+912585316
3462+912270461+912147529+912085852+911828103+911330889+910836208+910669321
3452+910904495+911275331+911496369+911560015+911698208+912170737+913033722
3442+913953391+914392092+914212055+913948468+914239342+915049300+915651090
3432+915467255+914732617+914126396+914002902+914284984+914789441+915325827
3422+915710868+915916787+916120736+916562179+917341053+918257698+918920181
3412+919155777+919175258+919243405+919375128+919381105+919086012+918538515
3403+918016687+917791359+917995589+918664893+919601230+920326373+920541504
3393+920487845+920581802+920963186+921604360+922479301+923404666+924072071
3383+924416815+924618936+924652974+924279185+923624087+923289822+923609389
3373+924151822+924276231+923934582+923650460+923862496+924500927+925166504
3363+925597680+925912675+926384641+927021384+927510791+927655384+927642936
3353+927767485+928142118+928770422+929538887+930135754+930346033+930340196
3343+930313542+930122603+929674478+929345347+929565612+930204534+930726784
3333+930864907+930820109+930816663+930790782+930641970+930516365+930659763
3323+931140449+931814324+932423991+932694259+932452825+931742098+930751680
3313+929572785+928070596+926122391+923860527+921523765+919272450+917360815
3303+916173551+915814671+915917912+916079946+916277776+916783640+917816465
3293+919324140+921067411+922853230+924551562+925991793+927138760+928282421
3284+929719066+931318447+932637364+933370384+933570676+933543811+933562518
3274+933631580+933625250+933659992+934083502+935023637+936140785+936933583
3264+937207367+937155184+936994768+936697213+936231085+935912995+936164485
3254+936934427+937682006+937970699+937845094+937683060+937860004+938490065
3244+939371969+940234954+940967763+941529959+941830116+941835601+941678209
3234+941620330+942000167+943082644+944765152+946545134+947942606+948886678
3224+949588333+950181262+950626082+950911891+951189825+951623884+952153096
3214+952520626+952602136+952614513+952845116+953247529+953514631+953510271
3204+953350980+953059474+952475476+951623040+950905492+950748451+951195521
3194+951992047+952909958+953787501+954352861+954320511+953777866+953226360
3184+953003493+952846593+952306832+951412902+950586206+950022604+949491493
3174+948725067+947735352+946671019+945516739+944083822+942269239+940116663
3165+937642200+934912520+932243039+929898048+927609249+924796934+921256521
3155+917381140+913784817+910853930+908560982+906675228+905176203+904301262
3145+904164898+904589252+905354834+906426410+907900398+909784535+911807989
3135+913495631+914497935+914793661+914559471+913933770+912872392+911154087
3125+908608312+905457934+902372819+900111799+899058298+899073699+899780417
3115+900896862+902173793+903189178+903587300+903437995+903035372+902484710
3105+901760902+900898972+899843009+898369513+896374119+894038130+891616693
3095+889164313+886438852+883103654+879156047+875040779+871162514+867458450
3085+863661484+859769576+856034356+852709778+850075109+848537686+848386975
3075+849451940+851191905+853159450+855334179+858130248+862154231+867763811
3065+874679368+882052895+888919363+894545470+898528523+900796294+901461449
3055+900626243+898456367+895420974+892193517+889255457+886737954+884619135
3046+882838731+881170992+879216036+876658165+873451032+869825664+866340036
3036+863837161+863025655+864010658+866237921+868741641+870452772+870562623
3026+868831589+865581768+861344202+856442184+850800253+844143852+836478889
3016+828371427+820709206+814286924+809612767+806815923+805556996+805183418
3006+805094665+804916385+804395401+803348581+801866505+800504689+800041162
2996+800872289+802714229+804963645+807157643+808914628+809701519+808969624
2986+806456200+802306683+797125325+791951563+787871037+785433285+784440335
2976+784273800+784377181+784514881+784764965+785378500+786581798+788350176
2966+790315400+791963237+792954007+793189603+792575646+790892153+788013731
2956+784114227+779473053+774209061+768388358+762279525+756332937+750999039
2946+746656052+743594568+741984286+741906222+743382813+746332688+750521166
2936+755599213+761184038+766981392+772933044+779218679+785996465+793120401
2927+800200805+806935550+813212887+818831821+823332130+826223704+827282902
2917+826602275+824509478+821504466+818152179+814876899+811785456+808780655
2907+805939435+803693395+802528776+802566472+803411031+804279783+804317197
2897+802936252+799947275+795496054+789994989+783982997+777842376+771672077
2887+765480890+759394140+753595239+748151209+743027871+738278252+734066285
2877+730431212+727221970+724393831+722197512+720927754+720604952+721043302
2867+722202857+724338976+727737398+732429559+738296115+745297893+753373427
2857+762185497+771126126+779475866+786426094+791055594+792488722+790237759
2847+784447227+775797260+765196628+753564365+741766201+730573343+720575907
2837+712058859+704950606+698988616+693937785+689609497+685834191+682586480
2827+679978184+677973437+676265259+674531623+672684267+670865535+669344146
2817+668377288+668034935+668168205+668583768+669160311+669761679+670165076
2808+670204178+669956978+669709989+669718217+669997486+670336463+670552227
2798+670742884+671191572+672054909+673346046+675163583+677635163+680660780
2788+683974528+687404879+690874261+694277044+697546908+700723166+703830715
2778+706815051+709630108+712254087+714603649+716565357+718129645+719372186
2768+720251136+720501149+719804206+718076126+715594560+712874655+710400824
2758+708403039+706838540+705556967+704428215+703314724+702063040+700663318
2748+699371196+698540491+698310802+698557862+699143898+700043243+701145974
2738+702146308+702816315+703245593+703652858+704124894+704680619+705391557
2728+706282674+707298058+708474773+709987652+711925800+714130769+716302403
2718+718252718+720099721+722205600+724862773+728041282+731427748+734625667
2708+737356755+739612500+741575755+743293638+744507274+744921642+744556714
2698+743698793+742529532+740917351+738655628+735829036+732737874+729422649
2689+725551628+720953142+716053726+711627190+708271457+706201305+705322496
2679+705367857+706067543+707254385+708819306+710671233+712771836+715077514
2669+717445924+719766792+722138437+724708545+727376197+729854247+732006401
2659+733949682+735822426+737599946+739202914+740687663+742228673+743939663
2649+745794192+747685080+749488903+751126964+752618745+754041254+755466083
2639+756987964+758695791+760530698+762310750+763934606+765409438+766702052
2629+767741418+768522613+769098733+769524143+769836747+770022552+770055043
2619+770035140+770165316+770520398+771018877+771679320+772658486+773914179
2609+775108897+776055291+776998941+778203998+779531565+780703849+781710654
2599+782630182+783336127+783699226+783851696+784014503+784319020+784924256
2589+785970655+787303918+788593157+789755173+790902632+791958666+792726358
2580+793203598+793451150+793380893+792998313+792623469+792612850+793052465
2570+793832816+794803542+795778348+796584860+797230253+797910950+798751290
2560+799682071+800658283+801701095+802598119+803000953+803020152+803252865
2550+804076327+805322244+806676324+808010080+809279767+810325322+810856363
2540+810701221+810083185+809531750+809490749+810045068+810921978+811714073
2530+812201441+812442523+812518546+812374727+812018028+811695929+811766256
2520+812438584+813631123+815056023+816475929+817917497+819590862+821560939
2510+823562944+825238560+826486306+827453023+828293785+829050647+829616007
2500+829774244+829465085+828927293+828407082+827949745+827651909+827780608
2490+828473964+829614109+830997586+832337671+833228576+833480347+833397994
2480+833480207+833922354+834520276+834929018+834956938+834698063+834350225
2470+833896825+833192709+832390768+831922810+831951223+832244768+832724892
2461+833671778+835176710+836800284+838014554+838717615+839139227+839506194
2451+839987373+840704570+841539143+842128415+842334263+842564655+843329393
2441+844571723+845716088+846343617+846554529+846674226+846869384+847155264
2431+847554441+848047787+848463420+848628830+848643247+848819417+849267190
2421+849680855+849722418+849509397+849476132+849846968+850518663+851338045
2411+852185699+852899521+853375284+853671854+853898378+854088965+854172654
2401+853986428+853380277+852379591+851199219+850164003+849637322+849835575
2391+850637727+851712960+852824200+853866801+854714314+855250208+855559366
2381+855950667+856685446+857697876+858675706+859380103+859784626+860074163
2371+860678273+861953869+863611551+864908315+865524100+865726291+865820881
2361+866073145+866821637+868037103+869061840+869276971+868776664+867990124
2351+866927550+865317057+863253867+861371208+860496126+861006983+862453121
2342+864117767+865668763+867094507+868436842+869638031+870535969+870997456
2332+871029737+870765517+870385961+870054087+869840081+869644783+869321418
2322+869026185+869235689+870147763+871364916+872430163+873366147+874427315
2312+875511057+876167492+876225019+876071425+876153989+876532982+877075205
2302+877716167+878352980+878808490+879026434+879113358+879254012+879663106
2292+880468142+881657023+883185937+884875830+886223721+886756590+886534638
2282+885926659+885181261+884557177+884372005+884569133+884692908+884504010
2272+884217426+884090556+884156734+884362300+884656479+884913806+885029776
2262+885165437+885727422+887005900+888881176+890830435+892148016+892349995
2252+891585609+890573670+890058102+890405166+891563174+893087587+894360228
2242+895178275+895915374+896761270+897256514+897014940+896382066+895993859
2232+896179734+896918381+897862665+898463822+898506862+898370286+898593716
2223+899447981+900824706+902244191+903159570+903453045+903411623+903275540
2213+903076584+902806105+902505175+902223655+901989677+901872934+902010283
2203+902346306+902556162+902626419+903048805+903893997+904458092+904475744
2193+904725124+905765967+907151062+908418991+909722154+910901893+911137911
2183+910264236+909272412+908698049+907780279+906243489+905443657+906436748
2173+908177980+908951157+908527787+908028394+908663097+911052956+914722982
2163+918206430+920667882+922931856+925532557+926791766+925091675+921673913
2153+919259861+919036361+919792238+919738016+918655680+917818575+918194123
2143+919573239+921182115+922201227+921959582+920607190+919405228+919506921
2133+920708039+922036731+923033690+923806516+924334181+924380386+923944006
2123+923450027+923408323+923860035+924236074+924003362+923330752+922815957
2113+922778824+923208805+924090286+925270096+926230836+926496321+926199048
2104+925944745+926122954+926584441+926992972+927258105+927587307+928259706
2094+929253007+930082165+930410523+930776435+931992393+933775680+934873277
2084+934654559+933750222+932976271+932348600+931453897+930324372+929509842
2074+929443383+930183999+931646946+933549930+935311697+936528077+937269818
2064+937652398+937687843+937641005+937820409+938055232+937952062+937449644
2054+936799821+936370544+936585745+937649022+939222734+940617604+941369543
2044+941569905+941809932+942758716+944535815+946678545+948971774+951889651
2034+955447997+957922460+957204279+953756768+950754358+950801478+953426230
2024+956092827+957136835+957096959+957070938+956792935+955506579+954113679
2014+954517990+956880351+959311352+960406066+960751724+961432702+962116353
2004+961664431+959976718+958222687+957630321+958490563+960007099+960919243
1994+960532584+959265780+958197158+958090964+958756822+959153046+958291326
1985+956487152+955318525+955811870+957235222+958403006+959654830+962321920
1975+966245053+969385656+970275155+969676318+969240219+969231991+968544753
1965+966688748+964232429+961490793+958536768+956358734+956169695+957466318
1955+958509200+958868853+959890005+962325507+965042106+966513141+966484799
1945+965646147+964349594+962328109+959562913+956692296+954384509+952928313
1935+952300291+952074189+951493919+950392103+949787429+950690712+952757629
1925+954983908+957075298+959384493+962141812+965334808+968732527+971784377
1915+974066917+975612357+976555938+976955818+976904057+976462262+975628462
1905+974598169+973882589+973958472+974789951+975865043+976846037+977954324
1895+979463335+981069468+982218474+982734535+982687416+982149132+981435662
1885+981095208+981408867+982181060+983095455+984042200+985064195+986210810
1875+987368536+988167313+988300864+987848520+986979838+985533277+983398917
1866+981139795+979641685+979472056+980501857+981961569+983152560+984054788
1856+985074463+986419893+987858295+988906522+989142400+988459171+987147779
1846+985667602+984255150+982868509+981667742+981102592+981372860+982140763
1836+982926388+983717991+984944850+987000162+989617109+991715673+992828109
1826+993779003+995258969+996918832+998151035+998825403+999013809+998724835
1816+997845252+996133980+993610851+991114516+990121214+991447515+994433538
1806+997792296+1000743718+1003277397+1005623513+1007657095+1009019896
1798+1009690255+1010029372+1010414625+1010916128+1011162555+1010869431
1789+1010391558+1010161306+1010159548+1010023043+1009607339+1009345089
1781+1009678369+1010394652+1011010929+1011539017+1012488153+1014442405
1772+1017352686+1020112397+1021938935+1023075986+1023821665+1024293350
1764+1024752235+1025386094+1026017421+1026631237+1027601401+1028902174
1755+1029984931+1030662956+1031339082+1032521986+1034407740+1036745909
1747+1039344218+1042274894+1045396719+1048327606+1050982669+1053479286
1738+1055653311+1057505800+1059583829+1062246910+1064922649+1067281987
1730+1069555455+1071571173+1072996565+1073734228+1073741823+1073003809
1721+1071539667+1069039323+1064567145+1057149663+1047739670+1038423072
1713+1029438419+1019276909+1005946385+986336625+955104659+910944371+863249859
1703+818965513+772916095+723617489+686210371+668911986+665679254+670251227
1693+678475292+687237922+692763672+691170972+681557312+664097033+639742717
1683+617657791+604732351+597254107+591741367+587424366+584340799+582158756
1673+580445198+579814293+581712003+586052809+590449175+594133196+598714451
1663+605594493+613554971+619882100+623777454+625883262+626979312+628218759
1653+629696404+627617672+620494087+608475377+589836168+567058307+547606783
1643+531906935+516207579+499600827+483898412+471755152+466501181+468876061
1633+473607746+477654796+482308524+489351373+498875577+509769826+522367857
1623+537517816+552507465+563578692+570906542+575881173+577179695+573602044
1613+568230486+564744225+565082886+569302624+575580172+581888313+587670476
1604+593369231+599185573+604769062+609783322+614389474+619123973+624282826
1594+629516999+634295945+638414025+641787059+644312298+646043614+647186713
1584+648040555+648895594+649773559+650770799+653010650+658240041+665292103
1574+670663485+674662783+680403805+689730460+700335523+709503590+717693546
1564+725145418+731075690+737285583+750616319+772423734+788753362+799642336
1554+810906998+819928363+817682252+795650071+755048269+707356078+664979780
1544+636486637+623189519+616007211+605559962+595666962+590960313+590997094
1534+596207427+606068428+616842698+626731690+637567918+650936841+665302230
1524+678284705+690687332+703663055+714627631+722454769+730062556+738860632
1514+747329717+754594659+760879310+765725840+767132947+760042697+742747476
1504+724474567+709321653+695961592+682994097+668420680+650711231+633967587
1494+625151226+626444544+637805554+659288550+686411929+710365520+726630096
1485+734204689+732085378+721436782+707699978+696737020+689603378+683395454
1475+675864886+669193716+668478911+674112261+682459891+691901039+702559691
1465+713335439+721335160+725502610+727675721+731100656+739300458+750495848
1455+758701417+764295736+770062919+776993878+784663131+792337378+799996645
1445+808518616+818340867+827963036+834078902+831984206+813850896+773415066
1435+721042809+673854161+637254189+611971695+598236297+591933712+587627366
1425+583997954+582917306+586298920+595585664+611781530+631293465+647222720
1415+658449265+667789282+676856007+685614559+693495708+700318433+706683187
1405+713206810+719371694+724393268+728752360+733469769+738708866+744050851
1395+749550932+755169584+760206841+764381043+768216267+772127023+775429871
1385+776588441+774679972+769460989+760005072+744243407+720780911+691472676
1375+662611370+643652067+640425805+649550692+663829719+678135330+690207067
1366+700626959+711531897+723613269+734316790+740448269+741267722+738074796
1356+733335937+729922183+729710920+733071858+739498500+747940720+756960185
1346+765253944+771874830+775852608+775890584+771043070+762440856+753233054
1336+745489535+738991018+733394027+730134853+731405033+736811226+741717956
1326+740439126+731798162+720824936+714288583+715147068+721460905+729472863
1316+736815165+742984761+748158804+752491242+756147625+759394703+762466806
1306+765420198+768173086+770651558+772882619+775026966+777322306+779928984
1296+782837155+785944282+789181233+792547586+796055929+799664911+803311167
1286+806992656+810710715+814327925+817591038+820182807+821550952+820849860
1276+817555733+812430919+807662663+805131446+803353644+796558980+779230424
1266+752866368+726934964+711492303+709053777+714096379+719015557+719621004
1256+716386022+712616624+711935786+716252893+724927263+735599840+745986467
1247+754973371+762269257+767664761+770924006+772100088+771824476+771339429
1237+771964145+774295633+778012849+782367932+786727305+790809027+794601422
1227+798123761+801349459+804299967+807070649+809813340+812699709+815756904
1217+818790820+821644277+824485848+827696567+831456752+835558165+839180861
1207+839444658+830372236+807250757+774942784+748437300+740661642+751145882
1197+769188190+785301280+796626564+804316846+809973334+814452404+817954559
1187+820448362+821928469+822325747+821650676+820514962+820157559+821586538
1177+824770110+828852676+832978633+836665045+839655218+841850552+843308435
1167+844082879+844201028+843845102+843358930+843067424+843223128+844046449
1157+845674665+848077043+851059901+854335532+857645131+860805988+862854127
1147+860273962+847779277+824519816+799529039+786432142+790937655+806649529
1137+823550707+836690363+846396855+853996907+858019553+853156567+835451408
1128+810541437+792410237+790049071+798421667+805776909+806850595+805684640
1118+808075625+815150894+823958464+831448453+836653511+840114665+842629356
1108+844689662+846443482+847890746+849150728+850439123+851829281+853234489
1098+854596165+855989558+857564325+859333336+861060150+862501296+863668727
1088+864731161+865846550+867161951+868754089+870523943+872266019+873834667
1078+875206329+876408151+877437812+878318660+879141278+879898632+880450419
1068+880803743+881209250+881922719+883050557+884536641+886180821+887811639
1058+889411302+890993032+892548318+894097978+895597425+896977597+898336107
1048+899787802+901242098+902614464+904076637+905990100+908650649+911916012
1038+915169912+917966473+920515343+923414090+926887129+929562095+927991970
1028+918455951+898655463+867415902+827011087+788389348+768016679+773778447
1018+797407619+824230419+846145154+862758060+875456061+884836517+891646231
1009+897047572+901876450+906376407+910574098+914607786+918599489+922427610
999+925895234+929022334+931971787+934820883+937554713+940094721+942176407
989+943293836+942618062+938737054+930343079+918677622+908854738+906401866
979+911608541+918463124+919290454+909645216+889986719+864471513+837083140
969+807760559+774518430+740728452+717101180+713672728+730598028+756632109
959+775199690+774285155+753745528+722390279+688754107+659300435+643840965
949+652894399+686146725+729976124+769401633+798531588+819189013+834587860
939+845781070+851010110+847710357+836961967+825337721+820100032+822062442
929+823413780+813200158+787938059+758597403+743353556+750387474+771154117
919+792075550+807233245+817331038+822723307+822015886+814283478+799454070
909+777552135+748797024+714133652+675496723+635726892+598076091+565273895
899+538535522+517510039+501378488+489589431+481489353+476235839+473569629
890+474074860+478311407+485913286+495680084+506488463+517881824+529719302
880+541773246+553860350+565789885+577152373+587711547+597827906+608115513
870+618808203+629163745+637248211+641369104+642443353+643844622+648119040
860+654847245+662357278+670329642+679636957+690389496+701392259+711375630
850+719953300+727511718+734723704+742054824+749507680+756913418+764246507
840+771437535+778258783+784632539+790778927+796989031+803420385+810036558
830+816606105+822772817+828237383+833022798+837513051+842081718+846800955
820+851595162+856447951+861418538+866591245+871954399+877431834+883132980
810+889175706+895161537+900358437+904431367+907658402+910800411+915099092
800+921944181+932027416+944622739+957773015+969526521+978960003+985828370
790+989274052+985662961+966454206+921345063+848359406+760195448+678004592
781+620883911+601296515+622997877+677706685+747177599+813151702+864478756
771+893879823+892379603+853228863+783209960+705493040+645740926+614614451
761+603973661+596319458+575458506+533496365+475917855+420996447+388808875
751+387607405+410858357+445694628+482015154+515077843+543643493+568048268
741+589293488+608433110+626254801+643376243+660144784+676346205+690913223
731+699786689+693089147+660476587+606043884+553482693+527872368+534622164
721+561051273+592637266+621765322+645992978+665370377+681119243+694226619
711+705206948+714653300+723104874+730968371+738679328+746294992+753319134
701+759354686+764567551+769481102+774509147+779744164+785299733+791502594
691+798550436+805787388+809254027+799891576+770856492+730707949+702300184
681+701971826+724296639+751752033+772905194+786934982+796738877+803898399
671+809148115+814077912+820776931+828474737+834157106+838106261+842057947
662+846359793+850479983+854513671+858931345+863350145+866868546+869471848
652+872320663+876405619+881331830+885990586+890129343+894401862+899067299
642+903634841+907911088+912614642+918546321+925548310+932622525+938820463
632+943824033+948066171+952623164+958587756+966180845+974614133+982882574
622+990376150+996537025+1000032499+997673654+982506675+943075119+869419103
612+765381659+653902962+563728806+509241704+486858660+488048315+507823098
602+541315451+580381165+617031035+647703407+672881535+694204255+713002580
592+730316016+746548030+761102951+773315342+783410955+792230199+800674177
582+809239188+817426261+824406167+830680832+837644352+845504192+853283437
572+860476856+867245781+873701397+879956652+886442650+893577276+901072961
562+908301685+914487527+914455246+895502764+849864971+794130862+762559779
552+773414011+812225423+852196037+879781889+896641362+908074669+917002217
543+924239942+929612872+933235497+934370156+925960076+895294315+840814210
533+786700933+766741435+790454578+836122471+876814080+901540145+912534680
523+913220652+902704834+875333129+823341624+745477368+653010580+563061752
513+490193331+444657371+430786383+445116010+477908607+517671335+556767466
503+592603086+623448534+646861308+661614763+666104523+657481000+638850335
493+625654488+636109332+672043235+717085637+754718575+777722960+781305850
483+760384839+720953353+684009903+667474990+665119168+649297936+597563687
473+516394826+441760488+406637774+411968050+439049338+471065382+500736963
463+527748803+553099128+577423027+601759972+625441818+645033293+659197476
453+670135398+680014332+689632072+699213382+708618873+717154347+724498478
443+731391037+738277338+744229130+748491804+751918849+755995718+761365060
433+767649078+774118479+780325770+786441144+792715246+798846654+804401520
424+808991848+812195534+815074378+821130396+831111867+840440843+848511595
414+858350935+870716007+883008079+891612755+890435759+864843403+796244758
404+684638769+561617899+472353742+451428898+501844792+577948371+634668749
394+671142484+698047497+718210732+731601456+740459169+748780567+759793809
384+774294438+790182833+804148482+814597208+822865227+831367507+839401829
374+842960034
##END=
