##TITLE=X7369
##JCAMP-DX=5.0
##DATA TYPE=LINK
##BLOCKS=1


$$ === CHEMSPECTRA SPECTRUM ORIG ===
##TITLE=X7369
##JCAMP-DX=5.00
##DATA TYPE=INFRARED SPECTRUM
##DATA CLASS=XYDATA
##ORIGIN=ComPlat
##OWNER=
##XUNITS=1/CM
##YUNITS=TRANSMITTANCE
##XFACTOR=1
##YFACTOR=8.6199242e-010
##FIRSTX=3997.453
##LASTX=373.96442
##MAXX=3997.453
##MAXY=0.9255573124629817
##MINX=373.96442
##MINY=0.4635348903704848
##NPOINTS=2559
##XYDATA= (X++(Y..Y))
2559A020686101A020293066A019404659A018573229A017867440A017264404A017253963
2552A018228598A019651377A020484052A020281242A019608505A019397467A019830746
2545A020078847A019428999A018258262A017357339A016864248A016534690A016492511
2538A017003511A017673205A017437619A015842593A014136170A014089496A015755190
2531A017725204A019126271A019744519A018833016A015508887A010463054A006403471
2524A005682124A007149642A007404797A005600599A004856295A007801012A012924567
2517A017019069A018015900A014951489A008160164A000776730I97783748A000683380
2510A005279824A006641408A004305051A002028646A002075735A002224679A000021224
2503I97072220I97688532A003401362A011045483A016707974A018845117A017516655
2496A012290692A002214514I88333355I75585041I69534978I71040596I77907222
2489I88224379I98924959A005521149A004877800I98265845I92623614I93406502
2482I96733950I96063288I91021466I86697740I84803443I83804883I86319572I94329967
2474A001838421A002138590I95486183I87089115I80429171I77352451I79605485
2467I83808134I84084724I80675613I80491611I86793647I94487071I97911394I94888749
2459I84171227I65994486I52522612I59501533I78475961I95342909A004650858
2452A005777617A000366270I91206781I80702442I70418545I63378981I63986788
2445I71790086I81041403I88076127I93135513I96890016I98466511I97487520I95656839
2437I93573079I88037957I77543783I69862460I72145712I79258780I86193654I94740980
2429A005271457A013334336A015066688A009662256A000097770I92595678I89297549
2422I85299300I78238577I74254573I77743896I84658164I92277738A001382393
2415A010865423A017685928A020643921A020677457A018612988A014929084A011608344
2408A010827945A011228723A009590965A006538586A006632834A011109652A016069397
2401A017445363A013663685A006406514A000369174I98646502I99607722A001326867
2394A003376469A003615651I99119747I91383868I86727266I87509186I88450699
2387I83091351I68913687I52202735I45938246I50774355I56673953I59380525I62814806
2379I70343520I77906738I80290253I74567397I61394793I49111770I49875990I64426151
2371I81888184I93264750I95783172I91099187I84377080I81419156I83799006I89299485
2363I95638792A001214987A004216818A002610245I94789314I81873870I71837798
2356I74435532I87335418A001002496A009662464A011587806A008054230A004176368
2349A004939964A009256705A013015704A013977269A011379327A004210596I92233276
2342I79737765I76078270I84524018I97566762A008135202A013416483A012605797
2335A006295878I95621367I81146369I67359043I64534090I71527740I76305281
2328I75679635I78823703I90960962A005056685A014461233A018249549A018532224
2321A016970666A013204407A006895456A000757230I97311056I92654384I79749935
2314I57358375I39467351I44280157I65550697I86777536A000880797A008014678
2307A011014436A012449939A012964120A011915151A009004248A004370119I96812917
2300I84337804I71280469I70751421I83869813I97683484A004170214A001783725
2293I92352071I81900768I77662992I79047741I80404831I80437399I81607514I83839112
2285I85022503I86737638I92477367A000487347A005329679A004552945A000665748
2278I97627544I96312496I95297964I94745613I96376388I99211921I98517611I90658925
2270I79255945I75236261I82901679I94469576A002889671A007051799A008715488
2263A009659283A010683842A011710475A012152880A010797797A005322488I93205767
2256I75914529I63485606I66074490I79343693I92522105A000960869A005821111
2249A009064476A010551493A009200351A005598732A002611214A002351080A002748609
2242I99866610I93618854I89155589I91148974I98332779A005862323A010013664
2235A010115172A008440558A008082719A009758993A011275952A010261973A006547712
2228A001988886I98378832I96192871I95754406I97986143A002802752A008262987
2221A012371525A014588948A015263413A014529620A012190497A008617091A005628604
2214A005336940A007156834A007748875A005236744A002067852A002073106A005412587
2207A009034257A010927103A011633168A012338611A012961976A012656482A011435752
2200A010400337A010271307A010256441A008936484A006270155A004303530A005287569
2193A008953840A012639956A014181462A013773491A012987561A012707582A012600127
2186A012152604A011489134A011032483A010802291A010529435A010304706A010516505
2179A011255623A012279905A013334889A014127458A014273912A013442551A011444119
2172A008552784A005987618A005279271A006601372A008659064A010418730A011777894
2165A012664987A012714705A012080897A011589189A011688555A011972060A012081313
2158A012345388A013077383A013851628A013870436A012724800A010799041A009256014
2151A009251451A010707836A012216911A012397041A011062632A009047051A007210077
2144A005905678A005274984A005443980A006177566A006818702A006886259A006414673
2137A005690145A005078052A004927379A005243314A005735575A006380653A007427061
2130A008740450A009751664A010231963A010681007A011678805A013018331A013815948
2123A013517300A012509682A011697959A011649279A012112291A012255703A011492384
2116A010086338A008826885A008260221A008382612A008892644A009548785A010270823
2109A010868189A010898476A010137369A009040827A008406053A008723440A009985936
2102A011720363A013072750A013383638A012845117A012171551A011615466A010816951
2095A009607699A008410617A007778263A007919462A008676904A009642618A010294748
2088A010245930A009488004A008495737A008074767A008838502A010613449A012449316
2081A013398988A013311102A012768847A012261304A011663040A010671948A009457649
2074A008627532A008764099A009993611A011657370A012603861A012246991A011157986
2067A010365694A010363412A010865354A011198023A010979655A010579567A010695804
2060A011490102A012445167A012941785A012681859A011852919A011146992A011261016
2053A012154056A013035826A013134776A012292006A010977442A010038557A010220761
2046A011545143A013249007A014511710A015052029A015002865A014588533A014043513
2039A013589490A013377138A013415930A013479476A013281991A012918413A012816351
2032A013084851A013292985A012996135A012193470A011296904A010842466A011117051
2025A011988379A013110989A014144468A014743286A014587358A013610303A012207646
2018A011148375A011060627A011841994A012749417A013144249A012968683A012591000
2011A012452705A012729640A013132563A013218306A012949668A012704125A012762347
2004A013089415A013581884A014170191A014624698A014611698A014097724A013472838
1997A013127170A013046751A012983688A012903339A012994752A013189264A013078213
1990A012643690A012590654A013369186A014322039A014526646A014029476A013531129
1983A013386404A013580155A014105123A014743699A014959095A014526785A013976923
1976A013996907A014526854A014864225A014712584A014593719A014952595A015410352
1969A015329242A014704148A014110724A014006934A014302124A014508115A014271423
1962A013738503A013342564A013349686A013731725A014336698A014998163A015498861
1955A015608943A015350815A015103821A015128022A015151049A014863187A014561566
1948A014751860A015373289A015921421A016003361A015471271A014460541A013505337
1941A013172945A013451264A013854255A014149377A014618267A015540626A016688267
1934A017465693A017452901A016795169A016136677A016028185A016270200A016024313
1927A014737131A012775969A011047834A010225255A010358433A010910576A011157917
1920A010793302A010059094A009305731A008760434A008660101A009083353A009615788
1913A009719994A009511169A009741776A010924752A012705370A014131883A014552577
1906A014297215A014230142A014594480A014868304A014832209A014971818A015607353
1899A016348753A016556265A015851790A014345895A012747964A011904987A011963901
1892A012329069A012439428A012210896A011899939A011889083A012354100A012892621
1885A012837718A012094313A011238405A010689650A010308716A009889060A009506743
1878A009349571A009654719A010704448A012426498A014202620A015437250A016090694
1871A016450607A016699400A016849173A016773941A016223043A015020152A013331016
1864A011707709A010810589A010861551A011295106A011209709A010172012A008258838
1857A005426485A001299485I95552426I88280942I80367076I73778423I70922907
1850I73024646I79179882I87070376I94336398I99605855A002905575A005115460
1843A006885914A008301848A009405235A010392108A011272564A011789165A011683784
1836A010853806A009427846A007767476A006187869A004681836A003058045A001253917
1829I99450549I97952814I96833177I95660712I93792760I90858485I86562556I80174984
1821I71044607I60149584I50730169I46451874I48460609I54543863I61293975I66622000
1813I70149008I72123861I72752758I72313187I71261799I69978352I68535865I66874388
1805I65117073I63523914I62235073I61260231I60622415I60392637I60707743I61729052
1797I63424549I65534378I67900054I70573228I73473137I76249479I78588809I80413474
1789I81788957I82907764I84103117I85597534I87249399I88733996I89926929I90947063
1781I91900262I92784866I93638423I94599781I95775220I97130995I98542919I99873525
1773A000973662A001743343A002250125A002634516A002817411A002481424A001488465
1766A000221959I99367710I99302988I99735783A000063542I99990799I99534010
1759I98629630I97266455I95845405I94788277I93859488I92397985I90125936I87295659
1751I84110723I80523004I76885498I74533514I75085312I78881995I84451621I89812075
1743I94066654I97511376A000592244A003271503A005307137A006684694A007636303
1736A008454871A009366374A010429102A011525920A012559123A013598410A014708573
1729A015699112A016229128A016196283A015888991A015694410A015785754A016156454
1722A016749947A017442805A018088297A018668860A019268369A019887447A020405846
1715A020709749A020802061A020787678A020762993A020771981A020875841A021114331
1708A021384076A021555562A021682724A021921352A022330567A022871577A023461060
1701A023962241A024199901A023975310A023190347A022160533A021565656A021774483
1694A022472389A023152593A023618302A023838191A023732879A023300638A022704379
1687A022162468A021896044A022060961A022554536A023001575A023109652A022986017
1680A023000192A023367780A023943157A024413843A024635877A024712008A024777836
1673A024839862A024871461A024925812A025044124A025148467A025123297A024963290
1666A024788900A024705508A024669344A024549719A024342622A024215667A024269118
1659A024383626A024439636A024562511A024926919A025408462A025731173A025915244
1652A026212370A026604092A026742594A026446228A025922505A025471455A025226604
1645A025208141A025376308A025559757A025502295A025120532A024684971A024632627
1638A025169142A026071932A026883171A027269291A027200213A026845624A026423893
1631A026154287A026146888A026263817A026239269A025976578A025602075A025298172
1624A025218652A025452232A025926169A026400728A026652910A026688244A026750062
1617A027015520A027355103A027609981A027922597A028385540A028616147A028254298
1610A027651193A027481781A027887608A028471352A028909609A029143051A029120854
1603A028741442A028072785A027418926A027095316A027242323A027863407A028867360
1596A029982018A030774517A030941509A030607734A030237379A030142025A030173418
1589A030078617A030004214A030298713A030918828A031416137A031506859A031372160
1582A031344155A031467030A031483625A031266917A031062379A031109814A031246311
1575A031188089A031009342A030988875A031110297A030992816A030329415A029267724
1568A028315493A027880831A028026111A028686400A029810463A031127723A032169915
1561A032760296A033128852A033439740A033650501A033865204A034312382A034906566
1554A035243730A035093679A034666279A034409810A034618843A035148029A035521080
1547A035462927A035224230A035178800A035215448A034868950A034050174A033248823
1540A032932750A033181612A033953298A035078536A035895168A035666083A034619881
1533A033897220A034216543A035083307A035451518A034756862A033232920A031632223
1526A030779012A031008928A031837868A032442771A032564954A032685409A033326269
1519A034474394A035658546A036389712A036610984A036769332A037242093A037733248
1512A037501742A036213939A034451852A033344454A033580732A034710395A035620030
1505A035802027A035900977A036817735A038483222A039891481A040396187A040460427
1498A040744277A041008144A040597200A039545466A038397410A037299140A036085048
1491A035030479A034739229A035260048A035861839A035896413A035627429A035930434
1484A037172462A038616677A039089923A038161271A036541698A035418327A035503033
1477A036573782A037755859A038252061A037850661A036853484A035795458A035239028
1470A035484017A036376019A037576560A038845832A039844875A040117316A039712665
1463A039313684A039218191A038761195A037405005A035875323A035422061A036263448
1456A037450642A038087007A038139213A038157537A038569034A039214388A039560886
1449A039394310A038968776A038434819A037736913A037107670A036896217A036912398
1442A036687599A036276932A036173626A036597569A037323203A038036114A038541375
1435A038711062A038481493A037997461A037554778A037211736A036713875A036049298
1428A035704114A036042384A036757576A037189956A036958450A036186833A035293792
1421A034619258A034209075A033934905A033752494A033847019A034652311A036672663
1414A040130109A044715835A049621713A053841649A056792796A058870472A061113271
1407A064057297A066994407A068565716A068165974A066487902A064541537A062699723
1400A060784614A058238325A054537688A050487855A048161871A049002912A052747735
1393A057679475A061673090A063707549A064130732A063658316A062904953A062098555
1386A060861644A058848483A056413591A054265730A052800494A051901092A051020983
1379A049500290A047138764A044471744A042356452A041274915A040996251A040807200
1372A040062759A038588050A036627025A034641730A033188112A032648623A032972856
1365A033790732A034670842A035333829A035971507A037192306A039151326A040938513
1358A041407817A040494447A039166192A038092469A036823820A034577217A031703238
1351A029838398A030298852A032690941A035423928A037292224A038284354A039128991
1344A040464437A042299059A043911303A044358688A043437366A042085255A041470603
1337A041659790A041644993A040882019A040236389A040863695A042564033A043984461
1330A044341262A044155048A044115357A044000918A043229232A042022262A041308243
1323A041419364A041613254A041328505A041240480A042386462A044705532A047062702
1316A048525310A049212222A049833927A050433851A050046763A048226524A046217235
1309A045455506A045658315A045717298A045680857A046329323A047507873A048454434
1302A049227503A050438276A052024865A053413764A054536512A055743136A056918644
1295A057617657A057990155A058610683A059314330A059268969A058538909A058393423
1288A059499368A060803766A060702466A058477506A054408589A049576698A045846397
1281A044987239A047209709A050893405A053895791A055040667A054721482A054533885
1274A056020211A059127839A061896990A062148203A059597765A056218941A054513555
1267A055262423A056784360A056666809A054323123A051332354A049605049A050210643
1260A053444189A058347578A062159128A061985637A057600716A051687081A047408508
1253A046558201A048925329A052078318A053049771A051491186A049814358A049934329
1246A051622082A053778863A055449121A055826114A054748242A052989682A051465463
1239A050615087A050557971A051125534A051653544A051347082A050088044A048525725
1232A047260049A046280920A045445272A045122837A045886502A047676248A049607261
1225A050618682A050273844A049113202A048212487A048122387A048359079A048269810
1218A048056075A048251555A048588926A048372010A047768629A047754867A048809714
1211A050385102A051715846A052549005A052928279A052850350A052404486A051794605
1204A051095178A050457914A050403011A051101885A051717851A051375986A050226547
1197A048799826A047270628A046108189A046287696A048016661A050218871A051839136
1190A052925997A054039618A055246865A056287397A057330141A058756447A060351128
1183A061532928A062119921A061936127A060541007A058603424A058070850A059489273
1176A060995859A061331225A061374788A061381426A059731358A056155048A053179907
1169A052885546A054656276A056847422A058869296A061011901A063140332A064237219
1162A063733133A062928533A063635912A065716146A067734493A069185969A070380009
1155A071140562A071112073A070458975A069215079A067063762A064340733A062336215
1148A062190798A063576791A064464092A062679809A058322892A054348638A053584766
1141A055662234A058274835A060168440A061590805A062954186A064199395A064900828
1134A064417970A062760020A061470903A062365464A065190971A067283790A065867579
1127A061142798A057022850A057463596A061948781A066696589A069571743A071228518
1120A072115058A070977305A066954509A061646607A058160534A058166896A060170584
1113A061007683A058910923A054517635A049548831A045996654A045388778A046556818
1106A045927645A041558904A035229831A030591484A030058771A033339476A038473127
1099A043859166A048509959A050834838A049561486A046278430A044395820A044794594
1092A045729468A046787978A049366213A053144572A055424781A054361638A051309743
1085A049755030A051623811A055487636A058871786A060786135A061604979A061818991
1078A061477956A060527523A059546735A059661519A060783092A060746652A058089796
1071A055002013A055099373A058343913A061778470A063829525A064868536A065483119
1064A066104133A067020476A067811869A067784141A066509130A062933719A055653521
1057A046202783A040930284A044601810A053721954A061805369A065857207A066768433
1050A066940472A067887655A069558467A071140977A072058357A072183998A071102738
1043A067879634A062134857A054634079A047245735A043827427A047710061A055999397
1036A062853508A065945578A066830458A067627729A067875900A065063186A058190959
1029A050711133A047659098A048778874A050871486A054068176A059777203A066123148
1022A069796473A069902268A068194947A066253630A063378821A058384226A052702443
1015A049926170A051612194A055592602A058538840A058032265A053687588A048095627
1008A045225728A046258447A048559607A048825272A045279249A039337608A037333091
1001A044360762A055903351A064319089A066849543A065495704A062990903A060442402
994A059210539A060701706A063113986A062451000A056536950A047309213A041366535
987A043989785A052518995A062095374A069997830A073741823A071811431A066797890
980A063773170A063581285A064042084A065128461A066258816A063392236A053102047
973A038179595A028110955A028284584A033826205A038748610A041611180A043049033
966A043545997A043944978A043740509A039135491A026931782A012660908A008472365
959A014050358A021052444A024460588A020689696A005673688I77033889I37045597
952H88558314H28243415G53007447F80080731F36914764F20721311F14239354
945F09635304F05451049F01544075E99435214F02279528F10386385F20231195
938F29241118F38021609F49174483F65477050F88097004G12287851G31202397
931G43607947G52279324G59539607G64621604G66379818G70348264G85257578
924H06879180H27205579H43224849H53620073H58318993H59016208H56675218
917H51690995H49493833H58683470H76350732H91282380H98692921I01672764
910I06547319I14422670I20343703I20101687I11848860H96501152H86575508
903H94456321I04584152I06104153I04229771I11265324I27748435I42510119
896I50196420I50565183I44058678I32550593I24730214I32179271I48881994
889I61403713I65611685I63559248I59488326I55957031I53092041I52807707
882I57508771I63752723I65732486I63159092I63377045I70753910I78706637
875I81257005I78817757I75805760I76141955I79597879I83340420I85813066
868I87691943I89798730I91539381I91944585I91132309I89614106I85635426
861I73083283I43042831H90463466H22671783G60042240G23988512G22413539
854G45805940G76158938H00156104H15501392H29459166H49108819H69002563
847H81330668H86046737H88503964H92730399H96007093H95542490H92667405
840H87671981H76604020H59535575H56326577H74779701H94844654I08661989
833I16438942I19838995I21548599I21518727I15210813H99056084H75641970
826H51892699H36598994H43194286H68203287H90031432I01200625I06888286
819I15499712I27611108I35735182I36015990I31501348I27233840I23485214
812I18935583I17624130I22506361I29092732I35665274I45183016I56007025
805I61486206I56966101I42070271I21798775I15029093I40329413I74222696
798I94572053A001464748I99436028I93791239I92145459I98975990A007696461
791A007681940I93775266I71018953I56422532I61215424I77237321I92427995
784A001108361A002593235I98298551I89448428I76863924I62627140I51417288
777I50992308I66019517I87707916A003357938A008426521A005534978A001490609
770I99738687I94897876I78776407I44211425H92418336H49807417H37439137
763H44359975H59194678H77928609H97251264I10657379I10267526H94325909
756H68815796H40987166H13499502G85073714G59497012G52263973G71827952
749H03858746H34450373H60966998H84489120I04067136I17801840I26361474
742I32457105I36512539I36228135I33360518I36586250I48860282I62589731
735I71417519I74741994I75263504I74661022I71479061I64342344I55995961
728I50875172I48133541I42279512I29188709I06482044H69057466H13588703
721G53809904G15417261G09325502G28703336G62743419H01772842H38190356
714H68366060H91742972I09083236I21750441I30397615I34567488I34955682
707I34738490I35656562I34720857I28871737I19796470I11680071I06537155
700I05487357I12035490I27854231I47659950I64663189I76660008I85316656
693I92921017A000097355A006197273A011072451A015444165A019784763A023429944
686A024486725A020767764A012332388A003861470A001981141A007776672A015832290
679A020957850A021384560A017110966A008110655I94197481I76172034I57066572
672I41571994I33363353I33133230I39247877I48972992I58601094I64339302
665I64734687I61962286I59841669I60282209I62026386I61731057I55449350
658I42052846I27428282I21354294I26072299I31175455I24189965I03398548
651H76427210H49135994H20314890G85913442G45249924G03293902F68435596
644F48413099F47303281F63375795F87241165G03835188G00679848F76593689
637F42278538F12480794E97386719E99185937F13849708F35183379F58111247
630F79673037F98482754G14278470G27858906G40460490G52612477G63697862
623G72565480G78407616G81262648G81925635G81442570G80739478G80746393
616G82661087G87645726G95938589H06422944H17399354H27774733H37420121
609H46631886H55542029H63983282H71635009H78158180H83349638H87430517
602H91147681H95313197I00197433I05484799I10787861I16079375I21609518
595I27510637I33639044I39763648I45709160I51336109I56484696I60719844
588I62669873I59023171I44137229I12723230H66157834H16491377G80911448
581G69736239G80231313H02020598H26272088H49335623H70616466H88523740
574H96518854H83853101H45979064G96153361G60406025G56364420G80088592
567H14811093H46944294H71735896H89651674I02489604I11906529I18985438
560I24357925I28583254I32107081I34773064I35895121I35628972I36084585
553I39903672I47575590I57075008I66084862I73714185I80191995I85883320
546I90988136I95757725A000488592A005198507A009576790A013398227A016704448
539A019301145A020312704A018668445A013950302A006382451I96073038I82641477
532I65724050I45669469I22912188H95403780H57440889H04721293G43204333
525F91145442F67690739F75573142F94877610F98208101F75907539F44560130
518F28627986F37494152F62917623F92726569G20409643G44314635G64260516
511G80393187G93054929H02380511H07791581H08284672H04154420G98542201
504G96237168H00335680H10304956H23204012H36127339H47435173H56656618
497H64088179H70336073H75796792H80577997H84846820H88842510H92543631
490H95612468H97212403H95534884H88971193H79305268H72399573H73399170
483H81773558H92683862I02155207I09288604I14746073I19175594I22928369
476I26151473I28905204I31355585I33791169I36358271I38822618I40817249
469I42425344I44224079I46632349I49537513I52632971I55825443I59297479
462I63376146I68329875I74182867I80717862I87694985I95063415A002931228
455A011234947A018352856A017561116I94830388I36499401H46301499G53065531
448F93769729F85654091G16104380G58095184G91817880H13132675H27878523
441H42225183H57598130H71965258H83549682H92390055H99379625I05238840
434I10359768I14864038I18746879I22190703I25544704I28852860I31664190
427I33581513I34918965I36553059I38945633I41004155I39483255I30284421
420I12287878H90052384H70614876H57331152H48982141H44410314H44675011
413H50436590H60210109H71750555H83334218H93719278I02223248I08926478
406I14302215I18743353I22431267I25413323I27754866I29604908I31087639
399I32207621I32881049I33127076I33360241I34228389I35849207I37553624
392I38741371I39594168I40613816I41879148I43130234I44328422I45766138
385I47639897I49747721I51701208I53320021I54730907I56116485I57455804
378I58579451I59427753I60060175I60457704I60640255I60948100I61817975
371I63220633I64563755I65217752I65107738I64777490I64842419I65495863
364I66634032I68140549I69766622I71045506I71658705I71783102I71998773
357I72848666I74303460I75694432I76420135I76561957I76550824I76553037
350I76540729I76674391I77146876I77663270I77478162I75990798I72589639
343I65919738I55256636I43585916I36289054I33374555I24488268H95707407
336H42737428G77204864G21067789F94604339G05353737G44203584G92258972
329H33808338H64034658H85564156H99617769I01474657H84340868H48433939
322H06725465G79103862G77882786G99316307H29748134H57599721H78472040
315H92703984I02118213I08682111I13930892I18647514I23041563I27273392
308I31730918I36611143I41463778I45616710I48859452I51384651I53452300
301I55319491I57100731I58649359I59849829I60893335I62135086I63836668
294I66048005I68566982I70962805I72761678I73875714I74928900I76779633
287I79511721I82198379I83711327I83523108I82017489I80358501I79527418
280I79217983I78667015I78750476I81120646I83415238I76447241I48180838
273H91043476H06958768G09191079F19904127E60249829E37748221E43614593
266E62737826E84348537F04542036F23646806F43314714F64436103F86480542
259G08292507G28843429G47371578G63569525G77724024G90300299H01321516
252H10318578H16999473H21797828H25583586H29171928H33474148H39700192
245H48726779H60135499H72193721H83039027H91942739H99376237I05926997
238I11482517I15388522I16984931I15736680I10404023H98583184H79750855
231H59944099H49788816H54750082H69635678H84585304H92839375H89373078
224H66428614H18840734G55921532G01330734F75725889F81764404G07288762
217G39181261G71070234H00911402H27132560H48085021H63164506H73825534
210H83006459H92542248I00231246I03841577I05401960I07136456I09621204
203I12615776I15803131I18676833I20501152I21092364I21217659I21827817
196I23105732I24434333I25311677I26137436I27703420I30087005I32641453
189I34840690I36538193I37730296I38729685I40419858I42954599I42439934
182I30642190I03826088H73082475H58453001H68332178H91050045I10550892
175I22051647I29132631I34360322I37788380I39907821I41842569I44001216
168I46002207I47299207I47627796I47180827I46481192I46049849I46173555
161I46950220I48205870I49069177I48205662I45296488I42165764I41659466
154I44879044I49895490I53787942I55235546I54564123I52547297I50255817
147I48942153I48843272I49146000I49631968I50871369I52769053I54432259
140I55278141I55590203I56370533I58313026I60598351I61639851I61082522
133I60003890I59286139I58689741I57479798I55582044I53768512I52240766
126I49553071I43975631I35766299I27283626I20850140I16834328I14000386
119I11855568I11718378I14581156I19153674I23498767I27711995I33287982
112I40051508I45391565I47307989I47188986I48152142I50803673I52873535
105I52785165I51317508I50651755I52638365I57135651I62066284I65326106
98I66098415I64738213I62274072I59613137I56327178I50954138I42982880
91I32277944I14917213H83088122H33377273G75559499G30655025G17104599
84G37570677G78216215H21185526H56170372H81050828H98217670I11248314
77I21537328I28179916I31088054I31757402I30818793I27106816I19635978
70I08349235H91449095H64550775H25634202G80244036G39582801G13783581
63G07409424G18869244G43719690G76371014H08515487H33931421H53422588
56H70167906H83804283H91667256H94010804H94603120H96877245I02118627
49I10300716I19177046I24400658I23907913I21292200I22607801I29599653
42I38725398I45558003I47177093I41811452I29349062I13184307H98756813
35H87855912H79597624H80277067H99289111I27050806I47191752I56045886
28I58016175I57471569I55516354I52664986I50512355I48762369I44122985
21I33426208I15899868H94682364H80097837H83060878H99229229I16474623
14I29090866I37612054I43208578I44063933I39024323I34654406I40038440
7I51452899I58493501I59208970I55484408I44932426I28064924I18201513
##END=


$$ === CHEMSPECTRA PEAK TABLE EDIT ===
##TITLE=X7369
##JCAMP-DX=5.00
##DATA TYPE=INFRAREDPEAKTABLE
##DATA CLASS=PEAKTABLE
##$CSTHRESHOLD=0.93
##MAXX=3997.453
##MAXY=0.9255573124629817
##MINX=373.96442
##MINY=0.4635348903704848
##$CSSOLVENTNAME=- - -
##$CSSOLVENTVALUE=0
##$CSSOLVENTX=0
##NPOINTS=25
##PEAKTABLE= (XY..XY)
461.7893973103983, 0.6097815613245661
492.953098936669, 0.6181387286851395
684.1849043706015, 0.5824705943157613
698.3502232916339, 0.7325115179927747
752.1784351915558, 0.4635348903704848
825.8380935809223, 0.670529065180482
844.2530081782638, 0.5987436751171104
960.4086233307271, 0.7278752900378198
1005.7376438780293, 0.5910286291839902
1086.4799617279123, 0.6863504033382666
1106.311408217357, 0.5418725589318661
1114.8105995699761, 0.5755443559221983
1178.5545347146208, 0.6519803976596887
1195.552917419859, 0.6635068034173084
1247.9645974276777, 0.6729915120307567
1272.045639593432, 0.51494282358667
1283.3778947302576, 0.55797052166313
1391.0343185301012, 0.6114332060366948
1436.363339077404, 0.6484458425650846
1454.7782536747459, 0.7218661883053415
1541.1866990930412, 0.7211419914076255
1558.1850817982795, 0.7381470184185464
1583.6826558561374, 0.6227149947233743
1670.0911012744327, 0.7322572448827458
1706.9209304691162, 0.5167086107490778
##END=


$$ === CHEMSPECTRA PEAK TABLE AUTO ===
##TITLE=X7369
##JCAMP-DX=5.00
##DATA TYPE=INFRAREDPEAKTABLE
##DATA CLASS=PEAKTABLE
##$CSTHRESHOLD=0.93
##MAXX=3997.453
##MAXY=0.9255573124629817
##MINX=373.96442
##MINY=0.4635348903704848
##NPOINTS=90
##PEAKTABLE= (XY..XY)
3930.8760010711494, 0.8600820275751901
3918.1272140422207, 0.8594686958325723
3902.545363229085, 0.8357318019608667
3891.2131080922595, 0.8556340311810059
3881.297384847537, 0.8480323519049868
3869.9651297107116, 0.8424704044304214
3862.8824702501956, 0.8451763365555885
3852.966747005473, 0.821067271422601
3838.801428084441, 0.830425379209324
3820.3865134870994, 0.8360140889625531
3800.555066997654, 0.8398000570763366
3758.0591102345584, 0.8505514238993237
3749.5599188819388, 0.8153915978400953
3735.394599960907, 0.8181271514727834
3724.0623448240813, 0.8459758733147975
3711.3135577951525, 0.8377168153454911
3688.649047521501, 0.8413720700667133
3674.483728600469, 0.8314210744115977
3670.2341329241594, 0.8410284497183667
3648.9861545426115, 0.8098137353994794
3627.738176161063, 0.8367803666062288
3617.822452916341, 0.8427380884185206
3595.1579426426897, 0.8574631782342534
3586.6587512900705, 0.8406462646911416
3566.8273048006254, 0.8305172891511065
3545.5793264190775, 0.8526446199186354
3524.331348037529, 0.8583327501536024
2994.5484203909305, 0.836928186238365
2947.8028679515246, 0.8158343412827951
2922.305293893667, 0.8278511733178116
2848.6456355043, 0.8400405021039639
1706.9209304691162, 0.5167086107490778
1670.0911012744327, 0.7322572448827458
1653.0927185691944, 0.7642213676536493
1647.4265910007816, 0.7794392085403358
1636.094335863956, 0.7971104350129778
1623.3455488350273, 0.8213130211515809
1617.6794212666146, 0.8302358365580826
1609.180229913995, 0.8411371685123392
1583.6826558561374, 0.6227149947233743
1558.1850817982795, 0.7381470184185464
1541.1866990930412, 0.7211419914076255
1521.3552526035965, 0.7909850444690946
1507.1899336825645, 0.7887481422454751
1497.2742104378417, 0.8552218651954208
1488.7750190852225, 0.8244289729012074
1473.1931682720874, 0.8197481609743054
1454.7782536747459, 0.7218661883053415
1436.363339077404, 0.6484458425650846
1419.3649563721656, 0.8045496916432735
1391.0343185301012, 0.6114332060366948
1374.035935824863, 0.8057374930622457
1364.1202125801406, 0.7805232381398339
1321.6242558170443, 0.8043537711101165
1311.708532572322, 0.8273762430781489
1301.7928093275996, 0.7942004175624514
1283.3778947302576, 0.55797052166313
1272.045639593432, 0.51494282358667
1247.9645974276777, 0.6729915120307567
1195.552917419859, 0.6635068034173084
1178.5545347146208, 0.6519803967976964
1158.7230882251756, 0.8065050817963922
1114.8105995699761, 0.5755443559221983
1106.311408217357, 0.5418725589318661
1086.4799617279123, 0.6863504033382666
1059.5658557779511, 0.7520018191372366
1005.7376438780293, 0.5910286291839902
960.4086233307271, 0.7278752900378198
892.4150925097729, 0.8316308833666257
871.167114128225, 0.8417794080327541
868.3340503440186, 0.8417707062192742
844.2530081782638, 0.5987436751171104
825.8380935809223, 0.670529065180482
767.7602860046909, 0.8436035486340263
752.1784351915558, 0.4635348903704848
698.3502232916339, 0.7325115179927747
684.1849043706015, 0.5824705943157613
626.1070967943701, 0.7399799797882524
603.442586520719, 0.8154877987801445
592.1103313838935, 0.8117033219132477
579.3615443549647, 0.8178957082319982
539.6986513760748, 0.7858943310106947
526.9498643471461, 0.8164697262394861
518.4506729945265, 0.8194546068696971
492.953098936669, 0.6181387286851395
461.7893973103983, 0.6097815613245661
436.2918232525408, 0.794146893005124
420.70997243940565, 0.7582064845380101
398.0454621657541, 0.7586376643523955
385.29667513682534, 0.8056650132916024
##END=

##END=

