##TITLE=LSH-R164A
##JCAMP-DX=4.24
##DATA TYPE=INFRARED SPECTRUM
##DATE=10/3/2020
##SAMPLING PROCEDURE=Diamant-ATR
##ORIGIN=Angelika Moesle
##XUNITS=1/CM
##YUNITS=TRANSMITTANCE
##RESOLUTION=4
##FIRSTX=3997.453
##LASTX=373.96442
##DELTAX=-1.4165319
##MAXY=0.92848682
##MINY=0.55152249
##XFACTOR=1
##YFACTOR=8.6472074e-010
##NPOINTS=2559
##FIRSTY=0.82020879
##XYDATA=(X++(Y..Y))
3997+948524477+948365733+948589960+948799092+948723476+948487807+948292874
3988+948232768+948356703+948588306+948675363+948440659+947996892+947636943
3978+947591587+947860618+948216225+948492218+948793026+949206119+949517335
3968+949504377+949276772+949089008+949066055+949242790+949619282+950083452
3958+950447193+950586292+950492686+950233167+949931049+949769686+949858674
3948+950009905+949913886+949676149+949819591+950542591+951286683+951384080
3938+950778743+949881351+949119958+948736228+948762214+948978928+949012152
3928+948697076+948318378+948342572+948792061+949103346+948871743+948441486
3918+948546948+949359970+950168580+950371508+950227032+950221656+950217520
3908+949712612+948781032+948198648+948495665+949195091+949584679+949732257
3898+949944491+950025069+949684627+949152699+949051856+949530087+949743493
3888+949166554+948625459+949077222+949824898+949592468+948903588+949020493
3878+949560072+949398363+948765109+948547017+948878774+949545803+950691271
3869+951853489+952027398+951368502+951076173+951626643+952021125+951240363
3859+949255955+946676343+944633415+945068428+948792681+952292018+952851724
3849+951554198+949863154+948561975+948055482+948240626+948433904+948235456
3839+948156670+948724993+949511408+950035615+950616483+951554887+952347713
3829+952354881+951686956+950788117+949799946+949063505+949408910+950590772
3819+950964852+950551138+950929353+952077648+952251418+950968988+949254921
3809+948295700+948752840+949850540+949880317+948869813+948767315+950437542
3799+952175734+952917759+953257373+953377724+952815881+951667380+950567199
3789+949927396+949796017+950151279+950853049+951460937+951674204+951851215
3779+952510593+953326992+953404744+952485089+951108708+950166305+950448364
3769+951731829+952671612+952669544+952487157+952495980+952173321+951555990
3759+951493954+951999137+951832466+950340007+948164735+946714116+947347715
3750+949203845+949602946+948288394+947752124+949794569+952112112+952030431
3740+950188501+948359184+947710835+948416396+949947248+951592867+952586139
3730+952486605+951638154+950817550+950388671+950118193+950011766+950482691
3720+951415305+951986936+951553784+950261704+949007672+948964660+950411901
3710+951973564+952458413+952078061+951348168+950757650+950963542+952026847
3700+952836491+952523965+951573981+950896543+950700715+950552172+950323740
3690+950776606+952465306+954132363+954215492+952880192+951366434+950608901
3680+950391084+949881145+949260780+949876595+951448322+951829709+951270140
3670+952064206+954602323+956442737+956399863+955460976+954611904+953943289
3660+953121169+952266652+952063310+952537062+952355571+950787290+949019872
3650+948961696+951142965+953653993+954857982+954988327+954691311+954312544
3640+953900415+953393716+952929270+952852551+953201265+953297352+952477162
3631+951432469+952047801+954306271+955401490+954416903+952790239+951875064
3621+952113077+953128476+953928608+953833485+953255788+952963390+952997165
3611+952831252+952498668+952598478+953094493+953264335+952984000+952989583
3601+953793782+954854673+955318154+955192634+955164097+955529837+955731248
3591+955064425+953565074+952183730+951936136+952598547+953237108+953459612
3581+953368005+953181344+953157357+953445551+953837828+953835415+953114621
3571+951908840+950914878+950873452+951948198+953335195+954035862+953769519
3561+952917827+952124657+951739273+951561918+951342171+951249737+951558127
3551+952067791+952263136+951994036+951663037+951707152+952061173+952362808
3541+952483917+952514866+952520381+952554570+952624809+952538923+952144854
3531+951691781+951560746+951741410+951975632+952255485+952719104+953228423
3521+953477741+953410672+953237866+953068162+952755843+952179456+951496918
3512+951016549+950958924+951357198+951990659+952466961+952572974+952474956
3502+952448625+952571526+952832631+953227389+953601951+953691766+953438244
3492+953049551+952720827+952504527+952441457+952559671+952709316+952623154
3482+952204615+951603551+951011586+950558444+950348003+950416864+950698716
3472+951122149+951649389+952221917+952746952+953102489+953140400+952799476
3462+952221572+951671033+951371604+951414823+951698605+951955229+951969084
3452+951767534+951577565+951647873+952002928+952305321+952254176+952142372
3442+952504665+953220014+953591888+953338228+952840971+952440492+952148783
3432+952010510+952133136+952410438+952640318+952790791+952906730+953007849
3422+953198232+953541087+953796332+953658473+953192028+952679745+952216333
3412+951800069+951632364+951962742+952657412+953172590+953067818+952482883
3403+951959296+951751405+951556542+951073002+950568646+950605799+951314186
3393+952214886+952811607+953123719+953427629+953704794+953714720+953488425
3383+953325062+953350015+953424527+953454649+953522614+953725955+953982717
3373+954035793+953737949+953334919+953283222+953687975+954064398+953822456
3363+952992064+952282092+952322416+952988687+953609878+953732504+953522062
3353+953453753+953737329+954124574+954237894+954002155+953716788+953720923
3343+953985336+954102447+953791369+953323408+953234213+953682599+954298414
3333+954634858+954590260+954398499+954333430+954474528+954711025+954910437
3323+955048710+955184363+955316293+955338626+955186362+954907060+954528844
3313+954062813+953690112+953703415+954166965+954785951+955152655+955079590
3303+954723225+954364655+954084043+953793506+953523716+953425285+953568176
3293+953950320+954551109+955221033+955714154+955947824+956039983+956066520
3284+955979532+955773019+955552032+955428993+955482413+955770469+956229676
3274+956618645+956760088+956748921+956694398+956434328+955831471+955199182
3264+955058153+955519290+956185424+956612234+956672823+956499604+956209549
3254+955768470+955188981+954795739+955024309+955870761+956785729+957239629
3244+957174491+956843216+956478098+956219475+956133727+956200106+956411719
3234+956851350+957517001+958146602+958391094+958153426+957662649+957210265
3224+956876165+956541375+956164469+955918253+955935072+956049012+956010067
3214+955834435+955721943+955742966+955817823+955920666+956112979+956376840
3204+956520214+956314942+955774329+955261495+955187533+955572642+956022130
3194+956240016+956422954+956931860+957691599+958261162+958431900+958365452
3184+958203537+957976070+957805470+957806573+957849103+957675056+957209921
3174+956664345+956403723+956679578+957337095+957848482+957783068+957269613
3165+956899394+957103701+957676779+958032041+957896043+957538507+957348675
3155+957434010+957639626+957728063+957526100+957085641+956668618+956446735
3145+956325557+956193626+956151924+956321352+956589281+956715904+956622711
3135+956495123+956602515+956985969+957343092+957319863+956908906+956439497
3125+956159782+955972156+955706434+955502609+955639503+956052045+956382975
3115+956506428+956616852+956822882+957069580+957434699+958054099+958738705
3105+959036273+958738843+958035143+957091845+955731317+953668606+950959475
3095+948111659+945722843+943934885+942192902+939621286+935804185+931295998
3085+927344002+925041761+924678711+925783993+927694163+930032454+932633434
3075+935173343+937192146+938559567+939611911+940673423+941708260+942545269
3065+943141577+943560943+943921719+944352734+944880389+945499788+946294061
3055+947212407+947891292+948013573+947627844+946858317+945604905+943821634
3046+941882927+940397361+939683322+939582892+939806154+940254608+940937492
3036+941812067+942784040+943621049+943897732+943313211+941986665+940279009
3026+938556809+937236123+936724529+937112395+938067204+939158287+940226554
3016+941362096+942609718+943873193+945043613+946022962+946701364+947090884
3006+947374253+947702908+948063409+948367732+948604021+948930333+949536360
2996+950284381+950726081+950695407+950580502+950798181+951332590+951928553
2986+952394654+952597513+952462894+952131964+951905117+951917800+952013888
2976+951993485+951812476+951521457+951224854+951075897+951098989+951087615
2966+950860975+950486620+950108543+949739081+949339911+948973552+948788132
2956+948880635+949182339+949517335+949783816+950003150+950182021+950260876
2946+950241921+950236613+950292239+950262738+950001564+949640443+949484870
2936+949626175+949858812+949962343+949836065+949381545+948567006+947684021
2927+947258520+947543337+948251310+948904829+949269190+949350320+949210117
2917+948986304+948944670+949308204+950041474+950894199+951650630+952272166
2907+952802164+953250687+953615117+953900553+954067018+954055438+953883803
2897+953644619+953441553+953388408+953582031+953995124+954433170+954666910
2887+954648437+954562137+954605701+954764583+954871492+954817245+954610870
2877+954303308+953921784+953467815+952997234+952684571+952712900+953104350
2867+953708723+954249474+954352661+953790542+952806369+951953988+951514426
2857+951292542+951068866+950981602+951292197+951975218+952754327+953443138
2847+954032967+954494311+954701443+954601427+954360243+954268360+954500377
2837+954982744+955481793+955806795+955936244+955963333+955950237+955897161
2827+955812102+955664111+955315259+954707096+954078115+953763453+953834312
2817+954129950+954508097+954883555+955192910+955486894+955889786+956369879
2808+956715008+956783248+956631948+956381183+956080237+955751513+955476761
2798+955383431+955523978+955766126+955871313+955757924+955606141+955613103
2788+955764403+955962368+956202794+956475341+956643735+956579562+956331967
2778+956109395+956123180+956393659+956675373+956701980+956546545+956572807
2768+956981558+957564769+957955598+957987513+957768869+957518242+957383416
2758+957362323+957353914+957261893+957050418+956772564+956592314+956691917
2748+957066065+957471783+957628460+957438559+957019262+956584525+956285923
2738+956147926+956140068+956217820+956278203+956246564+956229952+956382079
2728+956621609+956724244+956663518+956641460+956817575+957165323+957522033
2718+957697044+957621774+957434699+957338336+957415054+957639006+957955598
2708+958248548+958381582+958368623+958340017+958253787+957848620+957006510
2698+956001796+955252672+954930358+954909059+954990878+955060565+955083450
2689+955092411+955203249+955521979+955987321+956382424+956558676+956613061
2679+956785936+957181591+957639419+957943260+958078155+958142052+958120133
2669+957985927+957890460+957953944+958010604+957831043+957440214+957023605
2659+956709425+956533586+956428606+956264486+956054527+955994351+956193695
2649+956571773+957054899+957634732+958218633+958628694+958775996+958753456
2639+958769723+958988091+959409388+959932286+960443673+960768812+960702364
2629+960234541+959646987+959285866+959317229+959660428+960029269+960096200
2619+959767613+959299445+959084799+959334806+959949725+960629575+961074238
2609+961132897+960878824+960593111+960629920+961177839+962062341+962804779
2599+963015220+962766178+962466060+962356049+962300492+962086259+961719003
2589+961377114+961205618+961178459+961122006+960920870+960709051+960751580
2580+961147372+961730170+962217914+962388239+962197373+961836046+961623674
2570+961724725+961950330+961948125+961631463+961279303+961119801+961010341
2560+960704984+960255358+959972954+960108331+960663488+961379871+961876852
2550+961914349+961591898+961256488+961198104+961446043+961875542+962402576
2540+962904106+963126541+963029075+963025697+963426246+963863051+963789021
2530+963280598+962831041+962648929+962633076+962775691+963178238+963803427
2520+964450260+964885411+964945725+964606592+964001392+963325609+962728888
2510+962317310+962196822+962426563+962903279+963387508+963778475+964282348
2500+965047326+965680787+965549408+964651258+963725606+963351940+963394332
2490+963476426+963526331+963669911+963979473+964472180+965074278+965545755
2480+965690851+965626057+965595177+965572017+965307673+964753481+964175646
2470+963829069+963734774+963818178+964066393+964434613+964707780+964617000
2461+964140009+963591469+963324299+963389093+963542392+963515923+963201743
2451+962647068+962005129+961513801+961420608+961810404+962521617+963293143
2441+963968927+964523188+964979914+965356268+965602415+965622059+965426714
2431+965191320+965085858+965138244+965280032+965413066+965402864+965096197
2421+964465356+963779164+963515578+963952315+964889271+965866759+966553295
2411+966849691+966765391+966349333+965769499+965393076+965588629+966292949
2401+966918621+966914002+966362016+965881510+965976150+966584589+967251136
2391+967611430+967617289+967357425+966880503+966270271+965723730+965439741
2381+965483994+965749303+965992555+965988488+965783009+965732760+966153298
2371+966923308+967510586+967411052+966674611+966010545+966130758+966973144
2361+967897073+968529500+968867185+968728223+967924300+966920413+966461964
2351+966503046+966329412+965618337+964773884+964414279+964675177+965099506
2342+965246946+964968471+964393325+964079283+964533665+965357164+965568846
2332+964898853+964085969+963720023+963499587+962994541+962500318+962632180
2322+963331537+963848369+963796741+963604704+963868772+964730665+965787697
2312+966385038+966191071+965545341+965034781+964836334+964705368+964441368
2302+964080799+963766688+963672737+963960793+964614726+965431263+966322864
2292+967471158+968953415+970369017+971096705+970902324+970164297+969516982
2282+969282346+969190739+968674113+967510310+966177837+965471931+965730416
2272+966592171+967519202+968195606+968387781+968009566+967484600+967429387
2262+967908860+968505168+968872837+968788881+968115165+967124237+966418883
2252+966276268+966478024+966826669+967365628+967965244+968023007+966961839
2242+965086203+963616422+963629036+965096197+967109486+968952312+970703876
2232+972575929+974009590+974183913+973339115+972715235+973050852+973740146
2223+973637648+972519544+971540679+971803368+972637552+972368038+970764603
2213+969286068+968809904+968696378+968373513+968522814+970080341+972728538
2203+975064554+976190171+976443831+976359461+975915005+975281682+975163054
2193+975718005+976222912+976262684+976142885+975923965+975272721+974341968
2183+973746211+973619381+973399772+972565176+971278127+970357231+970536585
2173+971661925+972897346+973468771+972891694+971250279+969752444+969925733
2163+971721067+973622690+974645533+974689303+973616142+971925787+971071545
2153+971729338+973139150+974462318+975557882+976386826+976707623+976361046
2143+975318214+973795496+972542567+972413118+973389640+974484996+974745480
2133+974093202+973177682+972684148+972810495+973197534+973305270+972920507
2123+972258371+971616432+971126965+970814301+970604549+970241912+969525046
2113+968755726+968603047+969339282+970467242+971225603+971201339+970435327
2104+969324531+968573683+968878282+970366191+972348944+973680728+973543145
2094+972154908+970591521+969698611+969368784+969037716+968543630+968215595
2084+968422315+969221344+970178083+970603377+970297745+969821718+969774846
2074+970195247+970781904+971185486+971129101+970832912+971071477+972237554
2064+973662117+974405245+974368161+974068387+973705474+973081939+972345015
2054+972067299+972398367+972827521+973033826+973258536+973501167+973182990
2044+972127474+971122415+970997446+971583966+972134919+972675325+974174400
2034+977006708+979898294+981049277+979793522+976833144+973580298+971416744
2024+970942923+971759874+973071117+974370229+975622675+976922200+977828690
2014+977282701+974828954+971625048+969394287+968508269+967972826+967302212
2004+967350877+969008766+971915448+974713773+976187758+975998616+974570055
1994+972736189+971488913+971446039+972269262+973052299+973200015+972552493
1985+971128757+969164339+967043314+965094336+963702032+963210428+963244134
1975+962853374+961789105+960864555+960983045+962388032+964800008+967818287
1965+970992690+973714228+975579801+976995817+978855945+981312863+983301819
1955+983549276+981989956+980110597+979576946+980473648+981371866+981142745
1945+979941031+978361928+976630698+974973016+973937904+973929081+974881616
1935+976465750+978161481+979220926+979267453+978911088+979049016+979785457
1925+980621432+981091599+980812711+979793453+978869593+978912811+979575567
1915+979850526+979607206+979419097+979459008+979375327+979030198+978764820
1905+978895441+979408207+980197792+981133715+981807637+981769313+981118895
1895+980334066+979552476+978605386+977556764+976621737+975800099+975019337
1885+974383394+974040609+974039575+974345483+974858731+975471858+976172525
1875+976919857+977490523+977755832+978024863+978706713+979546892+979803861
1866+979412342+978989392+978871798+978841263+978553827+977847922+976671780
1856+975016373+972922161+970444357+967728885+965170917+963350906+962770659
1846+963747801+966200239+969182123+971570870+973195190+974459217+975538237
1836+976246003+976494149+976619325+977046066+977657401+977839788+977462813
1826+977095006+977113066+977290352+977356869+977456334+977817248+978322845
1816+978626754+978582433+978332495+978073734+977939460+977995775+978163756
1806+978242749+978160792+978123777+978386329+978869455+979141174+978912467
1796+978390465+978103443+978484277+979392353+980092262+980194346+980029605
1786+980024711+980213715+980327724+980265205+980180422+980122866+979918766
1776+979491611+979149170+979432952+980385142+981168456+981225115+980821603
1766+980223365+979499538+978937350+978851533+978978501+978819481+978433614
1756+978046438+977441859+976354291+975062900+974251532+974224305+974466385
1747+974475415+974326114+974296681+974594525+975332965+976218569+976566938
1737+976256343+976151501+977144015+978574092+979334590+979612582+979875617
1727+980181870+980487296+980710558+980569459+979952680+979360507+979681029
1717+981136472+982596051+983146452+982922018+982293383+981541846+980957807
1707+980768459+980806576+980611782+980242390+980437253+981495043+982455160
1697+982834823+983104888+983167683+982686831+982030348+981718925+981704657
1687+981778894+982410011+984114979+985765837+986136125+985698424+985157191
1677+984824951+984749405+984578253+983780671+982271050+980281679+977889486
1667+975091092+972236107+970083098+969479346+970532242+972325508+973937215
1657+974955784+975581662+977149736+981150465+985062275+986293767+986333332
1647+987039789+988689682+990019192+990487084+990486395+990238594+989833565
1638+989703633+990445589+991592022+991826244+990994542+989805511+988873655
1628+988356202+988018310+987714125+987483763+987200050+986723059+986480910
1618+987368307+989075204+988603176+983473384+974465420+965148446+960218894
1608+961744714+967404504+973597255+978525635+982141256+984884506+987093210
1598+988992144+990759976+992560548+994498359+996487040+997935866+997440954
1588+993563057+986802259+980199722+976917375+977425729+979706119+981880151
1578+983794526+986223528+988873862+990512106+991263091+992267047+994080923
1568+996043824+997567784+998816577+999767457+1000290424+1001218696+1004502973
1558+1009220222+1009919373+1005805945+999108906+990907484+980993720+969864937
1548+960670037+957282228+961049631+969906295+979967086+989360227+998322009
1538+1005083703+1008894738+1011968367+1016459390+1022399929+1027942539
1530+1032444867+1037034183+1042623871+1048785742+1054935344+1061619768
1521+1068601209+1073233676+1073741823+1071062677+1066073846+1055901458
1513+1033383202+992395807+933403030+863635975+801541377+774949465+779760182
1503+792505152+804976471+817188754+830274510+845474054+861735110+875801524
1493+887117036+898049990+910160465+921797463+930368140+935758415+938897872
1483+939825041+938197963+934786787+931772300+931270080+934183104+940624346
1473+950496684+962099149+972174002+979498987+984803445+987654501+984593417
1463+971551914+948109247+916076465+877955704+842902644+827521954+832588538
1453+844624982+855398020+861430097+862636637+863321105+868199029+877330101
1443+887711276+896795200+903503474+908347209+912811074+917585742+921470463
1434+923575772+924727857+926080320+927872483+929564286+931069220+932926797
1424+935292660+937759710+940227243+942347648+941472314+934520306+922629027
1414+910993200+905623810+908847498+917251710+925634899+931593566+935566103
1404+938557361+941029581+943287431+945616554+947847453+949548354+950721600
1394+951621473+952265825+952734269+953423080+954649678+956235328+957725374
1384+958936670+959984465+961000139+961987208+962893215+963792674+964836747
1374+965933344+966732167+967096803+967157047+966777384+965499089+963348907
1364+961382697+960953819+962241350+964160137+965867724+967240383+968344149
1354+969248846+970143067+971315693+972961795+974998865+977158283+979247808
1344+981190858+982887692+983850773+982613008+977441790+968808388+959322674
1334+950069322+939298351+926083146+913867692+907673769+907251370+905656345
1324+896828631+883518786+875167718+877795650+887805364+896484260+899245294
1315+898602183+899472347+903944829+910548123+917093793+922798524+927865315
1305+932382600+936189637+939167455+941166475+942013272+942008792+942178082
1295+943526685+945959960+948164114+948655305+947045529+944550286+943243730
1285+944478048+947920794+952158157+955994765+959032826+961321833+962938364
1275+964004287+964827855+965748269+966849416+967996124+969142902+970384113
1265+971700319+972884181+973765512+974344036+974609138+974285308+972883147
1255+970071518+965970015+961164949+956677648+953793230+953353530+954992739
1245+957446348+959778573+961995824+964458187+967218325+970120803+973114543
1235+976177970+979179981+982027522+984797517+987607905+990479916+993207244
1225+994741611+992479970+983212969+966245181+945733527+928874716+921053716
1215+922534939+928984659+934435523+934949460+931233479+927732212+928368913
1205+933158331+938928821+942541960+943092982+941876378+941085138+942401413
1196+946219617+951715217+957402785+961802477+964109129+964664493+964802351
1186+965930243+968503582+971882637+975137275+977819936+980004859+981917166
1176+983712914+985511488+987443577+989548404+991670670+993574499+995036146
1166+995495767+993600003+987568064+976743535+963340429+952414367+948962592
1156+954174685+964640643+975321523+982592191+983818100+974841637+950577193
1146+911098731+867124421+835659410+827406291+839585006+861712363+885498437
1136+907791983+927716703+944703171+958633105+969908087+979169711+987207150
1126+994700116+1001577611+1006370200+1006267771+998567466+982644922+960048707
1116+932508327+901454480+870930631+849325689+845157530+860489281+888719988
1106+916277187+925493869+902647027+851045200+794314685+759714629+757137499
1096+776558690+802507353+826003165+844974041+860020768+872152404+882276265
1086+890973771+898500030+904914596+910185348+914405893+917951067+921286421
1077+924658583+927992972+930998705+933399446+935147012+936360789+937145826
1067+937726693+938606025+940166103+942179668+944139812+945956031+947876196
1057+949897894+951766156+953430731+955065873+956749541+958243310+958651785
1047+956472928+951245463+945369305+942770668+945077182+950198564+954961238
1037+958008743+960009418+962191307+965147343+968630343+972006365+974479413
1027+975112736+973662393+971522275+970785213+972184961+974792835+977609771
1017+980552365+983909707+987545938+990852134+993225854+994409578+994595136
1007+994691568+996077048+998664450+999071133+992838678+980026985+967417531
997+963315614+970366743+984343135+999037633+1010874665+1019162869+1023718272
987+1023260236+1015416007+997108094+965144241+918558266+862223336+807274025
977+765798334+744395562+742430386+754467313+773205138+791617686+804194054
967+807268648+800023690+786408005+774293740+770328854+775596505+786814137
958+800487792+814886790+829258285+842886308+855095765+865499135+874017425
948+880843775+886381560+891048560+895126007+898805732+902213186+905263723
938+907641924+909073587+909595726+909567328+909515906+909979043+911321786
928+913551100+916300278+919045941+921348113+922982014+924035600+924888945
918+925882010+926970956+927897643+928673098+929637488+931013525+932637639
908+934199854+935577752+936840882+938063000+939255753+940421073+941553927
898+942620609+943605196+944504310+945201737+945490689+945366685+945138116
888+945045543+944863087+943943983+941569987+937514322+932709670+929120725
878+928284336+929990889+932814718+935717058+938667372+941920011+945298928
868+948347880+950841055+952833458+954322056+955226065+955790734+956695708
858+958490628+960987043+963401293+965019065+965463177+964460048+961771321
849+957075164+949501275+938295223+925139710+914721796+911188132+914513836
839+921451093+928987760+935781231+941426959+945756757+948657028+950107095
829+950526944+950891856+952050765+954042823+956355472+958618354+960738139
819+962612604+964137183+965435399+966764839+968217457+969700403+971141371
809+972568415+974054808+975699394+977606600+979729624+981674811+982839234
799+982866599+981791922+979721284+976657443+972294559+964916705+950394048
789+923768292+883298763+833040646+780805772+733470466+694457621+664906710
779+645677694+637804169+641540485+654829996+672802775+690283053+705717646
769+721663763+740733966+762085523+782565952+800163410+815220683+828887927
759+841528744+852704537+862056803+869859606+876803412+883365625+889485931
749+894909982+899666521+904006452+908038130+911632796+914639632+917110198
739+919305736+921477493+923774220+926315025+928926620+930895863+931692893
730+931957030+933060314+935656193+939123891+942386869+944933878+947026022
720+949131814+951395178+953672397+955792940+957664648+959289175+960801485
710+962473504+963872150+962079780+952802922+936926148+924038081+923134762
700+929810846+929161187+913493957+892083534+880750858+885780634+900923655
690+916781543+928949505+937739169+944205295+948775173+952026571+954717573
680+957221845+959499202+961361605+962734402+963826105+964910984+966070169
670+967468263+969541245+972022081+973836095+975065312+976673710+979138831
660+981938328+984376704+986572104+989066588+991979956+995046692+998264728
650+1002035233+1006440508+1010471152+1011170992+1001965132+973973609+925652407
640+872675164+840308006+840983651+864431213+891753569+912730289+927361510
630+938061345+945914053+951625816+956191834+960341106+964204045+967758732
620+971241939+974824611+978296238+981467126+984503258+987612317+990685325
611+993363024+995484394+997449845+999722860+1001655157+1000546635+991475118
601+969121672+932225028+886487918+841574858+806126144+786162893+784795817
591+800240680+825340685+851577473+873446208+889415003+900704529+909445874
581+917044095+923691642+929048832+933063622+936248572+939386512+942934099
571+946704191+950121708+952677057+954161864+954738734+954940146+955408797
561+956524418+958382478+960966019+963959345+966480919+967561525+966976314
551+964978259+961215612+955232682+948672055+945305890+947362259+953167214
541+959636648+965357922+970136105+973386262+974597144+974358924+973711609
531+973187815+973105995+973901165+975559881+977434621+978984084+979676686
521+978123501+973332704+967533126+965340759+968488487+974067491+978805764
511+982086664+984591419+986344844+986874841+986214222+985099910+984494504
501+984917799+986064232+987400979+988891508+990619153+992150005+992917602
492+992991770+992879967+992763063+992506577+992223828+992214868+992288829
482+991508686+988228959+979267384+959360999+923553646+872649384+819328046
472+786578950+790131225+824685580+871739310+913406624+939958350+948119862
462+935603462+902015083+855930362+818867805+811384420+832028142+863247696
452+889501785+905194036+913744860+921206601+930908959+942115012+951556197
442+956768152+958539775+959406561+961119180+964543039+969576812+974250292
432+976202716+975670168+975112805+975515076+975295743+973298033+970734826
422+969527114+970600482+974105954+979256217+984162264+986968378+986468503
412+983176299+980004101+979468864+980780590+981631109+981537710+981981822
402+984383252+988795144+993190907+993809824+989581628+984398623+981294458
392+980488812+981733125+984187837+985766595+985152779+984318527+986716924
382+992356517+998317046+1003018441+1006506060+1007203074+998939409+977853022
##END=
