##TITLE=X9656
##JCAMP-DX=4.24
##DATA TYPE=INFRARED SPECTRUM
##DATE=19/11/2018
##SAMPLING PROCEDURE=Instrument type and / or accessory
##ORIGIN=Default
##XUNITS=1/CM
##YUNITS=TRANSMITTANCE
##RESOLUTION=4
##FIRSTX=3996.5625
##LASTX=399.65625
##DELTAX=-2.0390625
##MAXY=0.9886232
##MINY=0.48970369
##XFACTOR=1
##YFACTOR=9.2072711e-010
##NPOINTS=1765
##FIRSTY=0.96744841
##XYDATA=(X++(Y..Y))
3997+1050743925+1051101399+1051651336+1052268469+1052057299+1051121921
3984+1050541882+1050569007+1050825557+1051277159+1052302844+1053245925
3972+1052947231+1051723970+1050647144+1050122907+1050541753+1051498817
3960+1051701830+1051766114+1052552856+1053343872+1053724263+1054224806
3948+1054689873+1054350524+1053564105+1052119187+1050571272+1050681583
3935+1051813954+1052873367+1054085687+1054430603+1053628777+1053176204
3923+1052771148+1052592864+1053753913+1054713696+1053716883+1051728890
3911+1050153851+1050164662+1053614535+1059569192+1063334655+1062713249
3899+1059037576+1054840126+1053437027+1055188279+1056232220+1055823215
3886+1057367439+1059024305+1059300535+1059083474+1056828508+1056034709
3874+1058467830+1061652218+1064367590+1063693554+1061798069+1061604313
3862+1059515784+1056381891+1057186112+1064030443+1073677604+1071339452
3850+1059875201+1053573168+1053806220+1057491150+1061899317+1066163575
3838+1067636330+1064393679+1060758790+1058524151+1056690166+1055963045
3825+1056872658+1061038904+1067343138+1067933665+1065226644+1062523636
3813+1057723037+1054436688+1055561226+1058928560+1060225555+1061850700
3801+1062776497+1059075641+1055325650+1051903549+1048341747+1046979174
3789+1047861403+1049623789+1050790276+1051143996+1052307570+1052380657
3776+1050107694+1049083628+1051065341+1054653232+1056301488+1055749998
3764+1054527125+1054047881+1055698079+1056523922+1056323498+1060598502
3752+1069815231+1073741823+1069860352+1068944719+1068102109+1061934987
3740+1058806078+1062257245+1067831187+1067855463+1061315070+1054633617
3727+1052225225+1053382843+1055291404+1055309854+1052614550+1050063544
3715+1050783608+1055243111+1059517662+1057907989+1053637711+1051616831
3703+1051866196+1050892106+1048232278+1047202838+1048494655+1052347448
3691+1058401087+1060941800+1055904653+1049984695+1047705841+1049569605
3678+1055520248+1064051935+1067332392+1064897588+1064236628+1059925825
3666+1052190138+1047814598+1046062052+1045838452+1048559003+1051776925
3654+1052905606+1057070622+1065594282+1067830540+1059450854+1051031678
3642+1047741381+1047429157+1046840638+1046337247+1047150984+1050843489
3630+1057411913+1057539055+1050228234+1046566479+1048897187+1053293571
3617+1054597170+1054494369+1055337044+1055313285+1054081544+1051386046
3605+1047635990+1045706260+1046232956+1047200832+1047372901+1046818757
3593+1045850169+1046500318+1050102839+1052255263+1049537431+1046187252
3581+1044481575+1043830067+1043417242+1042960850+1042836944+1044394051
3568+1048446621+1051307909+1049721606+1047179210+1045641265+1044472318
3556+1044032304+1044589167+1044224960+1042942789+1043455566+1044710030
3544+1043932415+1042335496+1041680362+1041300100+1041044261+1041537748
3532+1042547054+1043645827+1044184888+1044087654+1043545744+1042414021
3519+1041506998+1041729497+1042561685+1042783407+1042025343+1040951429
3507+1040677594+1041900596+1043438346+1042853323+1040783503+1040084090
3495+1040939194+1041318356+1040690606+1040132448+1039886385+1039816987
3483+1039968082+1039686219+1038779908+1038219873+1038346303+1038525041
3470+1038453701+1038132543+1038446451+1040066093+1040988394+1039829352
3458+1038442049+1038128012+1037907973+1037141363+1036799425+1037404517
3446+1038046444+1038323192+1038286228+1037543118+1036580357+1036408740
3434+1037111584+1038241107+1039195711+1039228791+1038570162+1038314582
3422+1038906792+1039485018+1039107475+1038354525+1037972903+1037810868
3409+1037699456+1037640611+1037428275+1036853091+1036274347+1036052495
3397+1036282828+1036821629+1037152757+1037025679+1036594469+1036253308
3385+1036215761+1036299853+1036193232+1035773157+1035311780+1035061379
3373+1034823408+1034676133+1035233449+1035972805+1036070621+1036006662
3360+1035999088+1035531755+1034823084+1034769029+1035147673+1034992306
3348+1034436090+1034171382+1033951861+1033524923+1033699712+1034568929
3336+1035156413+1035253453+1035230212+1035153953+1035035161+1034799844
3324+1034488461+1034221423+1034137849+1034403268+1034683448+1034852022
3311+1035130194+1035206519+1034753752+1034345847+1034308623+1034253727
3299+1034156169+1033600536+1032515423+1031980764+1032236667+1032819749
3287+1033665531+1034316198+1034369670+1034070976+1033518191+1033098504
3275+1033293491+1033515213+1033184539+1032737080+1032493671+1032656742
3263+1033156443+1033170750+1032829524+1032898792+1032928312+1032454959
3250+1032309690+1032746791+1033082708+1033407491+1033638018+1032951164
3238+1031669381+1030930738+1030836741+1030963754+1031156539+1031298182
3226+1031082545+1030670303+1030628095+1030529048+1030101399+1030047279
3214+1030404107+1030369084+1029601439+1028766921+1028779738+1029497213
3201+1029650703+1028887136+1028486158+1029200396+1029942276+1029868801
3189+1029735184+1029781600+1029299314+1028786730+1029338285+1030342154
3177+1030626930+1030284862+1029947779+1029506729+1028468356+1027438010
3165+1027262250+1027749651+1028034945+1027764217+1027655848+1027850058
3152+1027681937+1027163462+1027030494+1027146113+1026698395+1026059446
3140+1025824647+1025998464+1026564520+1027120154+1026900956+1026155774
3128+1026293404+1027320902+1027828759+1027420143+1026639744+1026082622
3116+1025865884+1025670250+1025772793+1026089613+1025742885+1025061339
3103+1025015829+1025400623+1025630826+1025643320+1025332455+1024792942
3091+1023879186+1022278576+1021184011+1020949212+1020516967+1019916147
3079+1018741504+1016754223+1015162676+1014499451+1014288215+1014137509
3067+1014480224+1015745887+1016892047+1016805041+1016006192+1015439942
3055+1015453990+1015769581+1015794051+1015490760+1014917778+1014331006
3042+1014199203+1014305629+1014686151+1015427124+1015804215+1015500018
3030+1015034109+1014857767+1014801964+1014396196+1013875326+1013764109
3018+1013582911+1013011547+1012651418+1012598658+1012473587+1012091577
3006+1011507524+1010954869+1010466173+1009870468+1009150209+1008479669
2993+1007705097+1006445130+1005005779+1003627733+1001271454+997464236+992903032
2979+986925588+978116894+965547721+947772763+924918644+899019385+870072462
2965+837672753+804227032+773084829+747076166+729017079+722033112+728394897
2951+747233023+773052979+797587010+814510294+822115279+821358898+813077741
2936+798406768+780115989+762366667+748181477+737918995+730526670+724475297
2922+718935665+715072386+714944466+719159589+726429238+735081918+744623753
2908+754947671+765251325+774945809+784067505+792887011+801694670+811226859
2893+821939455+833396584+845269063+856720560+866501338+874207182+879093946
2879+879088702+871672748+855687754+835043092+819545175+817597384+827937744
2865+840891969+847322893+844558321+834691832+821251953+808263676+799182894
2851+795508515+797108478+804096847+816881204+834560935+854947428+875338711
2836+893536075+908966601+921848775+932062381+939640629+944790935+948102077
2822+950750188+953220274+955228982+956830369+958162646+959072064+960000386
2808+961740567+963951124+965661527+967087996+968726671+970316146+972001884
2794+973710734+974870941+975893583+977397283+978964942+980366551+981668208
2779+982612131+983422049+984273593+985262184+986436634+987298276+987804904
2765+988165292+988252427+988195589+988143800+988211061+988779447+989621281
2751+990139690+990072688+989575771+989267172+989267690+989255002+988854801
2736+987938585+987129444+986896781+986782262+986564941+986947469+988049673
2722+989285751+990056439+990250519+990340244+990380834+990400838+990655317
2708+991137798+991564088+991926094+992441979+992851437+993123201+993413415
2694+993452322+993378328+993568200+993716382+993773415+993886703+993574997
2679+992902903+992378732+992083339+991970244+992040548+992133898+991803613
2665+991255748+991351169+992012841+992553779+992862313+993092063+993171495
2651+993051279+992965503+992874225+992553714+992123605+991699063+991524922
2637+991832161+992064695+991723728+991339452+991467954+992058286+992640008
2622+992678462+992486971+992787607+993473037+993911174+993661485+992970876
2608+993025967+994104736+994953237+994922293+994221262+993341104+993118799
2594+993634749+993736709+993034124+992546334+992614761+992700537+992474024
2579+992203555+992630621+993190916+992741062+991963447+991742760+992058156
2565+992521217+992565561+992197987+991722886+991582473+992162900+993258436
2551+994024786+993667053+993011078+993217911+993781054+994041165+994127847
2537+994055536+993512138+992804698+992761324+992966668+992938443+993242770
2522+993532595+993363697+993110125+992842828+992755498+993024931+993447402
2508+993636432+993352692+992951391+992491762+991774352+991163757+991222279
2494+991809374+992151895+991993420+991603965+991564411+991886281+991636269
2480+990912515+990553551+990601521+990761614+990651691+990551868+991398556
2465+992763331+993456983+993366157+993234354+993231700+992705780+991873528
2451+991188033+990525261+990203521+990002190+989590790+989613642+989973836
2437+990341474+990878269+990944559+990097741+989297339+988964464+988623173
2422+988889629+989543467+989511811+989301936+989238235+989078724+989005054
2408+988903482+988602393+988391093+988425662+988448450+988362480+988666676
2394+989133491+988622914+987609918+987224088+986973688+986020248+983993802
2380+980799898+977191939+974010140+971700406+970769625+970383925+969384135
2365+968740007+968637011+967342216+966097851+966873330+968432897+969860854
2351+971427154+972341751+971449553+969553874+968707897+968727254+969344969
2337+970280800+970572697+970472808+970308637+970324821+971027924+971811235
2322+971668556+971550024+972345053+972865922+972886250+973367760+974583317
2308+975970231+977175172+978341400+979156626+979492544+980131623+981225152
2294+981541260+981302641+982012024+983279111+983957614+984240254+984548270
2280+983840247+982552444+982307611+982268704+982487513+983845296+984800483
2265+983921038+982836119+983456424+984142890+983235284+981719285+980853823
2251+980873956+980868454+980654823+981176599+982574907+984051094+984423846
2237+983705401+983055188+982887649+983252504+983574568+983487433+984099517
2223+984225429+981304648+977418516+976040794+976356903+976559657+977755858
2208+981161257+983941042+983868537+983968619+984347652+982252131+980706030
2194+981539577+980788116+978577817+978675440+979811371+979542780+979569192
2180+980621095+980867677+980458801+981509151+985618688+991312845+994240877
2165+992786118+988190086+982503438+978977112+977938545+976668673+974697512
2151+974212118+976198687+978805172+980592482+980954294+979290307+977183846
2137+976013929+975523550+975588480+975237738+974296599+973649493+973740512
2123+975194559+976664854+976190530+975461014+975923039+975771749+974061541
2108+972503268+972783966+974285076+975116681+974327025+973002969+973033137
2094+974052024+974695829+974445881+973285997+973140664+974883176+976523081
2080+977114643+976816532+975834608+974424907+972784419+971235340+969617380
2066+969302114+971209898+972424937+972672037+974050730+974795135+974139613
2051+974828409+977008087+977393140+976046167+974344245+971289653+970172431
2037+973249745+975019123+972690163+970179164+971133121+976088958+978811969
2023+974001077+967468129+967756336+974703209+979149441+977208964+973836322
2008+973030547+975286031+977273118+976238435+973428094+971336976+972445524
1994+976024092+977336754+975671149+975503676+976461258+975230552+975357630
1980+978770797+979855651+978963841+979071433+977537308+973822728+970212762
1966+968144301+968211174+969443433+969799808+968324269+965911151+966128795
1951+968626329+968170261+965596726+965926947+968303359+967951257+965002316
1937+962779718+961852108+961460841+961584229+961531210+961972389+964391462
1923+966453125+966197999+965572126+965452623+965522279+966188741+966200394
1909+963963424+961155738+959927946+959182570+957491911+955847151+954612303
1894+952783950+951325178+951471094+951778786+951966457+952889923+953960018
1880+954902775+955464882+955999929+957337450+959951704+963510398+964247294
1866+960837882+958096809+957719331+958102441+958662606+959044034+958694327
1851+958013687+958012457+959725191+963163411+964177379+961224618+959111813
1837+958825936+958519603+959071611+962080887+964033922+962955930+961667415
1823+959633977+957004446+955664465+955115564+954429940+954753946+955755679
1809+955492848+954638780+954736920+955803066+956815674+956539961+956065378
1794+957705283+959346482+956154909+951221729+949095394+948908823+948805633
1780+947969626+946242003+945805809+947860869+948271946+942942967+936174961
1766+931504805+929369278+927403231+923809837+920372588+916606672+913564769
1752+913664593+913971250+910339468+905528834+902808930+901895563+900548332
1737+900525027+906683280+913915382+912859853+909234286+907093386+907103873
1723+909086622+913955972+923563256+932895798+933102308+930157445+930889938
1709+936081352+943480086+948687554+952933426+959945166+963535581+961215360
1694+955205807+949626363+948479685+950711605+957179687+965011314+961171210
1680+952892837+950156166+952126745+953684952+954511832+956076448+953263582
1666+949058365+948967280+949030657+946529174+946343899+952581842+963426953
1652+962402692+957495990+959050378+955445332+945740360+940556650+941696725
1637+947582502+950012710+942505348+936857089+937500117+940209015+942720209
1623+944436826+943389519+943965286+946902834+944566170+940230184+939531613
1609+940162017+939690994+938984395+938448506+937468914+936641711+936541758
1595+936392605+935509081+933753168+931164809+928429887+926223343+924661446
1580+924869444+928676274+932515536+929736269+927480008+929662923+929795179
1566+927680044+927719921+932527189+945419462+951544440+942056271+935609682
1552+934343695+935444668+937262469+941600073+950297939+961205197+962058294
1537+950679043+944838775+944294859+941879023+940593291+943375601+947657920
1523+952597444+955045390+952357207+948790161+944581901+941417516+943132256
1509+951611054+959250025+950160633+939888440+938193833+941013496+941250884
1495+937423016+936365092+939681283+940608375+935629815+929451946+924003852
1480+918226120+910604240+896147545+856601121+751646045+620625919+559661944
1466+574579822+618341239+652573379+681318648+707679025+722743725+732383312
1452+747701391+766377805+781446195+788829004+791975068+796002584+802840635
1438+813986058+826779996+835945260+842980110+847294668+847853667+847259192
1423+845648872+842839761+837382151+827868541+821798912+824250612+833767395
1409+845690950+856709166+865213988+870419385+874597931+878407415+879242840
1395+875314564+867200816+857981692+845346488+823956191+800920421+785106332
1380+771988776+757264913+750168305+760931912+783147276+803741961+818534574
1366+827915539+834933299+839031184+838109919+836645385+838443182+842415219
1352+846109407+848857212+849928342+847604691+842338895+837848189+837936943
1338+843520724+852117860+860721275+868326195+874819330+879748690+883289647
1323+885902218+887721637+888743049+889068156+889216985+889230386+888597004
1309+887413038+886181491+885273044+884634418+883346356+879775297+872550251
1295+862639418+853862897+849933392+851783431+857284868+863461895+868956793
1281+873334858+875942120+876677009+876583529+876991110+878111505+879056981
1266+879610478+880218936+880438523+879646730+877744319+874399643+869209136
1252+862910858+857697110+855575242+857334521+862074916+867004664+869649280
1238+869367999+866744553+862862564+858962968+856110678+854800217+855444733
1223+857577542+858016261+854360785+850816721+852300223+856243970+858554739
1209+858862885+858181857+857556697+857407285+857294708+856423484+854494207
1195+852465948+851822726+852533404+852486405+849704030+844339900+838130764
1181+833005705+830046017+829133297+829628791+831624034+835914251+841717683
1166+847016042+850690615+852136310+851077998+847868751+843178203+838102798
1152+833765388+831090605+830921578+833705183+839102847+845392321+850893693
1138+855166949+858290550+860519233+862039116+863164236+864284890+865254578
1124+865678278+865663065+865423281+865069043+864600416+863243344+859899575
1109+855478332+852580467+851118458+847533869+840491251+833461450+827737514
1095+817601721+793190236+742058440+657874845+575225374+558456875+611974081
1081+674884553+709313945+719907360+717394419+703016638+678392170+662793394
1066+678663157+718698212+757275336+782011668+795373734+802899998+806858700
1052+807197725+805230124+803433492+803361958+805600805+810727871+817844224
1038+824463336+829097110+831148091+830578345+827704239+821888377+814164796
1024+809128361+809807641+814444393+818983133+813336751+772304042+679028983
1009+574996855+531866263+564500479+628300625+682501708+718750713+744614367
995+764346115+778399631+788128684+795640319+801777144+806700872+811210416
981+815799910+819798748+822691304+824970741+826547333+826222421+823159802
967+816581150+805373968+791240050+780440125+779590588+788949090+802261697
952+813625800+821606256+827095457+830672343+832948090+834246963+834672993
938+835071317+836208543+838097878+840027478+841359561+842237129+842751655
924+843082134+843515545+843739275+843754164+844058490+844545438+844715760
909+844710387+844641572+844446391+844749488+845508135+845971518+845860948
895+844833580+842972795+840333876+835165314+825408036+811392261+796328921
881+782700594+769135774+755375838+746448999+746694803+752052978+754172127
867+751844915+751084779+755799150+765674896+779322903+794172936+806912625
852+815451175+819406769+819692062+817817488+815380288+813942685+815203234
838+819377119+824144444+827252508+827881164+824811295+816910594+803956433
824+784055529+752265897+701647008+633068856+570002499+545901167+568455815
810+614212604+658081743+692070150+719063973+742242422+762388224+778544058
795+790277288+798781786+804879705+809049771+811964208+814325795+816433875
781+817453992+816623164+814116243+810964741+808085715+805435015+803805986
767+804899515+809189990+814501490+818246173+820496090+821288464+819400748
752+815212880+809412490+801527196+792470108+784634273+780936848+782876159
738+788493151+795324016+802828788+810686245+815373491+811184522+801194710
724+798175400+805578471+815063079+820889623+822621195+821142160+816842621
710+809754687+799743577+786314379+769795762+750027568+726529839+703449078
695+685154997+671802901+664543480+665175891+672631140+683489586+693670630
681+700061417+701401721+697956963+691652664+684050140+675556906+668611716
667+667875144+669867539+672054144+675746195+680312643+685575267+692137411
653+699321543+708042909+720388352+735192294+748972816+760329280+770210982
638+779051916+786886844+793214513+797331365+799537197+800251305+800879831
624+803344673+806630180+808412958+808124363+807109554+807087025+806744893
610+802642024+793419209+780687095+766226386+752961231+744257345+741064023
595+742277703+745820602+750611491+756255348+762485200+769231584+776698550
581+785524918+795261092+803196362+807750833+811385788+815282407+817985997
567+819894947+821810953+822429963+822434300+823363010+824537589+826323863
553+828630489+829049010+827149253+826299652+827042827+827433317+827848472
538+827180197+824615661+822150107+821035021+821055931+819595734+814003408
524+806167573+799307253+793960860+789075455+783283805+777003653+772828797
510+770970859+767802137+759550824+741691967+708234399+662944683+628317651
495+627249757+654499613+674579255+662585072+638404049+635011792+657617906
481+690397359+719242452+739888279+757602191+775159634+788230709+796522871
467+803848194+809682635+810185638+810571014+818427759+823818496+818448798
453+813727371+814996077+814688449+811301501+811148593+815210161+820596431
438+827237878+836319113+844273027+845593198+842948065+841999676+839988960
424+835850874+837940438+845224330+842440661+831866861+826456573+825897897
410+825116722+820633137+820717942+831129188+838815287+837274947
##END=
