##TITLE=X9343
##JCAMP-DX=4.24
##DATA TYPE=INFRARED SPECTRUM
##DATE=5/11/2018
##SAMPLING PROCEDURE=ATR platinum Diamond 1 Refl
##ORIGIN=ComPlat
##XUNITS=1/CM
##YUNITS=TRANSMITTANCE
##RESOLUTION=4
##FIRSTX=3997.453
##LASTX=373.96442
##DELTAX=-1.4165319
##MAXY=1.0235896
##MINY=0.42419088
##XFACTOR=1
##YFACTOR=9.5329211e-010
##NPOINTS=2559
##FIRSTY=0.9443146
##XYDATA=(X++(Y..Y))
3997+990582620+990457695+990152260+989762479+989441350+989235831+989188749
3988+989395832+989846888+990359531+990697541+990724490+990543104+990400047
3978+990315388+990008453+989367696+988757701+988655848+989136103+989884153
3968+990617009+991259392+991662553+991550071+990971589+990362345+989953368
3958+989666253+989542516+989545205+989106904+987636189+985485202+984011487
3948+984279219+985646142+986461656+986163412+985810020+986410573+987705530
3938+988999486+989759853+989291353+987114230+984053504+982108349+982306428
3928+983575124+984382636+984444473+984608038+985214344+985381536+984377634
3918+982982012+983032782+985278995+988456268+990937262+992104105+991967050
3908+990236419+986335356+980461502+974507678+970959694+970526833+972443538
3898+975878978+979554513+981769838+981624405+980042146+979585463+981436142
3888+983490028+983371605+981055677+978574058+977131980+976678861+978017272
3878+981132083+983357912+982345006+978478582+974102140+971005837+970057645
3869+971478089+973434060+973688162+972672317+973335083+976921770+981061242
3859+983115878+982167310+977992450+970664513+964450085+965962816+972791928
3849+979493926+983622331+984434531+982038196+977459111+972382576+968286872
3839+966324461+967351998+970699089+974473164+977546521+979844504+981472969
3829+982283232+982268976+981753457+980448872+977023686+971315961+967023804
3819+967277593+969922465+972986818+977130104+982135860+986012289+987274294
3809+985728237+982560218+979842128+978001641+975441740+972184434+971309459
3799+974080007+978041344+981690244+985196712+988430383+990796956+992147247
3789+992626815+992105418+990619260+989112344+988451266+987953879+986638039
3779+985462256+986434708+989348751+991930848+992363522+990203468+986451590
3769+983214042+981839992+981944533+983009460+984527193+984968183+982989265
3759+979677062+978075483+978874240+979216628+976256816+969579453+962772787
3750+961244800+964139023+966741315+967402393+968037022+970558283+973544042
3740+974832058+973181209+968514964+963515148+963183077+968998720+976990673
3730+982766425+984398579+982279105+978799711+977027625+978126441+981031980
3720+984201751+986559445+987418852+986192111+982360575+976437764+971887253
3710+973023521+978780140+984852511+988727002+989835321+988856554+987776933
3700+988393305+990242421+991763093+992015132+990511529+986775595+981023477
3690+975592800+974470976+978467265+984264401+989077705+991557636+990991972
3680+987514016+981827737+974621098+968472509+967957178+971662288+973952080
3670+973944952+975997650+982130420+988995797+993745763+996041496+996644175
3660+996007920+994025500+991048432+988553057+987208768+984961055+979089577
3650+969454715+961957648+964083813+972970624+981637473+987330067+990324830
3640+991760717+992403725+992316878+991361307+989691451+987571414+984602536
3631+979879393+974797232+974525935+979959863+986037611+989147420+988137766
3621+983626895+978652339+976849992+977831010+978816467+979242826+980208838
3611+981403942+981605960+981724320+983913135+987622809+990156825+990180459
3601+988742133+987494383+986713695+985976649+985793451+987038450+988980603
3591+989351377+986546503+981900891+979855259+982428727+986630787+989653560
3581+991095763+991540192+991430585+991181735+991361370+992154813+992799384
3571+991758779+987626498+980818145+975411978+975914492+980856472+985779320
3561+988755200+990559111+992377715+993996926+994243150+992766433+990839848
3551+989994510+990002513+989385140+987757738+986718197+987913988+990835659
3541+993596578+994877967+994686327+994054199+994051636+994698270+995029528
3531+994275600+992705284+991326731+990821404+990985594+991368873+991911215
3521+992682462+993516921+994226143+994836825+995408367+995716303+995320957
3512+994177999+993131454+993188602+994085712+994472679+993699369+992679523
3502+992739735+993971854+995359660+996119652+996383945+996760096+997447809
3492+998032043+998128082+997876418+997664208+997488638+996897589+995764259
3482+994891035+995248615+996580774+997637135+997783006+997516712+997432115
3472+997448997+997272489+996950860+996752468+996882020+997357273+997941507
3462+998268200+998235687+998192733+998544374+999226460+999785746+999967882
3452+999851898+999378646+998349421+997045398+996171235+995958212+996029053
3442+996124779+996204123+996109585+995796147+995564242+995621202+995757319
3432+995710550+995523225+995376604+995315017+995205661+994827572+993985984
3422+992739485+991609282+991258391+991729455+992353768+992610370+992670332
3412+992932437+993442454+994029564+994674635+995375916+995831411+995607697
3403+994714026+993781215+993548872+994281290+995599819+996702886+996951173
3393+996505369+996234823+996767912+997825398+998659670+998931716+998944597
3383+999103473+999398716+999581914+999629121+999732412+999960816+1000222359
3373+1000453889+1000548489+1000260874+999530456+998795287+998645602+999188132
3363+999968632+1000460704+1000538110+1000580190+1001088456+1002023518
3354+1002688660+1002519904+1001747720+1001028307+1000742317+1000844796
3346+1001083766+1001185057+1000985790+1000484151+999825512+999281294+999081026
3336+999155369+999265850+999394277+999643752+999823199+999614240+999150617
3326+998972670+999351260+1000012650+1000570811+1000933206+1001227449+1001557706
3316+1001882899+1001996882+1001659059+1000889063+1000106562+999838142
3308+1000253183+1001004047+1001544514+1001598660+1001286348+1000857926
3299+1000446386+1000057793+999651317+999260411+999091843+999360513+999962504
3289+1000506473+1000717620+1000670288+1000646091+1000872057+1001339681
3281+1001796865+1001954740+1001739529+1001351499+1001085892+1001121844
3272+1001508186+1002203340+1002973336+1003432895+1003448464+1003322414
3264+1003399194+1003718885+1004137053+1004457493+1004461870+1004140429
3255+1003836119+1003940599+1004540339+1005374986+1005954156+1005864370
3247+1005225551+1004639629+1004490006+1004597299+1004699590+1004814261
3238+1004915177+1004713596+1004062835+1003316661+1002988655+1003181107
3230+1003590208+1004000310+1004456931+1004928557+1005181221+1005110005
3221+1004850463+1004450678+1003812673+1003104701+1002849036+1003363430
3213+1004310935+1005028785+1005250186+1005289639+1005495660+1005772958
3204+1005809035+1005554058+1005269819+1005230553+1005494784+1005849739
3196+1005974664+1005800157+1005629838+1005748448+1006007490+1006011429
3187+1005670167+1005322840+1005261503+1005366983+1005344224+1005119446
3179+1004885790+1004899421+1005273946+1005855241+1006347814+1006607480
3170+1006665691+1006475052+1005944527+1005266068+1004875098+1004971512
3162+1005298268+1005474901+1005387929+1005195914+1005080931+1005078305
3153+1005095249+1005061235+1005064487+1005293954+1005789652+1006306985
3145+1006469550+1006002550+1004895919+1003504236+1002409798+1001965995
3136+1001934232+1001673753+1000730312+999216393+997611687+996292096+995362724
3126+994778114+994356383+993773837+992886481+991999938+991524435+991466912
3116+991569954+991783914+992215900+992729481+993013907+993008030+992908552
3106+992845027+992867599+993133268+993712312+994289168+994390521+993850305
3097+992783440+991242510+989221700+986950977+984873332+983261186+982072647
3087+981280017+981117327+981803352+983184593+984859952+986490230+987836332
3077+988685610+988927895+988575879+987615306+985926067+983428878+980355897
3067+977422471+975543906+975118173+975691340+976488534+977054699+977321681
3057+977437977+977624677+977934551+978204347+978416182+978830848+979596718
3047+980547098+981520363+982578287+983871868+985499771+987413350+989293791
3037+990688225+991418205+991734707+992003377+992377402+992830834+993342414
3027+993911830+994482933+994963376+995252117+995224856+994855458+994348442
3017+993969665+993801848+993837237+994167870+994871902+995833912+996808303
3007+997596619+998156593+998592080+998967481+999157744+999029756+998650541
2997+998098195+997229159+995888309+994198444+992373526+990307385+987505512
2987+983426690+977905290+971283011+964116263+956762316+949208101+941099727
2978+931881845+921229513+909623237+898402615+889101512+882654053+879033165
2968+877503614+877363371+878580671+881655778+886835917+893472577+900016324
2958+904601287+905904121+903735315+898881932+892411151+885174876+877891457
2948+871388601+866464565+863460924+862077182+861617998+861377401+860850940
2938+859808335+858384702+857087995+856474999+856721535+857636902+859068226
2928+861052146+863612360+866636572+869957903+873453866+877092012+880869588
2918+884695434+888465445+892273846+896366111+900912808+905959831+911452157
2908+917175263+922831343+928208060+933134222+937362916+940679558+943082834
2898+944826283+946315254+947834801+949211978+949785645+948774928+945649550
2888+940258452+932882808+924320064+915805652+908623649+903560307+900506583
2878+898530166+896600143+894554323+893367409+894322792+897896912+903430630
2868+909721839+915784081+921070637+925281262+928282215+930189792+931272788
2859+931715341+931615113+931202948+930900702+931096718+931923612+933345306
2849+935373994+937978476+940823991+943384892+945301911+946445494+946855408
2839+946894549+947228558+948392087+950457164+953109977+955928920+958669393
2829+961354844+964018662+966465955+968448875+969940160+971092997+972066074
2819+972966310+973856667+974770846+975736858+976762394+977808188+978808089
2809+979704261+980473631+981120766+981632221+981962541+982124543+982254345
2799+982529393+983021215+983638775+984223822+984723272+985240792+985894366
2789+986654108+987363018+987898295+988276008+988616958+989040065+989579968
2779+990142944+990585997+990900310+991224378+991580833+991777287+991719826
2769+991619723+991727267+992044331+992422545+992784940+993124389+993388620
2759+993496413+993486722+993556625+993868250+994351131+994737598+994777927
2749+994474242+994148487+994167995+994567717+995076109+995485023+995800712
2740+996100207+996465165+996968680+997530155+997875731+997797324+997391599
2730+996945233+996643612+996465791+996309415+996135471+996002355+996011671
2720+996214502+996546573+996866264+997040521+996999379+996794672+996635984
2710+996752468+997175575+997719793+998150778+998333352+998319471+998362613
2700+998741640+999468181+1000206415+1000567559+1000496156+1000273754+1000109939
2690+999900917+999506697+999028943+998604398+998153342+997587740+997067532
2680+996814555+996814618+996896026+996978871+997087915+997237350+997449873
2670+997800826+998291960+998739202+998938844+998924338+998906894+998988051
2660+999102660+999272165+999713280+1000557993+1001585530+1002386726+1002759313
2650+1002830404+1002809333+1002766253+1002705729+1002716108+1002895367
2642+1003219872+1003635977+1004174005+1004812573+1005387429+1005792528
2633+1006079143+1006213885+1006014305+1005513917+1005136328+1005274884
2625+1005845425+1006428471+1006732530+1006771233+1006713585+1006733406
2616+1006905412+1007093925+1007061037+1006774735+1006426908+1006112219
2608+1005752262+1005372110+1005189474+1005379738+1005897758+1006513380
2599+1006958121+1007094988+1006965749+1006696578+1006475302+1006537077
2591+1006902723+1007212785+1007126751+1006803309+1006700330+1007027086
2582+1007653462+1008376001+1009008380+1009375277+1009478756+1009557725
2574+1009775312+1009979331+1009974580+1009891921+1010030289+1010433201
2565+1010875566+1011206323+1011461488+1011655816+1011717528+1011633870
2557+1011505255+1011459675+1011637496+1012138884+1012821658+1013266586
2548+1013186242+1012781142+1012433377+1012173336+1011745852+1011133419
2540+1010688303+1010680487+1010915957+1010924773+1010489661+1009839088
2531+1009259543+1008747088+1008232756+1007871549+1007796269+1007858544
2523+1007943703+1008252639+1008922658+1009610559+1009804636+1009447743
2514+1009049396+1009219402+1010114948+1011261533+1011957687+1011961126
2506+1011715965+1011821695+1012351845+1012805151+1012768574+1012532792
2497+1012785956+1013673937+1014584990+1015024416+1015226372+1015665548
2489+1016440796+1017309332+1017904132+1017883062+1017286010+1016691021
2480+1016656883+1017102749+1017509099+1017577627+1017418813+1017202664
2472+1016920426+1016520515+1016107037+1015899579+1016036509+1016414598
2463+1016746043+1016888288+1017093495+1017727499+1018747658+1019688598
2455+1020186172+1020323102+1020442150+1020767843+1021219899+1021485943
2446+1021268793+1020560447+1019705479+1019125810+1018946675+1018969247
2438+1018956804+1018781672+1018388827+1017869619+1017477587+1017340344
2429+1017306268+1017240679+1017226361+1017321086+1017421064+1017491530
2421+1017657471+1017962343+1018247708+1018368256+1018407584+1018557957
2412+1018786299+1018796865+1018455041+1018053380+1017938084+1018099148
2404+1018364692+1018703203+1019061846+1019201277+1018982752+1018618481
2395+1018403395+1018349248+1018278533+1018186621+1018264152+1018569524
2387+1018945112+1019339270+1019938323+1020859254+1021979766+1023205445
2378+1024640082+1026350205+1028268786+1030491740+1033301116+1036627574
2370+1039804159+1042144535+1043613498+1044770650+1046099245+1047428903
2361+1048080789+1047543824+1045752668+1042850005+1039212110+1035498559
2353+1032238877+1029691857+1028199133+1028199571+1029850420+1032695811
2344+1035743157+1038196640+1039919643+1040947117+1041210160+1040832196
2336+1040195816+1039621524+1039162965+1038725477+1038200767+1037429895
2327+1036315886+1035126785+1034400806+1034328090+1034367918+1033768115
2319+1032382310+1030646302+1028872403+1026975268+1024941328+1023199380
2310+1022212234+1021903485+1021814637+1021649884+1021420979+1021274046
2302+1021375274+1021753550+1022152085+1022302395+1022387179+1022876250
2293+1023830508+1024749688+1025242198+1025484170+1025828871+1026247476
2285+1026412292+1026239973+1026153814+1026642134+1027549998+1028101157
2276+1027830923+1027175598+1026876666+1027129330+1027580198+1027920459
2268+1028301549+1029199472+1030788171+1032476848+1033316809+1032898267
2259+1031718481+1030740527+1030636735+1031387849+1032545750+1033687395
2251+1034498220+1034764890+1034604951+1034497845+1034927455+1036031772
2242+1037485543+1038713410+1039470651+1040099465+1040989572+1042079571
2234+1043089288+1043810077+1043995464+1043497202+1042752779+1042637295
2225+1043454435+1044420259+1044578698+1043940630+1043200020+1042622476
2217+1041882430+1040808437+1039714436+1039082808+1039190226+1039832921
2208+1040347440+1040226141+1039763205+1039796219+1040765670+1042358808
2200+1044030916+1045466116+1046608261+1047591593+1048587242+1049488103
2191+1050010437+1050173628+1050275543+1050425103+1050533522+1050619056
2183+1050829015+1051330841+1052146168+1052850575+1052792052+1051946338
2174+1051167776+1051154020+1051525294+1051459143+1051004336+1051084993
2166+1052241456+1054108955+1056150273+1057811439+1058066416+1056501664
2157+1054759716+1054734455+1055978954+1056543180+1055355079+1052995258
2149+1050658447+1048918375+1047684380+1047027679+1047381071+1048655081
2140+1049782596+1049793475+1049121206+1049089818+1050112853+1051218671
2132+1051398368+1050566160+1049148092+1047606724+1046512973+1046376356
2123+1047055753+1047707952+1047683755+1047279405+1047235012+1047625106
2115+1047719582+1046967655+1045690018+1044640973+1044214052+1044277265
2106+1044561941+1044901140+1045184003+1045421911+1045815631+1046411870
2098+1046891687+1047092018+1047308792+1047645052+1047705201+1047407269
2089+1047360062+1048017639+1049033671+1049727449+1049811858+1049612528
2081+1049766339+1050613054+1051872934+1053045904+1053894494+1054447090
2072+1054948666+1055767995+1056802784+1057169056+1056145396+1054365683
2064+1053422305+1054093198+1055511892+1056414879+1056654100+1056856931
2055+1057157927+1057237459+1057106156+1056834047+1056152149+1055277423
2047+1055248536+1056386367+1057500939+1057591851+1057333497+1058074294
2038+1060108234+1062761047+1065507898+1068001773+1069517880+1069507001
2030+1068347161+1066898455+1065838781+1065318072+1064525254+1062378644
2021+1059392947+1057630866+1058199719+1059874265+1060685090+1060274551
2013+1060060340+1061237061+1063342530+1065118742+1065979962+1065737990
2004+1064007547+1061032104+1058118812+1056618711+1056979730+1058609133
1996+1060267298+1060914932+1060364087+1058976405+1057289730+1056434262
1987+1057893847+1061697871+1065606938+1067458055+1067732165+1068373922
1979+1069754975+1070464009+1069864269+1069041314+1069029810+1069527634
1970+1069505500+1068646906+1068038037+1068964658+1071152160+1073099691
1962+1073741823+1073005153+1071349614+1069442600+1068028033+1067463182
1953+1067263852+1066598710+1065330077+1064121467+1063526729+1063385548
1945+1063210978+1062980760+1063252994+1064174114+1064952801+1064942922
1936+1064524254+1064456727+1064839880+1065186144+1065175640+1064842506
1928+1064079201+1062444921+1059991687+1057993637+1057762294+1058778826
1919+1059496364+1059566517+1059979432+1061202047+1062392399+1062500693
1911+1061483160+1060502892+1060766873+1062309741+1064216506+1065551416
1902+1065888426+1065368467+1064350559+1063132821+1062183316+1062044885
1894+1062434291+1062198572+1060847155+1059476981+1059494863+1060802762
1885+1062370891+1063703675+1064718457+1065198024+1065224409+1065465256
1877+1066318348+1067282984+1067414537+1065850285+1062142674+1057268221
1868+1054270019+1055412477+1059120213+1062441169+1064005546+1064122968
1860+1063781706+1063726184+1064123343+1064715956+1065117867+1065033833
1851+1064274029+1062768175+1060703723+1058411804+1056315589+1055501513
1843+1057057011+1059972054+1062142049+1062695396+1062203449+1061517549
1834+1060517898+1058136444+1053923255+1049764589+1048532407+1050050578
1826+1052062385+1053939637+1056337223+1059027676+1061097130+1062196821
1817+1062665259+1062780180+1062184816+1060423736+1058051535+1056559062
1809+1056683862+1057573593+1057832072+1056404375+1052960620+1048360526
1800+1044355108+1041960461+1040501939+1038576042+1035242018+1031026141
1792+1028639372+1030226946+1033823512+1036232978+1036389041+1035200877
1783+1033796564+1032509486+1031693721+1031656707+1031435931+1029433003
1775+1024977030+1018967183+1014127807+1012732685+1013568832+1014358962
1766+1014146251+1012380294+1008689940+1004294803+1001471359+1000292074
1758+999165373+997720731+996067256+993082122+987286987+979006981+971516792
1748+967508811+965481748+962798485+958672207+953196012+946075783+937782147
1738+929439679+919752296+904950176+884573510+865883520+851915422+837617567
1728+819243703+795547144+765295770+729328230+693308294+662134926+633852904
1718+603575832+574137284+556185465+551086796+552719013+556980221+561452826
1708+564085631+564148343+563098485+563121244+564986492+568687725+574539570
1698+582799693+594094032+608860200+624520351+638042333+649722264+661081566
1689+672067344+681472801+689896802+701077846+716442691+731363171+743276257
1679+752470567+759836894+767053724+775264015+783017685+789015213+795358193
1669+805010311+816245314+825412550+831860322+837441809+844270295+851779555
1659+857481465+859863857+858903347+856798004+860637292+871869106+880456423
1649+883978147+886906945+894527124+905121620+913258194+917207651+917147065
1639+913173535+905090733+893859169+882988750+872835618+858615357+835806778
1629+802968055+764110357+725357764+687379481+648624449+613896781+587922934
1619+565582356+537415880+502689869+473701720+456679836+448011831+444974707
1609+447039097+453230297+461476696+470015680+478610375+488132222+499323926
1599+512362902+527013774+542704374+558811955+574865451+590532730+605870752
1589+621235535+636599817+651523673+665825405+679664264+692899255+704668910
1579+714079244+721830850+731083934+743478401+754835202+761671630+764448180
1570+765572756+767346467+769521776+770718255+770461090+768476920+764094726
1560+759782248+765576132+781434988+797437964+811372111+823120507+832724856
1550+841191061+848537693+853196685+854438308+853506309+852577124+855490292
1540+868036320+885864152+899043809+906554632+912333761+920166025+929060714
1530+935339543+938073139+938925668+939473262+939279247+937902820+937299704
1520+938723962+940288902+941712535+944990786+949552614+951919500+949491402
1510+941491008+927839225+911221252+898575122+887055255+867345543+835584814
1500+794267818+754361638+734099205+743035911+768633482+795056947+818358911
1490+841751036+867597644+892946366+913249252+925932523+929461812+922913188
1480+906383688+880167432+844249349+800757419+756065133+719599581+698845764
1470+690985989+686987011+682019270+676437283+672174450+668331534+661685371
1460+650287678+633852404+616468562+608236075+609812332+613452165+617230305
1451+624230735+638854283+662571664+690527242+716023460+736839303+753672299
1441+766804124+776242032+782816792+788031507+792322289+794150334+791592746
1431+783145736+768382757+748439889+724997619+701097916+682750125+675283008
1421+679785562+695693438+720011434+745239857+766510507+783794496+798295432
1411+810989833+821751771+828695241+829299233+823109190+813934888+807250646
1401+806066860+811120322+821013600+831552073+837550540+835001643+823247307
1391+806013213+790117342+784000016+792547629+810523521+827906737+838843871
1381+842014766+838877884+832114048+822838894+809367057+789689984+764459122
1371+734860947+699979343+660682844+623013247+593994993+578141326+578754072
1361+595176341+620475980+647747597+674042136+698472364+720300487+738447010
1351+752206336+762457820+771813757+783085837+797194179+812392895+825897119
1341+836517001+845559687+855022479+865115775+874610580+882920910+890558284
1332+898192468+905887615+913174160+919552716+924652322+927843351+927785828
1322+922369095+909359569+888180893+861731106+835194533+812488496+794937274
1312+783157116+778839323+783607546+795950555+810118921+819571334+822373645
1302+822899105+827779436+840140890+857845486+876441626+892654999+905387289
1292+914896163+921898906+927050846+930567318+932136634+931533643+929646324
1282+928715701+931079023+937484903+946759182+956948453+966532982+974817427
1272+981739014+987545403+992470377+996555889+999764425+1002179143+1004001373
1262+1005432197+1006620048+1007585059+1008107519+1007773197+1006115595
1254+1002766253+997691907+991185487+982979886+970930307+950746843+917492390
1244+868430978+806669038+743800405+697706620+683682624+704178463+746554134
1234+791516278+824226762+839174128+837989528+824825815+802743653+772398304
1224+733839663+690147465+648766131+618483182+605171597+610123519+630864331
1214+662316311+697993860+731833734+759865281+780573580+793991770+800198695
1204+798364960+787697498+769379031+746165978+719420384+688762723+656545248
1194+630469861+618662879+622941343+639097943+662527083+691046763+723210153
1184+756692259+788803316+817426537+841239893+859496460+871639139+876766819
1174+873016941+857541739+827958508+784480583+730570353+671763535+614493583
1164+565467310+530253322+511414272+508393561+519180728+541328198+571442767
1154+604578359+634620149+655978709+666697567+670946332+677210218+692302954
1145+716756754+745875549+774117368+797775224+814782290+824105651+826124836
1135+822894166+817415783+812700393+811083495+812990072+815333073+811604016
1125+794768081+761377137+714301958+662155997+615111393+579874709+557958738
1115+547614280+545911035+549279447+554177660+558744240+563726049+570978206
1105+580222223+587266671+586416080+575165821+556243425+535703319+520202200
1095+515072238+522376728+539880993+562758161+586748276+609736614+631149758
1085+650868036+668776775+684772248+698806623+710884901+721065106+729446090
1075+736092191+740894615+743356352+742419289+736837677+726593259+714558123
1065+706155881+706065157+714732631+728380350+742202765+753169660+760362418
1055+763749212+762988845+757138375+745465135+728687286+709611891+692775018
1045+683122275+683871762+694615818+711417364+729083882+743354539+751263646
1035+751076696+743727313+734166607+729345487+733494150+745434810+760552556
1026+774749183+786409857+795738658+803444996+810124173+816178725+821842870
1016+827213835+832264234+836871142+840879124+843901397+844758491+841446226
1006+832659517+819973996+808045152+801789083+803177889+810826079+821890826
996+833480346+842741933+846761731+842983717+830669907+813266620+798658078
986+794560248+802604284+817769550+833496540+846279163+855904145+863311301
976+869171337+873794190+877466787+880571469+883479634+886445510+889578578
966+892855329+896140896+899187429+901564382+902613865+901502232+897277289
956+889012789+876511091+861458246+847681913+839423478+838695811+844004376
946+851198072+855358114+852863677+843476039+831269773+822607989+821906020
936+828930398+840020029+851220206+859877925+864124065+862391120+854516089
926+843311474+834019875+831054624+834845768+841744095+846666818+846266533
916+841023432+834932553+832330198+834572159+840116693+847115623+854383598
907+859848226+859681847+850021288+829637681+801170710+770129394+742509825
897+722680691+712678307+712545879+720756795+734629855+751136783+767876679
887+783523450+797558762+809831243+820422425+829591412+837539098+844356392
877+850283518+855695437+860711197+865164919+869046475+872635538+876152885
867+879566628+882757282+885601922+887886025+889419015+890226276+890308934
857+889322788+886984726+883766874+880854520+879508230+880437165+883363713
847+887167612+890557658+892403773+891766268+887758724+878306999+859753938
837+830837787+796577932+764225903+736544622+713284738+695695501+683284340
827+669778364+649001100+621887233+592892426+563485078+534212346+510300013
817+500636859+511453694+542225432+586183800+632303658+666762343+676236265
807+654854446+610086754+560265475+523987529+510192438+516716991+536283926
798+562583841+591983812+622489100+652807563+681976315+709041600+732981382
788+753017974+768780104+779952269+785848257+785540258+778620985+765836549
778+748722440+728798830+707999807+690227310+681205444+685100380+700962612
768+723124869+745164702+763603279+778859080+793433609+808853539+824028996
758+836328300+843453405+844326068+839919552+834152365+832231658+836237076
748+842534162+844636942+839293988+830004953+824313985+827322628+837986339
738+851453924+863732408+873525645+881145074+887261212+892404836+896784216
728+900508459+903987853+907706031+911611284+915158580+917910433+919786310
718+920939209+921742156+922702729+924088471+925671856+926931611+927536854
708+927724804+928141221+929181513+930672548+932305327+934052652+935996369
698+938017054+939829092+941237657+942258003+942915517+942869561+941052583
688+935925403+927343026+918688745+915419435+920215982+930491475+941354891
679+949816658+955553832+958995524+959873063+957176920+947786469+923021857
669+875539577+827766556+814184238+831393260+860390568+887582716+906898332
659+919463118+928630917+935849873+941153936+944564490+946318318+946590490
649+945485922+943247150+939687723+932715054+917347020+887174177+840176842
639+786300813+746950543+741409509+771367015+820064657+867173912+902075087
629+924140492+935499107+935067684+918970108+888051904+854302754+835529167
619+841472174+866316443+895311126+917463504+930726007+937943837+942275885
609+945847254+949528855+953052704+956029585+958799820+961954897+965581663
599+969355613+972751099+975040704+975927434+976170219+976853118+978228107
589+979820932+981098945+981527679+980694532+978973280+977790806+978761258
579+982215392+986765778+990563300+992609620+992944504+992382967+992121612
569+992595302+992469627+989543704+982524641+971323277+956404173+938779109
560+920649531+905710356+897921422+898883933+906499110+916846319+926996199
550+935689871+942524235+947688430+952048740+956574241+961624702+966897878
540+971704430+975355268+977805437+979770850+981719881+983066296+982905168
530+981245253+979015797+977082022+975345764+972539389+966944334+956847100
520+939853915+912819393+874792027+830745750+790302604+762781762+753571759
510+762653461+785618915+815803262+845958222+871114554+890892855+907924368
500+924116733+939039088+951214780+959801722+965253157+968758749+971419565
490+973952831+976291018+977345003+975889169+971738443+965332313+955957056
480+941761054+923138216+905706292+897195694+900599996+911422020+920082178
470+917495829+899950423+871162635+842766193+828490784+834255907+854736427
460+879165780+900200335+916512935+928089012+933504057+932620578+927899124
450+922379912+917753745+915230046+916383946+921846448+930684803+941304371
441+951973710+961172209+968019140+972414464+974787415+975429297+974512993
431+972791678+970934308+968177141+963481447+958275110+955770669+956663276
421+958866409+962374128+969938097+979563204+985931256+987168002+985473010
411+984301603+984394953+983902381+981657481+977872777+972746785+966809218
401+962517873+964201610+973791578+985537223+994273912+1003216183+1015075561
391+1026371088+1031308942+1027851056+1018341308+1005030848+987936560+968650956
381+952195048+943316990+943519696+949784207+953796127+948786307
##END=
