##TITLE=HMS-Q595
##JCAMP-DX=4.24
##DATA TYPE=INFRARED SPECTRUM
##DATE=2/12/2022
##SAMPLING PROCEDURE=Diamant-ATR
##ORIGIN=Angelika Moesle
##XUNITS=1/CM
##YUNITS=TRANSMITTANCE
##RESOLUTION=4
##FIRSTX=3997.453
##LASTX=373.96442
##DELTAX=-1.4165319
##MAXY=1
##MINY=0.43986806
##XFACTOR=1
##YFACTOR=9.3132258e-010
##NPOINTS=2559
##FIRSTY=0.99897617
##XYDATA=(X++(Y..Y))
3997+1072642495+1072655487+1072822271+1073249663+1073691263+1073741823
3989+1073266687+1072511359+1071702015+1070869759+1070170047+1069841855
3980+1069700223+1069295871+1068731327+1068618367+1069064575+1069430463
3972+1069368703+1069350527+1069815679+1070435199+1070561855+1070016831
3963+1069185727+1068569983+1068365695+1068395519+1068386175+1068209663
3955+1067868415+1067403519+1066949503+1066830463+1067384191+1068430719
3946+1069162751+1068998079+1068189375+1067304895+1066545343+1065876671
3938+1065275455+1064510783+1063337919+1062177279+1061935807+1062764287
3929+1063703423+1064028095+1064006655+1064181631+1064536191+1064576063
3921+1064060863+1063363263+1063235455+1064115711+1065487423+1066437503
3912+1066794559+1066990207+1067003903+1066284543+1064957055+1064270271
3904+1065080831+1066257215+1066353407+1066030207+1066377791+1066625407
3895+1065549055+1063593599+1062655807+1063848319+1065535103+1065646271
3887+1064549247+1063774335+1063474879+1062955967+1063111231+1064936767
3878+1066567103+1065836607+1063612799+1061847231+1060962879+1060758079
3870+1062022783+1064406591+1065694655+1065371007+1065108479+1065852607
3861+1066548287+1066127103+1064582271+1062285503+1060100479+1060096447
3853+1063530943+1066820863+1067129535+1065916671+1064757183+1064087871
3844+1063939263+1064197695+1064388479+1064252927+1064426303+1065413759
3836+1066301567+1066177983+1065557055+1065267071+1065139199+1064617151
3827+1063946367+1063475263+1062582783+1060995135+1060361215+1061942591
3819+1063458303+1063149375+1062785983+1063903679+1065086143+1064722687
3810+1063035455+1061344191+1061179519+1062503359+1063247615+1062911743
3802+1063538943+1065623679+1066452031+1065146687+1063623679+1062963455
3793+1062561215+1062177279+1062353535+1062962495+1063025407+1062184447
3785+1061268799+1061039615+1061331135+1061832959+1062497087+1062853695
3776+1062282303+1060989631+1059725951+1059167487+1059770303+1061267391
3768+1062516543+1062952575+1062951935+1062435519+1060969791+1059195135
3759+1058504895+1058925183+1058790975+1057231295+1055046207+1053931071
3751+1055392511+1058199615+1059276287+1058614783+1058792575+1060928639
3742+1062149951+1060311615+1056754815+1053730111+1053152895+1055656575
3734+1059475583+1062003327+1062306879+1060908223+1058876735+1057493055
3725+1057465279+1058193471+1058759999+1059082111+1059261247+1058924287
3717+1057657919+1055538111+1053460031+1053183167+1055721535+1058938495
3708+1060089343+1059396671+1058348799+1057937855+1058648191+1060166719
3700+1061267199+1061187071+1060284863+1059125887+1057813055+1056148479
3691+1054338239+1053652927+1055343551+1058026623+1059242239+1058685695
3683+1057468223+1056331135+1055070975+1053482495+1052840511+1055149183
3674+1058605119+1058553471+1055370367+1053433087+1055065215+1057569407
3666+1058389119+1058121599+1057890815+1057711295+1057103551+1056353343
3657+1056522751+1057646015+1057674815+1055357759+1052423231+1052035199
3649+1055349695+1058895167+1059581759+1058282431+1056769535+1056137087
3640+1056536703+1057043455+1056633599+1055533183+1054810367+1054631679
3632+1054169407+1053714303+1055315519+1058930559+1060915135+1060014271
3623+1057856127+1056061823+1055645247+1056771839+1057951999+1057566655
3615+1056219071+1055544767+1055945535+1056601919+1057115519+1057615999
3606+1057762431+1057104191+1055877055+1054755391+1054280703+1054475967
3598+1054859007+1054992575+1054978559+1055101311+1055066943+1054426495
3589+1053703871+1054165439+1055762943+1056566463+1055789759+1054591039
3581+1054027519+1053951807+1053575167+1052669055+1051912511+1051920575
3572+1052278975+1052197503+1051921407+1052626047+1054483839+1055740031
3564+1055300031+1054035391+1052986751+1052362687+1051986047+1051888319
3555+1052239231+1052952447+1053579967+1053658687+1053197695+1052718335
3547+1052760447+1053290751+1053646399+1053305407+1052450111+1051614975
3538+1051113855+1050849087+1050504831+1049863679+1049019775+1048343871
3530+1048197823+1048539903+1048833535+1048591615+1048014911+1047805439
3521+1048308543+1049129919+1049669631+1049698623+1049379775+1049030591
3513+1048896895+1049020799+1049351231+1049910399+1050568639+1050885055
3504+1050579967+1049898687+1049167231+1048441215+1047917311+1047968063
3496+1048457151+1048715007+1048437119+1047977855+1047686143+1047516223
3488+1047331135+1047238079+1047519743+1048296767+1049309183+1050100223
3479+1050416575+1050275455+1049758271+1049007359+1048354943+1048187519
3471+1048596351+1049241663+1049650751+1049630719+1049308799+1048843263
3462+1048279423+1047648191+1047008959+1046423103+1046002239+1045882687
3454+1046065727+1046363391+1046559551+1046609663+1046683135+1046956671
3445+1047351551+1047668607+1047915199+1048166207+1048236991+1047895295
3437+1047254527+1046568063+1045890111+1045310399+1045165631+1045609215
3428+1046267263+1046635647+1046599295+1046457343+1046624895+1047286271
3420+1048114111+1048441279+1047915775+1046885503+1046035839+1045767551
3411+1046024767+1046558015+1047081599+1047271423+1046980479+1046515007
3403+1046349567+1046529343+1046703551+1046694655+1046604095+1046430335
3394+1046044671+1045518783+1045106623+1044950079+1045061631+1045486975
3386+1046259839+1047222335+1048018431+1048345663+1048202815+1047842111
3377+1047517823+1047332991+1047246463+1047178303+1047202175+1047536703
3369+1048119423+1048404927+1047957567+1047047807+1046309951+1046033599
3360+1046082495+1046217791+1046224127+1045915519+1045249471+1044409791
3352+1043695359+1043308479+1043228159+1043286079+1043302015+1043068799
3343+1042397759+1041398399+1040469823+1039739519+1038825151+1037438527
3335+1035811071+1034241471+1032657343+1030811071+1028452415+1025264767
3326+1021078143+1016097023+1010610751+1004664959+998208575+991242495+983683519
3316+975410303+966564479+957545279+948552447+939305919+929485695+919508799
3306+910607615+903918655+899622399+897059135+895437759+894241727+893223487
3296+892475583+892534207+894082239+897398655+902102591+907349951+912343423
3286+916891391+921370879+925989311+930448191+934529983+938435007+942213503
3276+945455807+947857663+949618623+951105535+952533247+954110655+956111423
3267+958551039+960927167+962559295+963242175+963382399+963501311+963891199
3257+964745471+966207167+968124799+970071935+971796543+973440191+975230207
3247+977177471+979102975+980720063+981742655+982228415+982755711+983911359
3237+985628991+987339967+988660479+989590015+990220095+990671039+991229823
3227+992127103+993164031+993921087+994333247+994715967+995273023+995970751
3217+996814143+997827519+998810815+999421055+999454527+999029503+998611327
3207+998646527+999006015+999124351+998724031+997944639+996916671+995848959
3197+995353919+995959999+997340671+998531391+998888255+998548159+998045311
3187+997782655+997889855+998259775+998572863+998586111+998494335+998677375
3177+999080575+999293183+999260543+999407551+999993983+1000766271+1001356735
3167+1001749951+1002192895+1002793919+1003402303+1003890239+1004377727
3159+1005055999+1005837567+1006355647+1006387007+1006142143+1006008319
3150+1006162431+1006543935+1006977599+1007194623+1006942719+1006151423
3142+1004951359+1003683583+1002826687+1002596927+1002715071+1002832511
3133+1002898623+1002947455+1003014591+1003312639+1003957375+1004632511
3125+1005055743+1005474495+1006215231+1007061503+1007460223+1007109695
3116+1006181631+1005075711+1003961727+1002631423+1000917759+999051647+997434943
3106+996346239+996015487+996555839+997606719+998505599+999087871+999879935
3097+1001236351+1002736319+1003734399+1004124479+1004198591+1004001791
3088+1003147903+1001236159+998398911+995393855+993022655+991508351+990699967
3078+990683647+991585023+992799871+993171967+992146111+990180351+987835135
3068+984938303+980868543+975490943+969834367+965735295+964310655+964709119
3058+964904447+963860095+962410367+961932863+962889599+964882431+967398847
3048+970095423+972787711+975464447+978116479+980495743+982209855+982959487
3038+982550655+980936703+978492159+976059455+974539647+974414655+975504319
3029+977077247+978355775+979033407+979295999+979459711+979746431+980283007
3019+981089983+982030591+982886975+983611967+984495103+985926335+987936895
3009+990100095+991826047+992671423+992592127+992065215+991658943+991419199
2999+991056255+990636287+990548991+990909823+991559551+992515391+993868287
2989+995357183+996504767+997104767+997307263+997378815+997555903+997936063
2979+998328895+998381759+998003583+997506303+997184767+996926463+996426239
2969+995629375+994719295+993793663+992850111+992052607+991723711+991999679
2959+992625663+993129855+993166527+992731583+992128383+991732927+991744063
2949+992084607+992501119+992808319+993058175+993412543+993881407+994282047
2939+994379583+993921855+992721343+991006975+989491071+988666367+988215935
2929+987562175+986727295+986139711+985877887+985665919+985392703+985174783
2919+985058431+984973311+984910463+985015359+985504319+986435199+987572095
2910+988576831+989308415+989902527+990622527+991606463+992683263+993541311
2900+994079359+994421439+994674943+994933311+995379967+996113791+996966207
2890+997667455+998095615+998333887+998626751+999201471+999938367+1000311551
2880+999893503+998875519+997893631+997352063+997114047+996878847+996613823
2870+996479167+996494783+996478719+996247743+995742207+995047743+994406527
2860+994072703+994020351+993932159+993596223+993149887+992830655+992698751
2850+992714111+992873087+993158399+993480127+993731647+993864703+993939455
2840+994099071+994436479+994920959+995509823+996215167+996993471+997725375
2830+998388223+999078527+999778687+1000286399+1000467199+1000441599+1000458239
2820+1000674687+1001083071+1001523327+1001771455+1001707263+1001415679
2812+1001082751+1000839615+1000739583+1000794047+1000948031+1001067199
2803+1001013823+1000769343+1000459967+1000185663+999798271+999018943+997900863
2793+996959871+996598847+996579327+996368127+995868799+995471231+995449279
2783+995664831+995879615+996022527+996078591+996024127+995986175+996208831
2774+996752831+997368575+997706111+997594815+997180543+996826943+996809791
2764+997082367+997356031+997354431+997019071+996588927+996459263+996840895
2754+997540287+998134719+998392447+998502143+998831615+999463295+1000101119
2744+1000453695+1000509119+1000389951+1000173951+999941311+999795711+999708223
2734+999469375+998937279+998272703+997798143+997667839+997762239+997844863
2724+997775295+997651583+997719167+998044863+998392191+998513471+998404351
2714+998199679+998027711+998012991+998227263+998573631+998855359+999007423
2704+999146431+999334207+999430143+999298367+998982527+998544959+997955007
2694+997292927+996815871+996709631+996955199+997430335+997965375+998368639
2684+998540735+998550847+998576319+998758079+999055679+999268351+999247935
2674+999035455+998767871+998525823+998297471+998060863+997856639+997702015
2664+997506239+997227007+996986175+996828863+996575679+996154303+995846975
2655+995953599+996401151+996892415+997300543+997736575+998299903+998931199
2645+999513215+999971647+1000268415+1000447359+1000651711+1000955391+1001251455
2635+1001446399+1001645375+1002020543+1002602431+1003259455+1003777535
2626+1003919871+1003528511+1002681087+1001709503+1000979455+1000665919
2618+1000739967+1001026239+1001268223+1001322047+1001265343+1001183039
2609+1001013119+1000729151+1000436927+1000258111+1000329791+1000750143
2601+1001280511+1001438591+1001106431+1000658751+1000422527+1000422399
2592+1000600959+1000830271+1000837311+1000525375+1000262527+1000559679
2584+1001550591+1002882815+1004023295+1004679551+1004946879+1004965439
2575+1004623999+1003917695+1003266239+1002922111+1002387647+1001092415
2567+999403199+998329727+998392063+999200191+1000017599+1000484159+1000795967
2557+1001240831+1001690239+1001757759+1001369471+1000896767+1000731327
2548+1000941247+1001366527+1001850879+1002223231+1002236415+1001841791
2540+1001431423+1001441855+1001826367+1002267647+1002748607+1003519167
2531+1004571199+1005436607+1005590655+1005029887+1004375231+1004284799
2523+1004798591+1005375295+1005509823+1005171455+1004683583+1004350335
2514+1004273471+1004425791+1004726591+1005031679+1005186111+1005157055
2506+1005068799+1005080767+1005165375+1005058623+1004627903+1004229631
2497+1004348351+1004897215+1005294655+1005280447+1005256063+1005622271
2489+1006084799+1005987711+1005237375+1004442879+1004101695+1004117759
2480+1004183103+1004139327+1003902079+1003498175+1003206655+1003310335
2472+1003755775+1004294719+1004778495+1005118975+1005170751+1004912255
2463+1004606271+1004551679+1004731903+1004889855+1004859711+1004662719
2455+1004426303+1004383039+1004735103+1005317183+1005610047+1005281983
2446+1004532543+1003780543+1003177919+1002536639+1001601471+1000319807
2438+998911167+997744127+997080255+996893119+996967423+997162559+997459775
2428+997814975+998232575+998936895+1000110143+1001437055+1002290047+1002412351
2418+1002099199+1001771071+1001732479+1002191935+1003038143+1003709375
2410+1003735295+1003309503+1002990399+1002997055+1003075007+1002918527
2401+1002467135+1001785023+1000835263+999609663+998431103+997774015+997753151
2391+998098623+998543295+998906367+999045951+999043647+999112703+999140287
2381+998732415+997865663+997115519+997105215+997919487+999030847+999724223
2371+999795135+999865407+1000739263+1002396735+1003951167+1004760127+1005226559
2361+1006049919+1006999999+1007148095+1006115647+1004385151+1002589375
2353+1001091967+1000006271+999260031+998745599+998447679+998441663+998812223
2343+999431359+999794751+999446271+998648127+998172095+998344703+998807679
2333+999154303+999180671+998629119+997421055+996136767+995614591+996068863
2323+996992831+997905983+998795455+999626687+1000023231+999806335+999313151
2313+998870527+998446399+998093311+998187647+998882303+999763455+1000304831
2303+1000344383+1000043007+999691455+999564735+999736319+1000043007+1000287231
2293+1000402687+1000489727+1000752447+1001258943+1001734591+1001801215
2285+1001457215+1001200639+1001574015+1002525759+1003305727+1003250047
2276+1002558207+1001946495+1001729663+1001702207+1001721023+1001949247
2268+1002605119+1003663231+1004678143+1004971775+1004374527+1003753983
2259+1004192767+1005526975+1006432639+1006217535+1005583871+1005193727
2251+1004754495+1004129279+1003966655+1004589247+1005476095+1006210559
2242+1006800383+1007070655+1006897983+1006709823+1006758399+1006722367
2234+1006827327+1007955711+1009815423+1010720959+1009945279+1008588031
2225+1007619519+1006709823+1005220799+1003114495+1000805567+998702911+996750463
2215+994619711+992835455+992905791+995398079+998645503+1000422655+1000376063
2206+999865151+999986367+1000831679+1002275199+1004206655+1005979903+1006681087
2196+1006089343+1004933503+1004429183+1005491967+1007713855+1009462271
2187+1009685567+1008884607+1007962239+1007269631+1006894015+1006699519
2179+1006321599+1005925055+1006229567+1007230847+1007843711+1007134783
2170+1005113279+1002299839+999410815+997740735+998865663+1002953855+1007930559
2160+1011304575+1012282943+1011435263+1009661759+1008242175+1008124607
2152+1008868863+1009384127+1009313791+1008943999+1008511167+1008238079
2143+1008375295+1008872127+1009462527+1010094143+1010882751+1011766271
2135+1012533247+1013080575+1013331583+1012983167+1011805247+1010220607
2126+1009069375+1008704063+1008758271+1008859519+1009098239+1009640383
2118+1010229119+1010377727+1009958527+1009302271+1008734207+1008344639
2109+1008161407+1008126591+1007977023+1007511487+1006847935+1006259007
2101+1005950143+1005907839+1005800383+1005385663+1005077759+1005541503
2092+1006715903+1007819199+1008234815+1007986559+1007474687+1007115967
2084+1007263359+1008048319+1008906431+1008810943+1007778303+1007369855
2075+1008547007+1010058879+1010285375+1009550847+1009205183+1009518783
2067+1009772991+1009669183+1009689599+1010248191+1011017663+1011384895
2058+1011425215+1011902783+1013105855+1014100607+1013647615+1011804543
2050+1010142335+1010108863+1011482559+1013054527+1014298047+1015510015
2041+1016905471+1018184959+1018831615+1018684479+1018003775+1017063231
2033+1016369919+1016839871+1018537855+1020006655+1020086975+1019152255
2024+1017833919+1016391615+1015511679+1015725823+1016227135+1015765759
2016+1014219903+1012333375+1010841599+1010521279+1012108863+1015480703
2007+1019265919+1021870591+1022882111+1022940543+1022558847+1021837311
1999+1020912703+1019929343+1018949375+1018370431+1018867775+1020437055
1990+1022035391+1022676863+1022356671+1021629439+1020704639+1019334975
1982+1017816639+1017674239+1020451135+1025563839+1030246591+1032186879
1973+1031257343+1028751551+1026075903+1023860351+1021537471+1018055231
1965+1013401855+1008750015+1004933951+1001713087+998883199+997299327+998046463
1955+1001038911+1004935551+1008141503+1009658879+1009355263+1007766847
1946+1005596479+1003322431+1001282559+999946815+999834111+1001093055+1003173567
1936+1004960639+1005653695+1005577023+1005518335+1005490559+1004988351
1928+1004233087+1004184895+1005329599+1007141119+1008779455+1009934399
1919+1010787071+1011517567+1012106303+1012467263+1012647679+1012870847
1911+1013358847+1014096511+1014837119+1015330303+1015508543+1015518015
1902+1015361535+1014332095+1011356543+1006444991+1001312511+998027967+997261375
1892+998265407+1000004863+1001485375+1001824575+1001119039+1000547903
1884+1001108671+1002755327+1004894463+1007265663+1009928063+1012648831
1875+1014693887+1015314239+1014363455+1012319231+1009936575+1008137023
1867+1007750783+1008992767+1011481983+1014494719+1017120383+1018775743
1858+1019698623+1020594623+1021781951+1022861503+1023215231+1022694975
1850+1021710847+1020756607+1020166847+1020333759+1021531903+1023197183
1841+1024412095+1025036927+1025362495+1025513663+1025577087+1025730431
1833+1026077439+1026654143+1027421439+1028068799+1028317823+1028347775
1824+1028407551+1028367039+1028034431+1027508287+1026846527+1025735423
1816+1023868479+1021477247+1019154047+1017410047+1016618175+1016993791
1807+1018302655+1019829567+1020856575+1021055423+1020442559+1019346495
1799+1018481151+1018555007+1019742079+1021785663+1024307647+1026767615
1790+1028543743+1029486655+1029954879+1030394495+1031056575+1031839679
1782+1032452351+1032764863+1032910975+1033079935+1033316159+1033553919
1773+1033598015+1032950143+1031228671+1028903359+1026831167+1025519935
1765+1025175039+1026110143+1028512191+1031629119+1034344703+1036460991
1756+1038211455+1039534399+1040401215+1041043711+1041600767+1041837439
1748+1041468159+1040614143+1039557375+1038379327+1037136895+1036202239
1740+1036009599+1036509951+1037510911+1039277823+1041980159+1044664255
1731+1046527167+1047920063+1049232063+1050482367+1051588095+1052437567
1723+1052823871+1052612927+1051980543+1051423551+1051387263+1051691711
1714+1051956159+1052160127+1052414655+1052781887+1053277119+1053920767
1706+1054678271+1055381055+1056098815+1057440575+1059700159+1061835903
1697+1063105791+1063869951+1064412735+1065008383+1066079999+1067570879
1689+1068872831+1069744127+1070612991+1071729983+1072647999+1073103423
1680+1073381503+1073692159+1073741823+1072831039+1070051455+1065692543
1672+1059740607+1051193215+1039950143+1027875007+1015801727+1002137407
1663+984646591+962681855+936474687+905289983+869013183+825587647+761861183
1653+668246463+590146495+560364927+563319807+592067391+640966015+688845247
1643+725289599+755427967+782676031+806961215+830540863+857848447+885815871
1633+905878655+918409791+928020415+936547071+943214335+947826687+952830207
1623+961313215+972755455+983494335+992013183+998998847+1003169919+1000696191
1613+988964735+965116223+924746623+867560191+803493951+748858175+716288447
1604+709920959+724733503+746811263+760268863+759671103+754322815+758133119
1594+775749183+801067519+827006207+850890687+871764095+887226879+892734847
1584+881922111+849970687+800356415+745676159+701515327+683189247+694184703
1574+716214079+735425343+754176895+778637503+807958975+836405567+861230271
1564+881015423+894861951+905935487+922615359+947053247+965551615+975873279
1554+983626559+989718847+992736575+991794047+986434111+976161983+960401471
1544+939308031+913023167+875497471+820049471+762962495+720348607+688845439
1534+664270207+648960767+644906559+649428671+661382015+682156479+709961855
1524+740787007+775840575+816820159+855665343+884752639+905363135+917361855
1514+915316415+894524671+854812287+799757503+732313279+659226943+607982079
1504+592732223+596085567+606311487+620586303+636876479+649543167+650125887
1494+636517439+615656255+597505983+592940223+607809919+634623935+662368767
1485+687616191+711524991+734971263+756869375+775566527+790407167+800893183
1475+806177343+807327999+808640255+812925119+818950335+825132351+831009471
1465+836541055+841850111+847476671+854662655+865719807+881863615+895723199
1455+895910271+878984767+843765823+789530879+721213247+653518527+605405055
1445+584922111+586251263+599961983+619233151+641563647+668059199+697424575
1435+722151999+738549631+750385407+761475775+772263423+781512831+789214591
1425+796372735+803167615+809065087+814538303+820968575+828150207+834183231
1415+838628095+842231807+845239423+847507967+849057919+849978047+850445055
1405+851068671+852684223+855722751+860222847+865924991+872045375+877904575
1395+883581631+889022527+893528063+896850047+899610367+902495743+905506175
1385+908140287+910208575+911858367+913180671+914229631+915155455+916234047
1375+917878975+920370687+923511039+927068671+931239231+936050495+940942015
1366+945484031+949812671+953925823+957320319+959833535+962097407+964904767
1356+968624639+973125823+978059071+983139455+988208767+993223231+998181887
1346+1002989631+1007516479+1011827775+1016208511+1020852159+1025465727
1337+1029359615+1032074303+1033522687+1033478079+1031238335+1025583999
1329+1014668927+996239359+968609983+931676095+887145471+837977983+787707327
1319+740369215+700403135+671556415+655782783+653013055+661249023+677217151
1309+697602879+719662015+741193791+760722111+777289407+789063295+792652223
1299+785723519+770964415+755993535+748310399+750812991+761910271+777990591
1289+795118463+810072703+821502079+830361407+838740543+847995967+858082239
1279+868602815+879815295+891983487+904050623+913311743+916027519+908561983
1269+889340479+860769215+829062271+801613503+783882495+777950015+782970175
1259+796235071+814236159+833729855+852273023+868046719+879737151+886984127
1249+890869503+893532671+896803839+900928831+904483007+905196991+900516927
1239+887558335+863402751+826615743+779581375+729733567+687290239+659675327
1230+647028735+643148223+640848191+636903359+633166463+633859263+641620223
1220+655566143+672458047+689123775+703909759+716638655+727826303+738015871
1210+747567743+756645119+765196159+773124927+780522751+787579007+794382975
1200+801005695+807637247+814494847+821636991+828902399+836071423+843065663
1190+849872383+856282623+861537215+863788287+860562687+851579519+841386687
1180+837184639+842833407+855954815+871298175+885561663+898508351+911184767
1170+924527679+938697087+951469695+956027327+941237695+897641983+827578303
1160+749900031+690133567+662613695+663259071+678941951+699415999+719968383
1150+738547455+754374399+767884223+779966527+791121343+801322687+810388607
1140+818458943+825998015+833288831+840182591+846328255+851434175+855388991
1130+858192191+859659903+859332287+856940671+853080383+849461951+848289983
1120+850900479+856779839+864026623+870720703+875779839+878873023+880015935
1111+879418751+877638271+875643775+874413567+874223871+874122367+871756543
1101+863794687+847804799+825395903+803497151+790669439+790719551+800029247
1091+811454207+820563711+828010431+836673215+847703359+859655359+870483583
1081+879346943+886576063+892719167+897992831+902006975+903049471+898195263
1071+886309055+871517247+861360447+860212287+866107327+874416191+882345215
1061+889317887+895380991+900543679+904817983+908338943+911472959+914575551
1051+917620671+920286015+922304127+923550335+923632639+921381375+915659135
1041+907673407+901586047+901243263+906603967+914352511+921276351+925786303
1031+926675071+922586047+914348671+906850431+905983231+912994815+922984255
1021+928355455+922795199+904910911+881423231+864608831+862721855+873521855
1011+888594751+901763775+911817343+919802623+926514687+932083391+936093567
1001+937711103+936743679+934957759+935191039+938518847+943281087+947301759
992+949948095+951739391+953169727+954406079+955452095+956273471+956992959
982+957995455+959687167+962097215+964777599+967153727+968936639+970214911
972+971249023+972020287+971886975+970279871+968079743+967432447+969532351
962+973353983+977026687+979228479+978569343+973601151+965426559+958850431
952+958247743+962701823+967280255+968468927+966426559+963034559+960281855
942+960193791+964080767+971275519+979504127+986761919+992482047+997071231
932+1001004287+1004495103+1007535807+1010067519+1012314623+1014788415
924+1017746495+1020964479+1024193343+1027403007+1030389183+1032485567
915+1032735039+1029394111+1017940863+990591423+942273087+880237375+824952831
905+796707327+800747007+826594047+859390143+889495359+913802751+932636607
895+947179775+958479039+967259455+974162239+980026623+985630399+991179583
885+996442303+1001342591+1006037951+1010545471+1014608895+1017635327+1018087231
875+1012797951+998196735+974386879+948133631+929070655+921620671+922799103
866+928420287+938047551+952641087+970784895+989353663+1006068351+1019965759
856+1030229183+1035159679+1031445759+1012814335+969064767+891111807+784534015
846+678486847+612386047+607048063+649608319+707147135+752034239+776234815
836+789050175+804687487+829766847+860149503+887179967+904204159+908463999
826+901954751+892336639+889203455+895599679+903815935+902885759+891432639
816+880618303+882667775+898876159+920803199+940066175+953627071+961609855
806+964231039+961929407+956302143+948480511+936992703+920532543+904006143
796+898040831+909435775+934188799+962046399+985688639+1003652543+1017210687
786+1027806079+1036764543+1044997823+1052514303+1058970239+1064465151
778+1069197759+1072680831+1073741823+1071259135+1061850495+1039500607+995220351
768+922668543+826713919+725462015+641657535+591802815+580380287+597023231
758+617467647+615714879+582865727+533359520+491244288+472304736+478399744
748+502647680+536124160+571839871+605986495+637229375+665412287+690730431
738+713314687+732993535+749455615+762899199+774497855+785804927+797545343
728+809335999+820619007+831368831+841929087+852701375+863929087+875396287
718+886504831+896884735+906700351+916316223+925901503+935318207+944280639
708+952691583+960785151+968774719+976390207+982844095+987100799+988162047
698+985679039+980930815+976688063+974770495+973161151+964873151+937978751
688+879346367+787517503+685580799+612510335+594379839+625518143+679566975
679+733720639+778684095+813560831+839400895+856925439+867141567+872170367
669+875300479+879777919+886173503+893751551+902053503+909865407+915656575
659+918971647+919896895+917963519+912574271+903627967+890972671+873712447
649+851056639+823808831+794182847+764702591+738075135+717482111+706889919
639+711354559+735747391+781511807+842947839+904158207+940361919+931456063
629+883984447+833853247+814450367+823356095+829980095+811665727+770602367
619+721912895+679194879+649993471+635855679+634135487+640893119+652579263
609+666593215+681571583+696923839+712093759+726608831+740545215+754458175
599+768586175+782268095+794581887+804951551+811752959+810553599+796198271
589+768801727+737288127+715542015+713229823+729181759+754508415+780782527
579+803855487+823180095+840547263+858263039+876844159+894998207+912010431
569+928624127+943716799+949652927+933967615+890362815+829657919+776793919
560+752791295+759846015+784565951+810955391+827426943+827833983+814719167
550+799608895+791367359+785711743+774802431+763769023+766685823+788205055
540+818761727+846684223+867815807+883879615+897511167+910122559+921865599
530+931670079+935780799+927793023+906541695+884468095+878529215+893271487
520+918967935+942750335+958285887+965517503+964585791+952589311+924777215
510+878415807+818402815+760896255+726945791+727769727+757672319+800341119
500+841312447+875662527+904334463+927840191+945139007+954639423+953372991
490+936062207+897283327+836415167+762635903+695465919+655738559+651725759
480+675605503+712597887+750252543+782261247+808268543+830757055+851234111
470+869323327+884749823+897921919+909033727+918193663+925945087+932957119
460+939732223+946556607+952660863+955140991+949866751+934911551+915466239
450+903891711+909053311+927788479+949400447+965694783+975446783+981196735
441+985403071+989581759+994597823+1000369919+1005665599+1009631423+1013202623
431+1017344319+1020768639+1021659007+1020912063+1021230015+1023369983
422+1024961343+1022299071+1012620671+999321407+991177343+992101439+1000534463
412+1012407103+1022993343+1030072447+1033588223+1032038079+1022958399
404+1006995903+988087103+970188735+957342719+955705087+967354559+983971135
394+996817983+1003720255+1006419839+1007583295+1009682559+1016031103+1030881279
384+1052870079+1070450239+1073741823+1069465471+1064010815+1064688063
375+1069961407+1073741823
##END=
