##TITLE=B. Stanek BS 1593a
##JCAMP-DX=4.24
##DATA TYPE=INFRARED SPECTRUM
##DATE=14/10/2013
##SAMPLING PROCEDURE=ATR platinum Diamond 1 Refl
##ORIGIN=Angelika Kernert
##XUNITS=1/CM
##YUNITS=TRANSMITTANCE
##RESOLUTION=4
##FIRSTX=3997.4121
##LASTX=373.82813
##DELTAX=-1.4160156
##MAXY=1.0047832
##MINY=0.52026463
##XFACTOR=1
##YFACTOR=9.3577723e-010
##NPOINTS=2560
##FIRSTY=0.99930221
##XYDATA=(X++(Y..Y))
3997+1067884718+1066441382+1065628375+1065835703+1066809541+1067895547
3989+1068406511+1068132175+1067631784+1067638281+1068165933+1068612820
3980+1068630400+1068401542+1068087333+1067532611+1066671577+1065865194
3972+1065614553+1066066854+1066917632+1067665288+1067913700+1067610192
3963+1067076743+1066696546+1066542339+1066439408+1066352272+1066409216
3955+1066601894+1066779604+1066889351+1066955786+1066987824+1067040055
3946+1067046297+1066671259+1065845894+1065176584+1065220343+1065625572
3938+1065737294+1065468436+1064978874+1064359182+1064021087+1064573389
3929+1065725701+1066233417+1065571686+1064642753+1064660333+1065595763
3921+1066114816+1065378307+1064077776+1063561780+1064255422+1065268050
3912+1065765766+1065811945+1065702898+1065228368+1063953315+1062100864
3904+1060832307+1061243206+1062893870+1064460266+1065539711+1066239468
3895+1066189722+1065124927+1063641845+1062899858+1063174958+1063109352
3887+1061964619+1060853964+1060899633+1061383654+1061494739+1062382206
3878+1064667658+1066335903+1065902583+1064197587+1062392397+1060984730
3870+1060567271+1061555122+1062701574+1062813614+1062843360+1063978857
3861+1065356905+1065379135+1064148541+1062575521+1061131866+1060414147
3853+1061963855+1065966788+1068630400+1068429823+1066858778+1065017346
3844+1063431395+1062410168+1061679901+1060519499+1059220369+1059540184
3836+1062206343+1065218177+1066837631+1067301333+1067176617+1066428388
3827+1065115882+1063736178+1062475328+1061072884+1060011975+1060679056
3819+1062708708+1063625985+1063502543+1064313130+1065853856+1066197811
3810+1065030403+1063339738+1062228190+1062575266+1063890384+1064581287
3802+1064696576+1065525634+1066469535+1065891309+1064737723+1064786386
3794+1065907679+1066906995+1067415220+1067456686+1066791133+1065634171
3785+1064928745+1065153654+1065559202+1065433595+1065315249+1066052458
3777+1067195535+1067541719+1066734827+1065211998+1063649361+1062760238
3768+1062811640+1063372350+1064005800+1064321984+1063705413+1062318956
3760+1061626206+1062837182+1064832183+1065314803+1063789809+1061507733
3751+1060476123+1062152011+1064404979+1064090769+1062217553+1061996467
3743+1064414087+1066151059+1065142762+1062415327+1059395786+1057494544
3734+1058277105+1061720411+1065120405+1066070357+1064690079+1062728581
3726+1061987231+1062940304+1064438546+1065447544+1066113733+1066700877
3717+1066842918+1065979527+1064001023+1061676143+1060640712+1062112966
3709+1064948427+1067100756+1067827711+1067173433+1065864621+1065415632
3700+1066668201+1068299375+1068630400+1067640893+1066042649+1064241727
3692+1062334116+1060921481+1061365119+1064064209+1067023366+1068483264
3683+1068379886+1067283944+1065743791+1063870638+1061555823+1059839106
3675+1060879378+1063637322+1064334914+1063377382+1063978984+1066709985
3666+1068483327+1067918095+1066246920+1064947727+1064497337+1064303767
3658+1063934079+1063911276+1064345169+1063790828+1061396712+1058349145
3649+1057025555+1059126674+1062771002+1064928936+1065243400+1064750207
3641+1064399947+1064450266+1064506318+1064353194+1064383577+1064782119
3632+1064793711+1063740764+1062674695+1063904461+1067006551+1068630400
3624+1068027141+1066224181+1064009494+1062165705+1061584995+1062064876
3615+1062537177+1062817946+1063222156+1063444262+1063114256+1062742721
3607+1063022917+1063709043+1064133509+1064226568+1064286314+1064325487
3598+1064043508+1063404452+1062867501+1062885590+1063283431+1063339292
3590+1062683485+1061931561+1062373288+1064294085+1066048764+1066416222
3581+1065727421+1064791163+1064166822+1064071916+1064460394+1065072124
3573+1065443977+1064993778+1063418274+1061263779+1060080957+1061132440
3564+1063312731+1064619441+1064763392+1064457018+1064155866+1063802930
3556+1063136550+1062174177+1061515886+1061897038+1063112027+1063977392
3547+1063746114+1062923744+1062581317+1063039669+1063610634+1063622991
3539+1063092727+1062518960+1062359658+1062657179+1063078205+1063267252
3530+1063097950+1062685141+1062213795+1061705061+1061111038+1060665871
3522+1060746764+1061316647+1061904682+1062119781+1061854617+1061218874
3513+1060521347+1060144207+1060363191+1061272633+1062531317+1063295024
3505+1063056930+1062403225+1062341059+1062932916+1063324706+1063031325
3496+1062352078+1061786017+1061512128+1061381106+1061239830+1061062375
3488+1060798358+1060426313+1060191150+1060401090+1061038680+1061883344
3479+1062756416+1063325152+1063143365+1062282841+1061492828+1061327347
3471+1061451044+1061237410+1060707910+1060429052+1060659438+1061058426
3462+1061232441+1061172249+1061122758+1061345692+1061960670+1062747435
3454+1063220882+1063071262+1062377429+1061448751+1060760331+1060859569
3445+1061831496+1063045147+1063834332+1064002934+1063489358+1062236598
3437+1060658546+1059635918+1059695791+1060510136+1061353717+1061770731
3428+1061745125+1061527988+1061382444+1061346137+1061268684+1061150465
3420+1061204861+1061443273+1061513274+1061128236+1060386822+1059626873
3411+1059162470+1059076163+1059100049+1058859535+1058327743+1057811365
3403+1057491232+1057233521+1056806252+1056094266+1055147053+1054078691
3394+1052828606+1051103354+1048733442+1045974861+1043278573+1040818341
3386+1038442696+1036084567+1033986571+1032307625+1030753268+1028976359
3377+1027176584+1025924142+1025504645+1025677769+1025972296+1026108731
3369+1026181790+1026412749+1026830400+1027363020+1028034560+1028814955
3360+1029533247+1030154595+1030905245+1031950422+1033133563+1034116636
3352+1034682506+1034877350+1034919452+1034998753+1035137800+1035251878
3343+1035342389+1035521437+1035771505+1035878577+1035760740+1035631311
3335+1035694370+1035971636+1036491644+1037288282+1038158042+1038746459
3326+1038932322+1038976081+1039241181+1039743164+1040063934+1039898326
3318+1039531759+1039468573+1039820108+1040340371+1040761079+1040812736
3309+1040280816+1039335259+1038554099+1038436390+1039040604+1040087756
3301+1041195927+1042003648+1042309385+1042173205+1041815746+1041466314
3292+1041388542+1041848104+1042851369+1044064383+1045117585+1045828234
3284+1046144927+1046113016+1045917025+1045780590+1045788616+1045872502
3275+1045914159+1045826769+1045590905+1045318034+1045266059+1045628740
3267+1046278496+1046862774+1047177620+1047316221+1047476096+1047734381
3258+1047998398+1048167764+1048314072+1048550891+1048780640+1048823443
3250+1048714270+1048621338+1048625096+1048737710+1048935611+1049135742
3241+1049333070+1049671101+1050176205+1050576594+1050566721+1050184931
3233+1049843333+1049929513+1050405636+1050918702+1051304186+1051719288
3224+1052230953+1052596118+1052564525+1052168340+1051647058+1051244185
3216+1051099150+1051249344+1051685020+1052360191+1053124344+1053745055
3207+1054110284+1054332198+1054547297+1054732842+1054836347+1054972273
3199+1055326355+1055888849+1056397328+1056628288+1056687843+1056863260
3190+1057190590+1057374797+1057168424+1056644275+1056075094+1055713686
3182+1055663622+1055856300+1056187452+1056661728+1057279572+1057828117
3173+1058030477+1057922832+1057820983+1057857417+1057838117+1057669006
3165+1057565246+1057655502+1057743211+1057671426+1057615756+1057753211
3156+1057811938+1057227024+1055885727+1054575069+1054344300+1055396802
3148+1056931923+1058085955+1058622525+1058652780+1058188760+1057274795
3139+1056337773+1055981143+1056344843+1056968421+1057415435+1057644228
3131+1057642891+1057242884+1056564720+1056183822+1056560516+1057507029
3122+1058326596+1058434114+1057838372+1056993835+1056276435+1055833943
3114+1055825344+1056330385+1056999695+1057256133+1056964981+1056574975
3105+1056510260+1056692556+1056770838+1056578351+1056215733+1055847064
3097+1055566041+1055334317+1054939915+1054173533+1053099057+1051979420
3088+1050980741+1050111045+1049334662+1048596370+1047847249+1047117937
3080+1046465442+1045919637+1045586001+1045602370+1045862184+1045994351
3071+1045742309+1045227141+1044814141+1044811020+1045240262+1045875560
3063+1046574170+1047453866+1048530827+1049389377+1049563965+1049158927
3054+1048705607+1048467323+1048314263+1048246173+1048536751+1049249693
3046+1050038878+1050599524+1051029977+1051616293+1052449300+1053313646
3037+1053842381+1053776265+1053177720+1052447007+1052065026+1052178723
3029+1052409555+1052234074+1051576611+1050832777+1050357864+1050182447
3020+1050171428+1050164549+1049960724+1049394727+1048476431+1047403674
3012+1046455187+1045819317+1045473387+1045291856+1045207459+1045106375
3003+1044746432+1044051134+1043289656+1042755380+1042467604+1042277028
2995+1042039763+1041718929+1041516506+1041739057+1042375947+1043033983
2986+1043353288+1043252076+1042781750+1041997724+1040990828+1039900555
2978+1038863468+1037923643+1036969487+1035821442+1034380972+1032643363
2969+1030630591+1028384438+1025978411+1023476649+1020925906+1018383761
2961+1015863846+1013201700+1010119737+1006616812+1003184844+1000379319
2952+998247627+996407597+994569413+992703076+990802726+988805112+986763040
2942+984832625+982944186+980655294+977542440+973658871+969435807+965247711
2933+961233631+957431848+953958477+951012441+948653356+946625743+944596664
2923+942479686+940304745+937936362+935221985+932322127+929680108+927721923
2913+926657064+926479418+927043567+928132885+929546030+931245421+933418897
2903+936297799+939915439+944097357+948657879+953545349+958774227+964231325
2893+969606447+974569523+979002464+983042914+986899730+990631194+994109660
2883+997177801+999771029+1001897498+1003585679+1004832260+1005584693+1005913361
2873+1006162919+1006665985+1007348035+1007865113+1008039257+1007918426
2865+1007574854+1007057520+1006429866+1005757116+1005102201+1004460725
2856+1003709630+1002809296+1002005843+1001607811+1001690042+1002248841
2848+1003422045+1005277108+1007547337+1009758776+1011527149+1012724558
2839+1013520750+1014255412+1015130267+1016059136+1016878131+1017602156
2831+1018405099+1019424224+1020657302+1022038918+1023576778+1025319928
2822+1027174800+1028919288+1030430842+1031727042+1032792601+1033604844
2814+1034254091+1034780851+1035031620+1034940727+1034793145+1034932637
2805+1035329013+1035650102+1035735644+1035864946+1036464765+1037577459
2797+1038786842+1039717431+1040359926+1040817003+1041070575+1041200322
2788+1041494085+1042124605+1042948122+1043742658+1044396809+1044837453
2780+1045040896+1045102808+1045108731+1045075801+1045154592+1045591797
2771+1046323784+1046934813+1047189913+1047311571+1047592022+1047998589
2763+1048299677+1048415093+1048503183+1048734461+1049071664+1049329376
2754+1049393071+1049278037+1048998988+1048545987+1048019608+1047636799
2746+1047521383+1047593041+1047733807+1047909734+1048072539+1048128018
2737+1048109291+1048210185+1048534904+1048914910+1049080263+1048968860
2729+1048798156+1048802742+1048988032+1049218100+1049440078+1049683203
2720+1049922252+1050075630+1050086713+1049964163+1049795562+1049665687
2712+1049530844+1049338293+1049266572+1049595240+1050297290+1051029404
2703+1051525591+1051773302+1051850246+1051821010+1051769289+1051779671
2695+1051898654+1052149295+1052516881+1052900454+1053141605+1053119758
2686+1052813956+1052305349+1051741072+1051273357+1051002270+1050940676
2678+1051012716+1051096857+1051081316+1050920803+1050699590+1050613219
2669+1050793031+1051159406+1051512533+1051733556+1051841711+1051884195
2661+1051842348+1051722728+1051728779+1052137448+1052893066+1053527726
2652+1053661677+1053399571+1053117019+1053052113+1053198230+1053411036
2644+1053531420+1053486006+1053336322+1053262690+1053475114+1054019645
2635+1054669656+1055140874+1055398267+1055604576+1055823497+1055959805
2627+1055954455+1055888403+1055900951+1056089807+1056462425+1056927911
2618+1057369765+1057736395+1058030668+1058238633+1058336979+1058348062
2610+1058326915+1058302774+1058271627+1058255895+1058333348+1058525517
2601+1058642016+1058409719+1057847799+1057337472+1057187724+1057291675
2593+1057336070+1057177278+1056878865+1056547458+1056323123+1056392488
2584+1056795042+1057268489+1057495245+1057498302+1057609323+1057972132
2576+1058245321+1058017674+1057460913+1057179380+1057324541+1057395052
2567+1057143519+1057068295+1057635693+1058541823+1059125463+1059119157
2559+1058776031+1058545899+1058763228+1059461584+1060351153+1060988361
2550+1061041483+1060485040+1059545789+1058506854+1057701363+1057557475
2542+1058252328+1059342664+1060105034+1060225354+1059884521+1059385085
2533+1059046608+1059177057+1059699740+1060075033+1059981911+1059734072
2525+1059666746+1059610376+1059355212+1059109603+1059108393+1059245019
2516+1059350817+1059434386+1059533050+1059680696+1059988854+1060480072
2508+1060936768+1061079254+1060801733+1060204717+1059562732+1059243491
2499+1059484705+1060175162+1060874601+1061110274+1060738357+1060018918
2491+1059329798+1058901192+1058847497+1059201961+1059749996+1060084142
2482+1060053250+1059959490+1060110321+1060386376+1060461664+1060297521
2474+1060191150+1060345930+1060560965+1060447269+1059871272+1059069539
2465+1058388253+1058015445+1057911621+1057935380+1058061942+1058353476
2457+1058642971+1058532396+1057936462+1057343077+1057265241+1057622508
2448+1057906589+1057878118+1057874614+1058314303+1059059348+1059553878
2440+1059558974+1059439418+1059655281+1060214080+1060733197+1060933073
2431+1060918423+1060922691+1060918105+1060706955+1060340961+1060154270
2423+1060313127+1060540646+1060400708+1059756811+1058866478+1058071624
2414+1057490086+1057043135+1056699881+1056587523+1056818482+1057271865
2406+1057644993+1057691872+1057376198+1056935745+1056846826+1057406326
2397+1058240417+1058600168+1058242264+1057600406+1057110716+1056861094
2389+1056831221+1056950650+1056951350+1056583828+1055968277+1055493874
2380+1055434000+1055762923+1056267836+1056826762+1057622381+1058931702
2372+1060601730+1061991435+1062620235+1062641382+1062564629+1062838710
2363+1063754968+1065282509+1066843300+1067674333+1067510254+1066563104
2355+1065038110+1063143047+1061237473+1059503431+1057873850+1056492680
2346+1055867065+1056355162+1057468429+1058215193+1058381438+1058607493
2338+1059347059+1060363828+1061032438+1060916895+1060119047+1059124317
2329+1058325832+1057773912+1057374606+1057106894+1056904025+1056551790
2321+1055978340+1055506294+1055456485+1055689864+1055857319+1055863307
2312+1055826427+1055752859+1055481899+1054930489+1054256210+1053681996
2304+1053279378+1053087273+1053280015+1053886904+1054513093+1054721823
2295+1054580037+1054518698+1054789977+1055274061+1055666424+1055695087
2287+1055319094+1054848958+1054712205+1054961253+1055156097+1054882717
2278+1054254936+1053804291+1053958179+1054636152+1055257246+1055251258
2270+1054673478+1054188247+1054352836+1055019152+1055473109+1055096797
2261+1053844929+1052130505+1050457356+1049245170+1048722805+1048723569
2253+1048745289+1048382608+1047670239+1047081758+1047131759+1047730304
2244+1048099482+1047740368+1047168766+1047173416+1047663106+1047785528
2236+1047023604+1045709379+1044489422+1043718390+1043520234+1044077695
2227+1045445361+1047122205+1048225089+1048413500+1048465476+1049486193
2219+1051563872+1053695054+1054980235+1055258328+1054796155+1054131431
2210+1054013148+1054804945+1056070380+1057140143+1057775568+1058107994
2202+1058321564+1058538320+1058712718+1058513797+1057564036+1055993373
2193+1054532839+1053819387+1053822190+1054145635+1054486086+1054564941
2185+1054133532+1053379698+1052984023+1053612759+1055312278+1057077977
2176+1057208680+1054858831+1051310046+1049034848+1049511544+1052316496
2168+1056010952+1059356741+1061655952+1062447111+1061791177+1061040782
2159+1062085704+1064908172+1067044004+1066656991+1064358035+1061734233
2151+1059781462+1058807496+1058812528+1059545598+1060535551+1061260276
2142+1061285627+1060439052+1059057437+1057907991+1057540787+1057860028
2134+1058453860+1058972977+1059103616+1058738196+1058176275+1057667541
2125+1057071544+1056404144+1056093183+1056190127+1056101081+1055491772
2117+1054689911+1054040028+1053627728+1053626199+1054195253+1055068962
2108+1055745661+1055980379+1055818274+1055352470+1054698637+1054058945
2100+1053594224+1053252881+1052870199+1052426943+1052076619+1051957063
2091+1052055090+1052148021+1051908718+1051334823+1050987238+1051370047
2083+1052150824+1052412803+1051666612+1050315761+1049208418+1048927904
2074+1049457531+1050478121+1051881011+1053545561+1054678319+1054389460
2066+1053183771+1052648221+1053196192+1053508745+1052766694+1051984388
2057+1052534716+1054363982+1056171847+1056849947+1056388538+1055485084
2049+1054647936+1054004040+1053820725+1054565259+1056101400+1057314414
2040+1057221100+1056453826+1056723703+1058583671+1060812753+1062239337
2032+1062992917+1063632290+1064426508+1065535889+1066706355+1067077826
2023+1065960164+1063561334+1061074668+1060203061+1061780030+1064640460
2015+1066884702+1068046632+1068630400+1068599762+1067452673+1065855704
2006+1064715493+1063801784+1062658644+1061995957+1062598260+1063699043
1998+1063987392+1063689425+1064052871+1065102060+1065420282+1064228351
1990+1062432079+1061052566+1060069301+1059446106+1059720824+1060697018
1981+1060996577+1060111977+1059512476+1060251788+1061094923+1060773707
1973+1059893948+1059330944+1059006098+1058802719+1059035589+1059752416
1964+1060596571+1061303907+1061684487+1061548306+1061056706+1060640521
1956+1060316885+1059618656+1058434496+1057484353+1057581616+1058600104
1947+1059466297+1059247758+1058087994+1056915617+1056353761+1056272740
1939+1056419940+1056667014+1056550388+1055532664+1053964549+1052997908
1930+1053240396+1054084105+1054577298+1054482710+1054227929+1054132195
1922+1053995314+1053508235+1052829052+1052441339+1052475033+1052559175
1913+1052451084+1052234074+1052033561+1052050822+1052669049+1053959007
1905+1055341260+1056164203+1056340003+1056218026+1056168280+1056459304
1896+1057205049+1058175129+1058884695+1059096991+1059076482+1059213427
1888+1059504705+1059679549+1059719231+1059785538+1059840571+1059747321
1879+1059588146+1059557254+1059693116+1059904139+1060053122+1059946305
1871+1059487890+1058941766+1058766094+1058953167+1059132788+1059339926
1862+1059903247+1060801224+1061574230+1061848948+1061634932+1061164287
1854+1060713006+1060435358+1060241788+1059972611+1059642287+1059366295
1845+1059174318+1059036354+1058999092+1059173299+1059559611+1059989299
1837+1060271979+1060389370+1060441345+1060537143+1060817339+1061265372
1828+1061585759+1061753979+1062129272+1062752785+1063301648+1063773567
1820+1064408673+1065088111+1065390027+1065120468+1064499566+1063964780
1811+1063917136+1064415361+1065097347+1065537609+1065520157+1065054989
1803+1064414278+1064078795+1064348290+1064934669+1065286395+1065252381
1794+1065154354+1065419709+1066128511+1066821516+1067104132+1067086871
1786+1067097126+1067327958+1067732232+1068202367+1068630400+1068818811
1777+1068512117+1067866183+1067384009+1067634587+1068558679+1069207225
1769+1069178689+1069031298+1069058942+1068997922+1068717280+1068471607
1760+1068492245+1068769256+1069225824+1069564173+1069283277+1068292496
1752+1067120183+1066526925+1066789031+1067355155+1067720448+1067861852
1743+1067883827+1067914783+1068063830+1068103193+1067635797+1066808649
1735+1066402146+1067080310+1068163322+1068630400+1068650527+1068331860
1726+1067766245+1067186618+1066850051+1066632850+1066225773+1065790989
1718+1066126472+1067780513+1069876790+1071410574+1072341290+1072876076
1709+1073099264+1073046143+1072807412+1072374029+1071505480+1070233611
1701+1069261748+1069236270+1069546339+1069550797+1069415636+1068923398
1692+1067834081+1066476797+1065210024+1064000004+1062588069+1060884856
1684+1059114890+1057331675+1054997560+1051869163+1048005978+1042974810
1675+1035899469+1027065690+1017958340+1008581113+997528252+984983138+972923063
1665+961409303+948578451+933238002+916956519+902317229+889811223+878923780
1655+869396868+861232528+855668167+853620808+853161501+854293622+859746261
1645+870428860+881975997+892160435+902256528+912739952+923492489+936427610
1635+954521735+973940787+987380694+995688858+1002536553+1009496542+1015998371
1626+1021010238+1024760620+1028023859+1030527149+1031602390+1031507803
1617+1030976647+1030371605+1029319295+1027344357+1024298446+1020085255
1609+1014436689+1006857963+996683588+983049029+965089747+942706059+917183657
1599+890878375+866371340+845775326+830142452+818748376+808837637+796693739
1589+779351728+755590629+726003445+692571356+657904660+624942388+596809560
1579+575416144+561272913+555970595+560365127+570107520+582801936+601810153
1569+629220740+658939136+685385376+709723618+731965138+750148564+767141715
1559+793246038+828429685+851721286+863817093+873733884+883349141+892218971
1549+900181716+906442330+910234942+912150770+913453785+914965722+917243467
1539+920095362+921513602+921163023+920716773+922004948+925571250+929742084
1529+933419152+937524253+943132754+949599869+955526147+961180573+967347492
1519+972609936+975234248+975333103+973332305+968943442+961741474+952006980
1509+940571629+927419306+912240262+899467882+892620188+889352936+888424576
1500+890463273+896612357+907381136+920452693+931858107+940617680+948722721
1490+958465750+969673836+979655405+987000815+992055613+995316878+997044614
1480+997108882+994811710+989215056+979322469+963047929+937351001+904524910
1470+872936864+845709847+820619044+796670617+776778755+764425809+758634629
1460+756347075+756194397+758742211+762924829+765107413+764352432+761198112
1450+755624834+747555526+737726636+727702073+718869058+712056141+707975054
1440+707133065+710067764+718230130+731904563+746504999+757956593+767475160
1430+778060433+790948228+804576291+816527383+824722234+827669099+826365956
1420+825190076+830210861+843913320+861114246+876523803+888784518+897312496
1410+901510209+902014549+901090839+901796838+906375259+914236155+922583556
1400+929401632+933888396+935481034+934088272+930538785+926339288+922791776
1391+920390080+919584653+921287611+925664946+931055163+935615877+938882938
1381+941348584+943676967+946129875+948451824+949986882+949391840+944700997
1371+934104832+916419759+892531269+866949948+845652904+833628753+834703612
1361+848691107+870203188+894035689+917722201+939807922+959014740+974699335
1351+986989668+996345557+1003251214+1008239769+1011835690+1014344521+1015919516
1341+1016904819+1017908785+1019351293+1021081959+1022735426+1024136660
1332+1025277826+1026323767+1027634999+1029484202+1031737807+1033977844
1324+1035824627+1036986876+1037150700+1036071956+1033812937+1030715879
1315+1027031804+1022732942+1017765662+1012293532+1006620316+1001023661
1307+995692680+990713234+986242203+982898517+981821683+983963630+989166647
1297+995983258+1002362728+1006484326+1007151917+1003864919+997007734+988150579
1287+979880440+974674493+973326190+974229581+974217861+970620158+963390164
1277+955601817+951486398+953454583+960637443+969908999+978127354+983776684
1267+987144257+989422257+991566178+993532899+994362148+992975756+988758487
1257+981350784+970287477+955158561+935912315+912780526+886149442+856788504
1248+826189838+796690554+771409557+753904550+747267178+752851921+769380478
1238+793049538+818723726+841658633+858781276+868993486+872774568+871473145
1228+866366244+857752724+844747220+826062639+801188719+771111718+738292441
1218+706160947+678457553+658641424+649369740+651844750+665020130+685282317
1208+707370267+726244086+738539070+742814619+739297363+730029882+718970525
1198+710985550+709857315+716565835+728793237+741803201+750612075+752915935
1188+751048260+751126414+759548976+779233191+808194441+841120980+872363160
1178+898099579+916730019+928315818+934089354+935827855+934641848+929938011
1168+919832300+903196098+881940709+861411830+847851539+844429762+848989265
1158+855425042+857764763+854073108+847549050+844273199+849354749+864097225
1148+885750327+909411871+930318718+945063551+951647356+949374642+939333965
1138+924816778+910389721+899537055+892535218+886431358+877324390+863253008
1129+845691184+828892368+817753073+815310739+820898285+830227486+838085324
1119+841995581+843673380+847030060+854821974+866937974+881233691+895450363
1109+908348222+919585735+929144240+937030869+943337407+948370804+952557307
1099+956129214+959029645+961212803+962878117+964270752+965409242+966194861
1089+966710793+967183667+967645904+967875653+967621827+966362507+962603208
1079+954041982+939304283+919896951+900447962+886648241+882095871+886353076
1069+895747310+906026081+914584187+920870534+925379145+928580982+930745031
1059+932267477+933582913+934749620+935570271+936133720+936860293+938018337
1049+939543140+941318456+943290974+945186356+946329751+945887259+943235176
1039+938102670+930485345+920415686+907789041+892613627+875548628+857900052
1029+840809128+824500256+808284315+791092498+772101416+751215970+729076554
1020+706516813+684002232+661551027+639090905+617048179+596979881+581694338
1010+574335361+576883366+589182298+609033968+633076155+658010204+681824807
1000+704370790+726640908+749309441+772078358+794266501+815464563+835464580
990+854023808+870936576+886101225+899435971+910895781+920594669+928826336
980+935965437+942361468+948264751+953850004+959281624+964677510+970004415
970+975053863+979510243+983123680+985952071+988377207+990767757+993262066
960+995950391+999049042+1002826876+1007528229+1013259026+1019754485+1026451986
950+1032961649+1039203091+1045046820+1050233658+1054722523+1058706921
942+1062211375+1064998110+1066917887+1068084849+1068630400+1068503773
933+1067123878+1063727069+1057538367+1048116489+1035373473+1019243648+999666759
923+977014851+952122141+925677876+897841294+868506408+837712133+805908097
913+774211833+744437640+718613704+698329415+684424341+676967146+675264697
903+677971621+683574135+691114580+700437985+711521419+723567608+734948309
894+744118144+750654305+755602986+760933840+768548171+779544279+794035032
884+811290417+830028374+848823020+866408474+881810707+894603087+905195876
874+914597754+923754914+933260041+943484353+954457339+965564086+975813557
864+984481027+991181394+995510193+997196336+996613205+994723364+992531098
854+990835019+990339023+991562929+994503361+998524638+1002777703+1006807580
844+1010738410+1014909563+1019489703+1024392652+1029302798+1033762363
835+1037497266+1040739741+1044035529+1047650558+1051349664+1054762460
827+1057669452+1059895795+1061365819+1062392652+1063503053+1064883904
818+1066344502+1067676498+1068630400+1069075885+1068493391+1066974958
810+1064564535+1061076197+1056411341+1050725577+1044368846+1037922751
801+1032066666+1027198431+1023310978+1020055764+1016629273+1011892378
793+1004922071+995352292+983281326+969225931+953959687+937852156+920308932
783+900067701+876090420+848323840+818073906+788043849+761956214+743736673
773+736568654+742052632+759496491+785715466+815745459+844120649+866181337
763+879300092+883784817+882731805+880575655+881157512+886254412+895135389
753+905454097+914864956+921920743+925718896+925282646+919416115+906709277
743+885711346+855740589+817797341+774526807+729413057+686106917+647746465
733+616126954+591840623+575393022+567581554+568947054+579449587+598262068
724+623303698+651182446+678033405+701134684+720399020+737950779+755709485
714+773461566+789070490+799866149+803628314+799251616+787764799+773125509
704+761626208+759460121+769571692+789987448+815037868+838809923+858083494
694+872593801+883429269+891710109+898297608+903767063+908203570+911305023
684+912916452+913386205+913412129+913622387+914365393+915888731+918290300
674+920914866+922379731+921626407+918118386+911706686+904686186+900589366
664+899783429+901166446+903699227+905828881+905410530+900469746+890078744
654+874897470+857243034+840788937+829680598+827000425+833198555+845935329
644+861749224+877849239+892671463+905285177+914868650+921284108+925619786
634+928959205+930509676+927948041+919958863+907799232+894414676+882977988
624+876185645+875551876+880673300+889533257+899803557+909848247+918845532
615+926645217+933533421+939558108+944124618+946779694+948247617+949887262
605+952027553+953549681+953256555+950987854+947444546+943807288+941674131
595+942499049+946538225+952621003+959154934+965080001+969865177+973267527
585+975557502+977604351+980136751+982856732+984683196+985074222+984770459
575+984982055+986126150+987684711+988863203+989012632+988009303+986592082
565+985905000+986549342+988312939+990629219+992913334+994522915+994944196
555+994340492+993526402+993066203+992745051+992134213+991152986+989783536
545+987722355+984728547+981114283+977781807+975855469+976004070+977872318
535+980254332+981812256+981535309+978865774+974072636+968598786+964465469
525+962771873+962866716+963673863+965320005+968971977+975430812+983685855
515+991212414+996129248+998323552+998870950+999645995+1002870316+1009336030
506+1017180493+1023600664+1027146965+1028166919+1028423547+1030099626
497+1034233645+1039982212+1045515681+1049710911+1052829052+1055616678
489+1058193091+1060142614+1061300341+1062035831+1063034828+1064862311
480+1067194579+1068630400+1068147016+1066430044+1065379262+1066101631
472+1067786309+1068660719+1068149309+1067113368+1066302463+1065785448
463+1065828760+1066728712+1067628918+1067207191+1065708949+1064455553
455+1063428083+1061863917+1059890253+1057927418+1055995283+1054675198
446+1055357438+1058553224+1062775907+1065513787+1065291809+1062904953
438+1060473066+1059445469+1059445978+1059238777+1058254366+1056767844
429+1055957767+1057583017+1062000862+1066782980+1068630400+1067761277
421+1064540331+1062996293+1066796993+1072259123+1073741823+1071185857
412+1068110582+1066737183+1065644745+1062772212+1058575327+1055229920
404+1054078309+1054166718+1052968991+1048411844+1040532413+1031753922
395+1024994636+1021667893+1021170241+1022285100+1025152027+1029761723
387+1033078020+1031235569+1026519630+1026668359+1034623396+1046671879
378+1057394988+1063216742+1065499010+1068630400
##END=
