##TITLE=LL-554
##JCAMP-DX=4.24
##DATA TYPE=INFRARED SPECTRUM
##DATE=30/9/2021
##SAMPLING PROCEDURE=Diamant-ATR
##ORIGIN=Angelika Moesle
##XUNITS=1/CM
##YUNITS=TRANSMITTANCE
##RESOLUTION=4
##FIRSTX=3997.453
##LASTX=373.96442
##DELTAX=-1.4165319
##MAXY=0.96989793
##MINY=0.73617476
##XFACTOR=1
##YFACTOR=9.0328783e-010
##NPOINTS=2559
##FIRSTY=0.95044363
##XYDATA=(X++(Y..Y))
3997+1052204612+1052736858+1052941548+1053053988+1053225355+1053318264
3989+1053209782+1053095824+1053245217+1053580955+1053796070+1053818308
3980+1053866742+1054111947+1054544289+1055047039+1055415705+1055511847
3972+1055451205+1055400528+1055299767+1055017939+1054584343+1054098750
3963+1053645622+1053351455+1053290417+1053375210+1053501112+1053667793
3955+1053884822+1054098750+1054220099+1054149493+1053855524+1053474387
3946+1053229116+1053293387+1053759580+1054505358+1055126091+1055307355
3938+1055130710+1054833705+1054472562+1053980238+1053487518+1053254653
3929+1053161216+1052865465+1052537579+1052782719+1053662844+1054346067
3921+1054165264+1053363332+1052680506+1052669618+1053277748+1054031048
3912+1054570486+1054825655+1054779861+1054334915+1053575676+1053041319
3904+1053330735+1054148240+1054583551+1054553725+1054556761+1054560588
3895+1054377674+1054397800+1055152221+1056188339+1056287384+1055402244
3887+1054650527+1054691637+1054923777+1054700677+1054583683+1055137507
3878+1055628511+1055276804+1054425910+1053715105+1053412492+1053710684
3870+1054638188+1055276738+1054853435+1054092283+1054068000+1054723508
3861+1055155257+1055061622+1054708199+1054253818+1053906994+1054420367
3853+1056408931+1058292973+1058599347+1057843408+1056720320+1055565956
3844+1054597013+1054030388+1053952326+1054295257+1055000585+1055873848
3836+1056461258+1056538462+1056257228+1055787340+1055213721+1054694276
3827+1054396480+1054191922+1053793233+1053444495+1053934642+1055170764
3819+1055825546+1055963193+1056931213+1058687769+1059628866+1059145516
3810+1057875081+1056603525+1055937459+1055898593+1055827657+1055547875
3802+1055607329+1055978964+1055903212+1055536526+1055540485+1055765168
3793+1055684599+1055415705+1055307883+1055228502+1054881546+1054420103
3785+1054241016+1054365928+1054533270+1054807905+1055513365+1056532985
3776+1057249201+1057243724+1056537010+1055548073+1055047567+1055476478
3768+1056171644+1056265939+1055831155+1055368195+1055052648+1054913351
3759+1055104315+1055615379+1056081639+1056129083+1055647317+1054998473
3751+1054991743+1055588523+1055538439+1054601500+1053757798+1053762285
3742+1054063051+1053961762+1053602665+1053304934+1053263495+1053617643
3734+1054365269+1055168322+1055558103+1055448104+1055247836+1055435369
3725+1055913902+1056061579+1055829307+1055903014+1056428595+1056687921
3717+1056259340+1055620460+1055537978+1056277750+1057263190+1057757494
3708+1057823216+1057535714+1056672414+1055555464+1055105965+1055607593
3700+1055961280+1055375321+1054534985+1054398064+1054986398+1055566154
3691+1055712841+1055933038+1056750938+1057281666+1056609859+1055235298
3683+1054245569+1054276385+1054919620+1055120416+1054599124+1054520996
3674+1055574072+1056367954+1056321565+1056501774+1057402487+1057998542
3666+1057748519+1057161109+1056809072+1056915574+1057333663+1057836083
3657+1058400068+1058853790+1058557644+1057237455+1055488224+1054397404
3649+1054904641+1056474521+1057680356+1058071654+1057694609+1056532523
3640+1054801768+1053224035+1052576445+1053016838+1053985979+1054639838
3632+1054644787+1054823610+1056561359+1059093321+1059706598+1058310459
3623+1056444366+1055002960+1054161437+1053842195+1053762747+1053578184
3615+1053402330+1053635658+1054321652+1055109792+1055825018+1056498013
3606+1056977205+1056991326+1056434864+1055408842+1054250980+1053446475
3598+1053235055+1053487848+1054005973+1054601500+1054920543+1054669465
3589+1054118546+1054129697+1055162185+1056332057+1056728371+1056414870
3581+1055757712+1054994316+1054365269+1054151737+1054443330+1054998407
3572+1055401452+1055371494+1054978941+1054681145+1054986794+1055676681
3564+1056002257+1055808192+1055514882+1055475356+1055626069+1055708486
3555+1055673711+1055624618+1055463215+1054959277+1054247483+1053827546
3547+1053942626+1054194364+1054017587+1053493127+1053215523+1053543013
3538+1054275329+1054900880+1055080164+1054902199+1054662537+1054490247
3530+1054266487+1053846550+1053298996+1052824686+1052526296+1052420849
3521+1052532168+1052795388+1053010899+1053022513+1052861638+1052676612
3513+1052605017+1052726762+1053038350+1053426349+1053754367+1054049062
3504+1054494800+1055139156+1055677803+1055760945+1055365423+1054710443
3496+1054051833+1053542089+1053093976+1052569319+1052129784+1052008369
3488+1051953732+1051507005+1050847538+1050729158+1051517695+1052692647
3479+1053427141+1053468712+1053267586+1053391772+1053892015+1054271172
3471+1054050316+1053256962+1052404353+1052094019+1052545300+1053424831
3462+1054155498+1054436204+1054413109+1054316241+1054125144+1053707979
3454+1053110407+1052575257+1052371030+1052571694+1052883612+1052884271
3445+1052638736+1052695155+1053270028+1053893532+1053998385+1053541957
3437+1052898722+1052365487+1051942383+1051555307+1051305219+1051329502
3428+1051579854+1051936378+1052351102+1052695880+1052721153+1052378816
3420+1051970031+1051806253+1051909917+1052125099+1052340940+1052556781
3411+1052832736+1053195331+1053535886+1053619623+1053298204+1052765034
3403+1052482547+1052759095+1053461520+1054154970+1054388034+1053929627
3394+1052944715+1051946870+1051431319+1051523633+1052028033+1052709144
3386+1053418893+1054043849+1054483780+1054718427+1054812128+1054782896
3377+1054555177+1054126926+1053676965+1053392300+1053295366+1053310543
3369+1053374286+1053443835+1053523283+1053631501+1053671884+1053491016
3360+1053164515+1053009843+1053169662+1053337532+1053042771+1052200059
3352+1051315908+1051045760+1051496381+1052118236+1052374263+1052259843
3343+1052016551+1051698497+1051313137+1051084824+1051249988+1051696320
3335+1052014770+1051876066+1051269190+1050419946+1049528603+1048631717
3326+1047737734+1046974470+1046439651+1046017471+1045566784+1045206235
3318+1045150344+1045323690+1045393834+1045160572+1044712657+1044227393
3309+1043824943+1043577362+1043479768+1043463206+1043572545+1043983640
3301+1044685603+1045336294+1045589681+1045393042+1044881120+1044280644
3292+1043987797+1044380350+1045401158+1046546285+1047300971+1047474449
3284+1047228715+1046959095+1047043954+1047545780+1048176807+1048580445
3275+1048607764+1048333591+1047886599+1047369794+1046948076+1046819666
3267+1046964770+1047094433+1047033660+1046983114+1047166028+1047369662
3258+1047125249+1046374523+1045723567+1045846896+1046719631+1047630902
3250+1047928171+1047570657+1047012742+1046734280+1046817621+1046874831
3241+1046498643+1045826242+1045443323+1045632704+1045978473+1045955311
3233+1045691102+1045775895+1046381847+1046993144+1047082490+1046671593
3224+1046058778+1045411254+1044867263+1044687054+1044961359+1045383408
3216+1045591397+1045578595+1045544349+1045505021+1045296966+1044875247
3207+1044409714+1044089350+1043940353+1043855561+1043782910+1043823359
3199+1044068168+1044377842+1044455706+1044162793+1043671723+1043272901
3190+1043065440+1042917169+1042727326+1042583608+1042606637+1042767050
3182+1042892292+1042788628+1042458564+1042223257+1042363148+1042650254
3173+1042627621+1042280401+1041981549+1041877620+1041786031+1041622385
3165+1041530268+1041621791+1041815791+1041899594+1041643633+1040916134
3156+1039829471+1038805231+1038327886+1038442636+1038598496+1038231480
3148+1037415229+1036670903+1036230973+1035805559+1035103332+1034307735
3139+1033870180+1033929832+1034152007+1034169032+1033961571+1033717422
3131+1033529361+1033385840+1033267329+1033118266+1032859005+1032493045
3122+1032128207+1031921538+1032011213+1032363184+1032658275+1032546692
3114+1032031405+1031432117+1031024322+1030845961+1030731870+1030464230
3105+1030016513+1029625148+1029491723+1029529863+1029520031+1029344244
3097+1029031139+1028740271+1028650728+1028707806+1028618658+1028203868
3088+1027598708+1027095958+1026917795+1027066132+1027324006+1027478217
3080+1027473532+1027263893+1026745174+1025976830+1025184202+1024440734
3071+1023660380+1022922983+1022448871+1022241674+1022060475+1021728234
3063+1021230103+1020550774+1019657187+1018685803+1017953750+1017645858
3054+1017592409+1017547605+1017584887+1017979221+1018781219+1019772927
3046+1020722537+1021424763+1021663897+1021430174+1021028119+1020770509
3037+1020728673+1020852530+1021093644+1021363132+1021590653+1021855126
3029+1022254541+1022661545+1022813643+1022660423+1022412512+1022215807
3020+1021984987+1021615464+1021135941+1020599142+1020032056+1019549696
3012+1019330291+1019402876+1019570085+1019598196+1019426103+1019163874
3003+1018950144+1018874458+1018970864+1019170406+1019315378+1019338209
2995+1019347118+1019465299+1019698627+1019979201+1020190819+1020201047
2986+1020016483+1019830401+1019810342+1019932284+1020073099+1020150567
2978+1020147334+1020077586+1019954918+1019744091+1019341575+1018688970
2969+1017952629+1017442686+1017203948+1016884640+1016231507+1015447062
2961+1014805015+1014254623+1013683313+1013220155+1013019227+1013032226
2952+1013122232+1013185183+1013173041+1013164067+1013283832+1013480933
2944+1013565528+1013471497+1013275320+1013024308+1012700513+1012235507
2935+1011506820+1010480073+1009320364+1008238386+1007356281+1006805361
2927+1006757191+1007276239+1008220635+1009269554+1010068187+1010503564
2918+1010803538+1011224003+1011726951+1012076282+1012142269+1012039132
2910+1012010428+1012175262+1012380347+1012355800+1012022438+1011594450
2901+1011386197+1011518962+1011819926+1012036493+1012105448+1012138705
2893+1012248375+1012510538+1013021339+1013819575+1014768129+1015624433
2884+1016228934+1016543689+1016568104+1016400762+1016330025+1016595158
2876+1017065574+1017422692+1017607520+1017798551+1018050090+1018267647
2867+1018449704+1018651226+1018762875+1018580422+1018110864+1017647244
2859+1017465650+1017533681+1017591353+1017469873+1017228957+1017008562
2850+1016874742+1016824592+1016825780+1016779920+1016520461+1015941629
2842+1015101623+1014158877+1013289177+1012691143+1012537659+1012883163
2833+1013697962+1014922998+1016373906+1017743848+1018845688+1019714727
2825+1020413721+1020949464+1021405033+1021926523+1022526999+1023077918
2816+1023498449+1023803834+1023993479+1024052668+1024075698+1024235583
2808+1024602466+1025094395+1025601697+1026045126+1026327415+1026388056
2799+1026346221+1026464865+1026884076+1027438625+1027821873+1027924284
2791+1027943222+1028172987+1028732221+1029464933+1030063033+1030324141
2782+1030316222+1030260860+1030291873+1030366768+1030396594+1030426618
2774+1030634870+1031106145+1031700945+1032237942+1032676025+1033024697
2765+1033257695+1033393693+1033484886+1033505869+1033387424+1033123743
2757+1032794075+1032560813+1032575396+1032754153+1032809384+1032652072
2748+1032553093+1032776061+1033251954+1033720985+1034031384+1034206908
2740+1034305030+1034318755+1034213243+1034000965+1033754506+1033568820
2731+1033492210+1033475054+1033429259+1033343873+1033296165+1033377988
2723+1033633685+1033971337+1034137359+1033931019+1033466937+1033109753
2714+1033120641+1033419097+1033721447+1033877834+1033968895+1034038841
2706+1033943029+1033605509+1033205698+1032930139+1032710206+1032368133
2697+1031912432+1031542248+1031375039+1031287079+1031088394+1030770802
2689+1030480132+1030311075+1030217903+1030070423+1029776256+1029406799
2680+1029154137+1029101810+1029127413+1029064198+1028872508+1028641226
2672+1028481143+1028421359+1028428354+1028526805+1028776629+1029074096
2663+1029145757+1028845585+1028355637+1028032700+1028107198+1028547525
2655+1029138498+1029621122+1029796184+1029631614+1029351700+1029308611
2646+1029646725+1030147297+1030520054+1030767305+1031096181+1031542512
2638+1031894417+1031985544+1031909330+1031940476+1032281163+1032804897
2629+1033124732+1033091343+1033054721+1033375612+1033927456+1034381310
2621+1034695801+1035006992+1035282287+1035383048+1035331645+1035290074
2612+1035293835+1035186343+1034879375+1034559935+1034518298+1034851397
2604+1035403768+1035904406+1036132257+1036050104+1035805229+1035595920
2595+1035565303+1035759500+1036098406+1036419166+1036587167+1036560376
2587+1036395938+1036198837+1036023314+1035892397+1035893519+1036050434
2578+1036137404+1035890153+1035355730+1034797486+1034374249+1034113603
2570+1034036663+1034121456+1034261281+1034365407+1034417536+1034373326
2561+1034084240+1033445426+1032621785+1032004944+1031859445+1032063078
2553+1032252525+1032201254+1032032461+1032089803+1032580081+1033314707
2544+1033833491+1033828608+1033422265+1033020342+1032951254+1033213484
2536+1033503890+1033570272+1033557603+1033824385+1034413643+1035010358
2527+1035410961+1035678931+1035922948+1036260205+1036836199+1037571287
2519+1038126496+1038333165+1038404364+1038611825+1039004180+1039496636
2510+1040044388+1040705769+1041568343+1042570015+1043418995+1043829430
2502+1043807654+1043587458+1043334467+1043137761+1043241294+1043917456
2493+1044979440+1045759992+1045801959+1045354110+1045000423+1044987754
2485+1045123554+1045223127+1045381824+1045701594+1045970092+1045892162
2476+1045550419+1045343750+1045450252+1045596808+1045439496+1045028599
2468+1044790653+1045107189+1045975833+1047062628+1047964463+1048406439
2459+1048333525+1047977264+1047807548+1048209272+1049055943+1049695878
2451+1049540414+1048674410+1047796330+1047584250+1048148235+1049012062
2442+1049549521+1049509665+1049174586+1048997149+1049134401+1049407518
2434+1049613329+1049728937+1049867311+1050134753+1050462375+1050607611
2425+1050481907+1050348153+1050429250+1050516220+1050318129+1050010897
2417+1050065072+1050619687+1051308980+1051713608+1051828028+1051978411
2408+1052292242+1052458660+1052164757+1051566459+1051121711+1051136822
2400+1051635216+1052451863+1053253267+1053624308+1053410182+1052961080
2391+1052812610+1053060323+1053240532+1052945705+1052340148+1051914404
2383+1051925424+1052237869+1052532498+1052562324+1052427646+1052632072
2374+1053473727+1054365401+1054414032+1053798842+1053714643+1054708727
2366+1055963853+1056482902+1056131459+1055345495+1054604337+1054279090
2357+1054370020+1054494140+1054493744+1054626508+1054920148+1055017675
2349+1054762968+1054444056+1054508525+1055083002+1055703669+1055755798
2340+1055183433+1054591470+1054576689+1055075611+1055597167+1055866985
2332+1055907567+1055732901+1055311183+1054689459+1053963346+1053233867
2323+1052648106+1052360340+1052378090+1052536326+1052695551+1052889814
2315+1053209518+1053678153+1054292420+1054983890+1055473113+1055434445
2306+1054878576+1054177339+1053730414+1053747307+1054225575+1054960201
2298+1055605548+1055863752+1055705451+1055415441+1055299965+1055348663
2289+1055343120+1055251795+1055314746+1055757910+1056538726+1057350886
2281+1057854559+1057923053+1057655809+1057279225+1057135968+1057469133
2272+1058069939+1058470146+1058551375+1058562329+1058581663+1058438670
2264+1058175253+1058149254+1058555202+1059115492+1059441663+1059542292
2255+1059742296+1060218652+1060849019+1061360479+1061463681+1061171362
2247+1061031471+1061504659+1062141427+1062101571+1061417161+1060898113
2238+1060825792+1060527665+1059351921+1057566067+1056230504+1056358188
2230+1058106429+1060673957+1062954379+1064345106+1065035455+1065519993
2221+1065825180+1065505278+1064474440+1063314796+1062591058+1062335691
2213+1062236513+1061950463+1061419801+1061043745+1061178489+1061646398
2204+1062174882+1062862922+1063853904+1065093655+1066399986+1067263550
2196+1067093833+1066192723+1065647676+1065849793+1065981039+1065249911
2187+1064030418+1063523181+1064255563+1065181483+1065019619+1064255233
2179+1064437157+1065846625+1067277275+1067688435+1067162788+1066655420
2170+1067065525+1068156213+1068809939+1068622076+1068192175+1067727103
2162+1066983042+1066553339+1067256885+1068451303+1068944551+1068605052
2153+1067854523+1067220197+1067520368+1068970220+1070349664+1070314163
2145+1068930760+1066934014+1064695494+1062886413+1062639030+1064119961
2136+1066148909+1067670487+1068511747+1068762495+1068588291+1068423985
2128+1068475916+1068334046+1067597308+1066511173+1065625241+1065071946
2119+1064449629+1063437794+1062389998+1062109160+1062952267+1064291591
2111+1064961485+1064309870+1062846095+1061710140+1061506243+1061914896
2102+1062321042+1062384257+1062182866+1062254594+1063208690+1064845745
2094+1066026900+1065857777+1064704930+1063761919+1063792009+1064477937
2085+1064945648+1064724594+1064053051+1063409684+1063027557+1062871434
2077+1062858698+1062939994+1063080478+1063350758+1063905967+1064674114
2068+1065314313+1065734844+1066253959+1066890529+1066979808+1066029011
2060+1064644420+1064104190+1064930405+1066175039+1066516254+1065871238
2051+1065308837+1065569153+1066366993+1067160677+1067875705+1068467008
2043+1068350476+1067034643+1065178910+1064282419+1065232029+1067643367
2034+1070247913+1071527850+1070811766+1069117237+1067981151+1067631753
2026+1067554549+1068156345+1069942660+1071766522+1071908789+1070460653
2017+1069044059+1068429198+1067742346+1066269927+1064949673+1065367235
2009+1067580944+1069757239+1070279257+1069396953+1068370404+1067939118
2000+1068009921+1068223717+1068551669+1069365346+1070880458+1072643547
1992+1073651752+1073006603+1070574479+1067233592+1064469161+1063196086
1983+1062934385+1062613691+1062118068+1062622269+1065096493+1068650186
1975+1071297887+1072201504+1071943894+1071152190+1070122671+1069314405
1966+1069002025+1068851510+1068802153+1069560731+1071403862+1073259727
1958+1073741823+1072582443+1070555343+1068552724+1067114091+1066477916
1949+1066603224+1067143059+1067699653+1068153837+1068547775+1068697168
1941+1068279871+1067349002+1066450928+1066278374+1067139759+1068621218
1932+1069882085+1070343197+1069992876+1069205395+1068520457+1068395545
1924+1068799381+1069103710+1068731811+1067749275+1066627309+1065746986
1915+1065178646+1064858282+1064876824+1065494258+1066718371+1067913383
1907+1068251629+1067616312+1066670135+1066077973+1065968238+1066128981
1898+1066361648+1066476069+1066231787+1065584857+1064909949+1064755409
1890+1065327181+1066196353+1066734537+1066752419+1066451918+1066152538
1881+1066143696+1066429878+1066602565+1066314864+1065835935+1065753518
1873+1066255674+1067059388+1067825753+1068349157+1068544410+1068467338
1864+1068240609+1067935752+1067582857+1067277803+1067152429+1067139759
1856+1066949785+1066476861+1066061807+1066145609+1066791021+1067659204
1847+1068360176+1068749100+1068832308+1068462455+1067440987+1065921718
1839+1064435376+1063574716+1063493883+1063761985+1063917977+1063896597
1830+1063800455+1063570031+1063202355+1062974834+1063019309+1063025644
1822+1062704290+1062195602+1061849833+1061907769+1062346183+1062918878
1813+1063398467+1063762975+1064141802+1064622315+1065098472+1065341104
1805+1065281056+1065197254+1065490101+1066210408+1066973408+1067467249
1796+1067757523+1068035458+1068282972+1068222595+1067738321+1067123527
1788+1066724375+1066757170+1067216369+1067770654+1068089632+1068183861
1779+1068208738+1068189008+1068118996+1068146974+1068518675+1069201106
1771+1069664990+1069620911+1069348387+1069064712+1068696047+1068192901
1762+1067682761+1067296279+1067056089+1066955195+1066895346+1066687489
1754+1066338091+1066094074+1066091566+1065993313+1065342160+1064264405
1745+1063173453+1062169405+1061030349+1059606364+1058049087+1056611443
1737+1055370240+1054295389+1053412228+1052710200+1051996491+1051081525
1728+1049935343+1048688267+1047495960+1046407582+1045319401+1044038145
1720+1042423723+1040341789+1037451456+1033647344+1029546558+1025652969
1711+1021971460+1018369794+1014718573+1010701853+1006034113+1000970454
1703+995674589+989440465+981658896+972696105+961304886+945287168+926320850
1693+907182704+887184229+865732734+845811067+831376228+825765609+833357797
1683+851079019+868912549+884964779+900550683+916186076+932380176+947528591
1673+958763357+967168629+976247819+986020460+993192250+997425075+1000935811
1663+1005382959+1010404585+1014379139+1016811989+1018222843+1019225769
1655+1021061970+1025198785+1028936184+1029879129+1029891798+1030806567
1646+1032844884+1034741859+1036045221+1037072364+1037851795+1038265925
1638+1038562204+1039277099+1039856063+1038799160+1035786819+1030859290
1629+1023748537+1014944048+1006252989+999648352+996620107+997358099+1000149782
1619+1003681766+1008100210+1012794873+1015119506+1013587237+1008170684
1611+998414078+984130678+967083045+951090863+940326580+937244556+940922634
1601+947299948+952292276+954486849+954651947+954006007+953524438+954251608
1591+957369198+963426017+971739964+980993556+990224779+998972454+1006757587
1581+1012950469+1017468619+1021297409+1025594307+1029464669+1031054675
1572+1030695776+1029459126+1027814483+1025927274+1024023964+1022298422
1564+1020788523+1019445371+1018649312+1020074617+1024653606+1028633571
1555+1031009145+1033315631+1035911005+1038603511+1041239071+1043438659
1547+1044959842+1046146144+1047426279+1048851187+1050577390+1052643817
1538+1053910293+1054051306+1053906598+1054272558+1055272646+1056108297
1530+1056349345+1056416124+1056683368+1056902377+1056557202+1055310589
1521+1052849233+1048806712+1042066869+1030772782+1015058600+998020799+982316978
1511+969080979+959309592+954359957+956281677+963528559+969945136+974766426
1502+979947541+986541554+994808189+1004465948+1013804860+1020728343+1025272294
1492+1028810942+1032300695+1035305580+1036599572+1035942414+1033831446
1483+1030454530+1025560852+1018910618+1010537811+1000754349+990579521+982179330
1473+978217973+979258050+982237860+984235464+984089964+980646798+972902181
1463+962316127+951696353+942413529+936295607+938872967+952633095+968335003
1453+980708165+991015955+1000146549+1007973649+1014112554+1017893901+1018909034
1443+1017536717+1014578022+1010824984+1006518122+1000824360+992634599+982756051
1434+972967969+963902768+956370429+952028001+951531717+953985947+958390534
1424+963745258+968974345+973937704+979212123+984299339+987956829+990350483
1414+992260655+993823343+994594063+994081746+992273522+989942555+988507749
1404+989088560+991668296+995861991+1001456905+1007722439+1013559391+1018444821
1394+1022134578+1024370854+1025398855+1025806057+1025986332+1025999463
1385+1025824665+1025603743+1025478963+1025399779+1025197993+1024787954
1377+1024238882+1023683079+1023192141+1022700147+1022036720+1020983578
1368+1019328773+1016984807+1013907139+1009777979+1003996323+996159325+986517139
1358+976185726+967401627+962907958+963971789+969264091+976365473+983570058
1349+989970006+994958110+998184511+999602689+999303903+997294554+993495391
1339+988119221+981897305+975633685+969861069+964980654+961357279+959210414
1329+958438968+958481991+958396539+957293115+954858748+951508028+948099175
1319+945564046+944622421+945634124+948658013+953488938+959568984+966051744
1309+972007406+976535916+978866355+978479147+975155746+969083420+960996202
1299+952083759+943621871+936516199+930936462+926373177+922243819+918535322
1289+915810548+914576142+914652092+915067146+914371584+911064020+904168185
1279+893913448+882069035+871470179+864763065+863155968+866160458+872329981
1269+879911150+886671779+889849086+887627723+881153738+873891217+867804507
1259+860853243+849752166+834934409+821432353+814994661+818153228+829746234
1249+846865792+866459442+885789212+902606948+915449999+923688788+927206585
1239+925979371+919674180+907599606+889698770+868256447+848269255+835017090
1230+830535958+832495620+836683046+840498970+844142866+849036610+855803046
1220+863753144+871690178+878772556+884713173+889532352+893422708+896842119
1210+900477636+904846986+909779860+914263829+916833600+916208248+911878159
1200+904601979+896525517+890475363+888690960+891893145+899178035+908581746
1190+917979981+925809258+931183910+933621973+932857653+928976536+922976399
1180+917254065+914751138+916731189+921480819+925681443+927109981+926039946
1170+924501937+924526352+926818189+930657339+934759973+938042661+939799349
1160+939758965+938185785+935616212+932460284+929046811+925656170+921836353
1150+916014908+907063071+896802857+889860700+889502394+893501759+895361122
1140+890473647+880763693+872892910+872077385+877478894+882925999+881992689
1130+873222974+861345171+853559049+854298822+863029406+876126768+890000129
1120+902604507+913179277+921579139+927910659+932416535+935476057+937530409
1111+938792002+939127014+938461872+937231953+936234438+936095470+936935080
1101+938343756+939562458+939843032+938731822+935948519+931085393+923759459
1091+914277356+904020046+894889122+888300057+884837227+884730329+888023047
1081+893813809+899793951+903450386+904020376+902950011+902436044+903838649
1071+907299632+912197665+917641669+922708363+926448996+927912506+926399902
1061+921850013+915168237+908370062+904096656+904288874+908997988+916581071
1051+924977632+932733995+939249221+944651125+949461792+954040188+958275850
1041+961906417+964982238+967862739+970855483+973992935+977145233+980250352
1031+983294697+986072919+988119683+988833061+987510629+983474048+976556041
1021+967712158+959368319+954968219+957094167+965248295+975999711+985781788
1011+993120523+998334960+1002212976+1005342972+1008054152+1010488321+1012593087
1001+1014039178+1014358617+1013294390+1010898492+1007384193+1003100756
993+998419555+993285093+987078749+979369962+970546403+960708172+947913291
983+929631054+907721944+890353222+886058040+895835366+912684050+928256955
973+938334056+942802255+943147033+941260550+939567473+940474191+944803488
963+951086772+956890203+960814344+963149468+964969371+966958858+969049569
953+970793522+971751907+971592022+970203010+967959343+965761471+964542967
943+964598791+965496535+966724013+968163901+969772581+971202175+972108761
933+972612435+973169953+974102538+975360501+976657462+977728289+978457042
924+978833164+978846889+978463838+977740760+976812992+975455983+972883968
914+968678990+963878089+960399290+959325428+960239273+962099625+964355830
904+967358142+971859069+977983260+984775496+990938883+995850641+999680157
894+1002754658+1005147124+1006858216+1008089851+1009138109+1009960959
885+1009727433+1007068580+1001600953+995129410+990150676+987196996+985098169
875+983695234+984470705+988294679+993970295+999221486+1002311956+1002764754
866+1001199954+998843649+997148922+997362322+999757823+1003273113+1006319767
856+1007966390+1008292824+1008060091+1008350167+1010073333+1013294588
847+1017131957+1020584823+1023285577+1025327128+1026840393+1028031512
839+1029128798+1030023705+1030396528+1030222258+1029680048+1028628028
830+1026492909+1022520004+1016299539+1008786336+1002652379+1000401190
822+1001665422+1002935857+999873563+989303148+969845298+942690276+912092219
812+883469330+860317764+843565024+833197781+828851987+829118704+831900885
802+835463553+838293839+839073929+838770854+841964988+853232153+871623993
792+890715553+904565819+912104690+915748323+917958733+920262382+924139012
782+930821051+939421379+945941422+945626139+937242709+924802703+914789938
772+911968296+917400423+928971191+943003909+956076856+966397183+973930842
762+979299951+982428890+981816339+975071877+961021607+941788309+921944241
752+904989781+891638240+882062106+878111241+881894567+893110395+908848001
742+925362201+939302010+948001515+949848736+944696656+933749195+918956908
732+902368474+886008682+872271055+863879244+862796607+868940395+880187699
722+893689095+906921134+917894792+925389585+929406833+931272068+933201772
713+937250231+944061472+952623725+961271893+968796775+974791369+979450004
703+983281038+986784186+990193831+993487737+996492094+998840151+999984684
693+999459433+997074753+992800489+986732651+979558089+972953980+968920302
683+968313426+970102975+972389995+974280239+976456402+979649942+982898779
673+984221343+983130325+981691889+983380941+988806799+993943768+996970165
663+998720518+999781380+1000393140+1001042049+1002171339+1003746499+1005467620
653+1007099726+1008494611+1009592755+1010491357+1011354326+1012167475
645+1012632613+1012350258+1011170752+1009465929+1008015484+1007356281
636+1006975803+1005217532+1000681962+994246909+988936726+986912529+987338735
626+988162376+988863547+989982543+991104574+991277459+990823473+991284321
616+993711628+997736860+1002201693+1006080633+1008836090+1010402935+1011042739
606+1011055210+1010454536+1008998878+1006659399+1003992628+1001835403
598+1000464273+999221156+997247439+994404881+991254034+988520220+987001347
588+987479220+990018176+993626440+997134537+1000037671+1002083247+1002900818
578+1002572800+1001761696+1000870155+999623871+997589579+994488749+990033287
568+984296369+978543286+974998764+975279998+979143431+984758010+990029657
558+993731490+995822135+996940669+997386869+996697048+994540350+991585813
548+988880505+986734894+984625641+981623329+976736514+969726193+961898037
538+955384593+951509216+950271181+951051271+953166529+955899814+958612974
528+961062584+963248381+964672300+964261469+961661740+958255790+956633846
518+958790279+964303965+970751818+976005848+979221625+980294365+979615234
509+978064489+976576629+975766251+975939135+977018738+978363605+978935376
499+977608061+973629284+967750958+962484524+959828310+959235093+959114404
489+959345818+960505924+961757024+961591927+960320304+959556578+959289928
479+957890424+954907248+952023118+950981260+951608855+951897744+950197738
469+947155570+944614041+943306654+942576383+942057995+942000851+941974522
459+941151277+939893181+939099102+938392058+937152637+935836078+935300797
449+936142189+938695134+942014642+943250236+940070553+933302929+925363191
439+917245883+909660953+905258939+906689522+913394129+922715621+932352132
429+940490886+945723931+947403019+945432799+940782941+936327676+936015099
419+942629502+952987376+959972622+961958877+961253483+960726648+962711121
409+967513012+973173912+976857005+976859843+974290137+972442124+974101284
399+979059167+982704449+980795333+977760358+979912502+986841990+993872239
390+998174811+1001280392+1005531759+1009475101+1009207857+1005066753+1001417313
380+1001313319+1005409090+1011172732+1010745932+999729515
##END=
