##TITLE=JB-303 F3
##JCAMP-DX=4.24
##DATA TYPE=INFRARED SPECTRUM
##DATE=4/5/2020
##SAMPLING PROCEDURE=Diamant-ATR
##ORIGIN=Angelika Moesle
##XUNITS=1/CM
##YUNITS=TRANSMITTANCE
##RESOLUTION=4
##FIRSTX=3997.453
##LASTX=373.96442
##DELTAX=-1.4165319
##MAXY=0.94410753
##MINY=0.48753747
##XFACTOR=1
##YFACTOR=8.7926866e-010
##NPOINTS=2559
##FIRSTY=0.90885156
##XYDATA=(X++(Y..Y))
3997+1033644899+1033567687+1033359847+1033198713+1033349136+1033716484
3989+1033890634+1033623342+1033115468+1032781133+1032762898+1032756322
3980+1032415751+1031877168+1031679699+1032096194+1032697685+1032764931
3972+1032066638+1031046822+1030339920+1030286909+1030809561+1031565746
3963+1032221468+1032629354+1032821739+1032924032+1033074930+1033303853
3955+1033458683+1033363643+1033022733+1032565293+1032070841+1031615503
3946+1031426575+1031754267+1032512418+1033165428+1033248131+1032946606
3938+1032795301+1032981653+1033251046+1033350492+1033320190+1033368049
3929+1033595345+1033886566+1033992724+1033745430+1033294498+1033019953
3921+1033121433+1033491696+1033900463+1034120031+1033994080+1033568365
3912+1033177495+1033254910+1033903310+1034696644+1035106495+1035026437
3904+1034742062+1034432403+1034036380+1033671811+1033562536+1033597515
3895+1033491289+1033179867+1032846481+1032710700+1032832585+1033175800
3887+1033734855+1034336142+1034562557+1034284487+1033863722+1033689911
3878+1033868670+1034337091+1034951869+1035311896+1034995932+1034176093
3870+1033530539+1033414756+1033502339+1033444176+1033408655+1033868874
3861+1034817986+1035542039+1035389717+1034367257+1033012768+1032069824
3853+1032058029+1032558989+1032986194+1033327918+1033598735+1033701706
3844+1033694859+1033800813+1034019772+1034080782+1033969540+1034014348
3836+1034153790+1033883380+1033102385+1032332981+1032139104+1032530314
3827+1033020563+1033076082+1032612949+1032181676+1032437376+1033113095
3819+1033262027+1033058932+1033536844+1034805106+1035787163+1035912505
3810+1035515059+1035062161+1034790938+1034712235+1034825443+1035274408
3802+1036007206+1036422955+1036227520+1036060895+1036361064+1036666385
3793+1036379164+1035598982+1034826256+1034358106+1034052514+1033606192
3785+1033104689+1033039409+1033594329+1034392407+1035013082+1035331961
3776+1035351552+1035109885+1034786532+1034609670+1034624652+1034663359
3768+1034612179+1034599299+1034737724+1034897028+1034935871+1034958919
3759+1035136526+1035389649+1035493027+1035395886+1035222550+1035144457
3751+1035132933+1034810326+1034094949+1033444379+1033366083+1034025737
3742+1034817511+1035024335+1034627296+1034226257+1034710879+1036195185
3734+1037281841+1036911171+1035821668+1035064534+1034892418+1035134899
3725+1035606777+1035913725+1035442796+1034190396+1033150515+1033187460
3717+1033991368+1034677188+1034866523+1034839407+1034923601+1034939057
3708+1034606078+1034182668+1034132301+1034554626+1035108868+1035420765
3700+1035535802+1035770148+1036235248+1036703737+1036803454+1036388180
3691+1035744660+1035350264+1035366059+1035500688+1035462048+1035142762
3683+1034590079+1034063360+1033808541+1033711061+1033518473+1033478545
3674+1034229375+1035761268+1037553267+1039025235+1039395566+1038541358
3666+1037261979+1036223453+1035607252+1035288102+1035087785+1035048536
3657+1035390734+1036016561+1036367301+1036217148+1035914132+1035696123
3649+1035288847+1034468263+1033661236+1033331986+1033560637+1034121929
3640+1034601400+1034699423+1034534967+1034484803+1034699897+1034853507
3632+1034545678+1033986555+1034027025+1034880352+1035529091+1035579323
3623+1035544276+1035892643+1036662793+1037375118+1037298517+1036356726
3615+1035314133+1034816155+1034657665+1034250796+1033636764+1033339985
3606+1033432720+1033573856+1033710925+1034021534+1034500124+1034977493
3598+1035399275+1035825735+1036237892+1036486067+1036444783+1036228605
3589+1036141903+1036321137+1036453732+1036163392+1035554919+1034979933
3581+1034653055+1034517478+1034346446+1034037261+1033740210+1033701977
3572+1034123285+1035053484+1036240942+1037159753+1037426977+1037175073
3564+1036662318+1035948094+1035198146+1034738876+1034652988+1034601400
3555+1034191345+1033388928+1032570106+1032206961+1032501707+1033313072
3547+1034260693+1034843610+1034767415+1034209242+1033557994+1033041307
3538+1032741680+1032780184+1033211999+1033771461+1034063970+1034033939
3530+1034004519+1034240831+1034611975+1034713320+1034267811+1033460310
3521+1032846685+1032791437+1033090183+1033232065+1032940369+1032409175
3513+1032059724+1032104803+1032381382+1032597357+1032649080+1032618711
3504+1032575800+1032466728+1032175575+1031714678+1031269780+1030979033
3496+1030804070+1030688354+1030649986+1030642936+1030574605+1030521458
3488+1030685168+1031093664+1031557883+1031886523+1031989291+1031888692
3479+1031724372+1031619706+1031572118+1031596183+1031811277+1032198420
3471+1032498114+1032578512+1032641556+1032844719+1032955757+1032608271
3462+1031787212+1030901822+1030373001+1030255183+1030307110+1030321278
3454+1030286570+1030343512+1030668899+1031304759+1032057351+1032609220
3445+1032734901+1032472287+1032145341+1032034777+1031938924+1031434642
3437+1030619345+1030097371+1030210917+1030738383+1031292760+1031659295
3428+1031813853+1031859136+1031954448+1032241669+1032709616+1033095538
3420+1033154175+1033019140+1032920507+1032702159+1032103244+1031324824
3411+1030858098+1030978830+1031631705+1032428563+1032665892+1031883201
3403+1030527491+1029619188+1029696128+1030401269+1031019842+1031104578
3394+1030638123+1029911833+1029351897+1029281057+1029725956+1030433875
3386+1031045195+1031322723+1031325977+1031298929+1031307335+1031114272
3377+1030501122+1029544417+1028497011+1027548848+1026772665+1026183241
3369+1025824705+1025852092+1026437720+1027497125+1028630419+1029461986
3360+1029943355+1030239728+1030473938+1030669238+1030786377+1030753703
3352+1030633717+1030722927+1031197178+1031714610+1031745319+1031250731
3343+1030626599+1030087813+1029584548+1029216454+1029211099+1029538113
3335+1029982265+1030543218+1031362718+1032291426+1032879562+1032810282
3326+1032213265+1031618079+1031616317+1032331422+1033185562+1033435838
3318+1032959011+1032265531+1031805041+1031580456+1031384750+1031124305
3309+1030875113+1030741704+1030697777+1030589857+1030378898+1030280808
3301+1030517188+1030996116+1031373090+1031426372+1031300624+1031335264
3292+1031661667+1032074502+1032342403+1032479947+1032611390+1032763982
3284+1032911898+1033059610+1033222168+1033418755+1033626867+1033679471
3275+1033399639+1032916101+1032589765+1032547465+1032555125+1032426055
3267+1032296917+1032346335+1032423208+1032225467+1031802533+1031577880
3258+1031805515+1032305730+1032825806+1033308259+1033681437+1033779460
3250+1033643001+1033557858+1033644560+1033732889+1033756005+1033883990
3241+1034075155+1033903717+1033177562+1032390398+1032151442+1032411819
3233+1032633692+1032486997+1032066164+1031687969+1031725728+1032386737
3224+1033433669+1034293029+1034539577+1034198599+1033617716+1033142177
3216+1032914677+1032934607+1033170309+1033502407+1033715806+1033749497
3207+1033809151+1034070884+1034449282+1034726674+1034756162+1034585538
3199+1034479584+1034654343+1034943531+1034992271+1034792700+1034714947
3190+1035003659+1035503331+1035909048+1036079469+1036027746+1035765335
3182+1035348163+1035024200+1035072465+1035412494+1035585288+1035224583
3173+1034421963+1033622393+1033291787+1033620563+1034377697+1035059856
3165+1035279221+1035010303+1034495785+1034042277+1033905818+1034176364
3156+1034648175+1034926719+1034801920+1034480261+1034345972+1034535781
3148+1034875335+1035186893+1035425103+1035484486+1035208653+1034754874
3139+1034620449+1035025081+1035504755+1035422459+1034749044+1034052107
3131+1033786781+1033900938+1034146333+1034403186+1034526222+1034197378
3122+1033326223+1032441850+1032246482+1032822010+1033645509+1034284487
3114+1034653937+1034710744+1034471923+1034280352+1034497412+1034978103
3105+1035301727+1035353382+1035266545+1035042774+1034646141+1034246525
3097+1034044989+1034012925+1033981606+1033851520+1033610666+1033236471
3088+1032691042+1032032608+1031504939+1031350787+1031444539+1031251002
3080+1030331649+1028819889+1027253559+1026079320+1025510300+1025633201
3071+1026322140+1027134997+1027588572+1027542543+1027206310+1026890957
3063+1026872382+1027327720+1028137662+1028776911+1028674211+1027756214
3054+1026499815+1025517418+1025272022+1025970248+1027374359+1028836159
3046+1029820250+1030345275+1030821492+1031582422+1032590443+1033505118
3037+1034020246+1034117523+1033997672+1033893888+1033964524+1034197378
3029+1034430165+1034598960+1034863065+1035358941+1035970736+1036467018
3020+1036743258+1036836874+1036781220+1036520707+1035968770+1035201603
3012+1034594486+1034560456+1035046638+1035531599+1035685277+1035746490
3003+1036057980+1036558059+1036962555+1037164769+1037249980+1037278858
2995+1037205375+1036959030+1036497930+1035740525+1034583165+1033083810
2986+1031426169+1029560280+1027108762+1023731859+1019390252+1014297069
2978+1008901209+1003875951+999879254+997178680+995323230+993111211+989207724
2968+983130179+975622424+968079758+961740547+957265396+954723245+953762066
2958+953713462+953609813+952483365+950058488+947223896+945651601+946704226
2948+950398585+955224137+959001537+960184521+958712282+955918363+953590764
2938+952782043+953238058+953842261+953502435+951585704+947732719+941657547
2928+933478614+924422222+917057637+914269752+917413665+925325712+935276850
2918+944923480+953338454+960532549+966590910+971456661+975153867+977803260
2908+979428905+980010060+979793271+979412636+979529572+980272538+981063906
2898+981083564+979901868+977651277+974795332+971898983+969438993+967605574
2888+966342125+965623631+965551639+966190549+967461997+969216713+971339861
2878+973805953+976628953+979747852+983009921+986199660+988907893+990473003
2868+990375862+988696257+985923149+982367147+978018625+972904496+967291237
2859+961487627+955570538+949301490+942263715+934243409+925751020+918299259
2849+913941789+914056691+918193983+924184554+929831708+934815072+940782596
2839+949369957+960282070+971487302+981013810+988193263+993398568+997259891
2829+1000338998+1003073195+1005600772+1007717276+1009206801+1010169539
2820+1010894948+1011524842+1012022752+1012434841+1012993082+1013909249
2812+1015166055+1016529018+1017690581+1018413007+1018655962+1018618678
2803+1018576310+1018647421+1018807945+1019113673+1019695708+1020484703
2795+1021172693+1021577460+1021871257+1022314258+1022899343+1023402066
2786+1023703048+1023936513+1024309488+1024846376+1025339065+1025567175
2778+1025569683+1025620932+1025868226+1026086641+1025964486+1025594020
2769+1025441020+1025785659+1026411892+1026945459+1027296741+1027628161
2761+1028049875+1028523245+1028961771+1029283904+1029433108+1029446937
2752+1029481238+1029707720+1030141840+1030540507+1030551353+1030060900
2744+1029352168+1028855004+1028777928+1028963670+1029026171+1028676787
2735+1028015439+1027474687+1027435098+1027905621+1028574087+1029143310
2727+1029572549+1029961251+1030326633+1030655748+1031036383+1031531919
2718+1032015932+1032287427+1032294273+1032178151+1032105007+1032023389
2710+1031679225+1030980999+1030158652+1029453851+1028937164+1028704919
2701+1028864494+1029277261+1029664742+1029941185+1030198919+1030531152
2693+1031048788+1031819276+1032649894+1033159734+1033172139+1032889595
2684+1032683042+1032809265+1033260265+1033764614+1034000181+1033907174
2676+1033734719+1033713366+1033785425+1033760886+1033629036+1033551418
2667+1033586940+1033577110+1033336256+1032866750+1032354673+1032016610
2659+1031967260+1032148324+1032363960+1032477303+1032537771+1032631184
2650+1032729546+1032814417+1032949995+1033110655+1033152819+1033060016
2642+1033028291+1033274433+1033870975+1034694203+1035448829+1035854546
2633+1035863290+1035616200+1035275018+1035022505+1035085413+1035567053
2625+1036304460+1037010685+1037501816+1037722062+1037687964+1037542828
2616+1037548387+1037834727+1038208244+1038337924+1038095917+1037667017
2608+1037401556+1037593873+1038275083+1039130308+1039667196+1039557175
2599+1038851425+1037928343+1037281569+1037244353+1037764362+1038498719
2591+1039199859+1039847786+1040381894+1040610343+1040482290+1040211202
2582+1040082810+1040280482+1040779341+1041279487+1041430249+1041231696
2574+1041054496+1041224646+1041718691+1042225752+1042379904+1042026995
2565+1041412082+1041031176+1041170076+1041641547+1042054585+1042221888
2557+1042223786+1042221685+1042330215+1042579068+1042863713+1042911843
2548+1042465454+1041692660+1041213664+1041378594+1041775024+1041906805
2540+1042011946+1042682175+1043980739+1045342821+1046117309+1046062942
2531+1045505446+1045029229+1044952289+1045166773+1045362412+1045269609
2523+1044867824+1044426925+1044190613+1044139771+1044209526+1044535116
2514+1045291640+1046360739+1047227284+1047342254+1046687142+1045802701
2506+1045157621+1044751905+1044405639+1044091980+1043877835+1043829976
2497+1044094014+1044838200+1045966072+1047062625+1047760511+1047988757
2489+1047795084+1047260297+1046682126+1046450423+1046673923+1047210744
2480+1047896970+1048511341+1048839914+1048950816+1049057042+1049126458
2472+1048981864+1048654443+1048304246+1047995264+1047778408+1047788237
2463+1048035192+1048271843+1048243101+1047959268+1047595378+1047302530
2455+1047260975+1047623917+1048210426+1048585909+1048628548+1048652613
2446+1048881672+1049219599+1049521192+1049669243+1049451912+1048784259
2438+1047999264+1047582837+1047618019+1047738955+1047647507+1047420754
2429+1047220844+1047018223+1046839735+1046965754+1047494101+1047975809
2421+1047915409+1047460071+1047204507+1047438379+1047881040+1048092202
2412+1047942660+1047697061+1047738683+1048237203+1049014606+1049685987
2404+1049961345+1049848816+1049532377+1049107409+1048550184+1047889649
2395+1047261789+1046824279+1046696226+1046907049+1047386859+1048033091
2387+1048720605+1049272949+1049559357+1049581660+1049384191+1049002811
2378+1048556285+1048203512+1047979063+1047828843+1047770748+1047931204
2370+1048449992+1049265154+1050017949+1050448002+1050697397+1050882122
2361+1050783082+1050269853+1049503296+1048705217+1048136740+1047945439
2353+1047824165+1047385300+1046721850+1046177980+1045986476+1046319387
2344+1047277990+1048509036+1049237292+1049115679+1048694236+1048731519
2336+1049264137+1049654058+1049404121+1048624955+1047697332+1046752423
2327+1045770365+1045061836+1045180737+1046211942+1047491593+1048325464
2319+1048648071+1048683864+1048454941+1047908156+1047255281+1046957078
2310+1047275685+1047917510+1048351698+1048442671+1048476159+1048615397
2302+1048670306+1048447552+1048121352+1048101354+1048502257+1048946953
2293+1049077988+1049027282+1049130864+1049398155+1049499093+1049183061
2285+1048660341+1048511341+1048995896+1049603420+1049702527+1049403782
2276+1049260951+1049358160+1049254172+1048750229+1048242219+1048226560
2268+1048738569+1049400392+1049812481+1049780959+1049348195+1048757550
2259+1048327972+1048349393+1048980915+1050075638+1051261265+1052325483
2251+1053236091+1053770064+1053586831+1052692492+1051533302+1050717192
2242+1050658080+1051227506+1051863230+1052213699+1052365817+1052385137
2234+1052151876+1051696673+1051288177+1051125145+1051117756+1051043188
2225+1050997295+1051486595+1052618263+1053520737+1053370516+1052737097
2217+1052903383+1053976752+1054700060+1054282006+1053481216+1053433086
2208+1054084333+1054504489+1054383825+1054333119+1054730429+1055265419
2200+1055859453+1056975258+1058551486+1059602688+1059599570+1059504936
2191+1060485706+1062079897+1062576451+1061028356+1058155734+1055455906
2183+1054063726+1054180187+1055011550+1055642936+1056204431+1057554650
2174+1059654411+1061050320+1060486858+1058614123+1057425309+1057968705
2166+1059282046+1060086633+1060691106+1062258589+1065014682+1067943162
2157+1069552266+1068959520+1066875080+1065119483+1064681160+1064657841
2149+1063571049+1061374283+1059470161+1058896802+1059390034+1060432559
2140+1062141314+1064414682+1066180040+1066404150+1065263128+1063665615
2132+1062175073+1060858274+1059692915+1058736007+1058132550+1058175325
2123+1059150875+1060850546+1062415384+1063046770+1062744296+1062016040
2115+1061138310+1060096327+1058971031+1057998057+1057434054+1057504215
2106+1058183324+1058970963+1059262930+1059048175+1058903988+1059261642
2098+1059998507+1060797196+1061573175+1062384473+1063086291+1063304232
2089+1062806933+1061786304+1060659178+1059754942+1059302248+1059412404
2081+1059912483+1060481571+1061017578+1061608697+1062185851+1062450770
2072+1062174802+1061500641+1060851291+1060453642+1060153540+1059800496
2064+1059412337+1058921545+1058278161+1057766084+1057809062+1058646322
2055+1060133814+1061363979+1060981243+1058763258+1056406442+1055892941
2047+1057397515+1059531713+1061052963+1061515758+1061023272+1060084260
2038+1059344412+1059015297+1058807253+1058830640+1060080803+1063188246
2030+1067068481+1069809525+1070538459+1069729263+1068431242+1067818227
2021+1068643421+1070479008+1071941689+1072091096+1071449406+1071327996
2013+1072263754+1073462397+1073741823+1072659777+1070568829+1068127005
2004+1066081136+1064913337+1064498401+1064595678+1065352609+1066605348
1996+1067283372+1066599654+1065348745+1064973330+1065487848+1065398638
1987+1063772179+1061379096+1059447994+1058044221+1056718542+1056331399
1979+1058531827+1063013689+1066990795+1068462899+1068183405+1067829208
1970+1067877135+1067609640+1066380289+1064322015+1061990551+1060183910
1962+1060003117+1061701567+1063568609+1063693273+1062573333+1062222525
1953+1063178281+1064067739+1064003068+1063872507+1064772879+1066208037
1945+1066706014+1065823877+1064605033+1064009711+1063992764+1064268868
1936+1064695870+1064959976+1064868393+1064751186+1064876663+1064885001
1928+1064411767+1063855153+1063962530+1064811315+1065550214+1065351863
1919+1064354282+1063445979+1063357175+1064106446+1065271262+1066364765
1911+1066941716+1066847761+1066463127+1066381577+1066767092+1067232937
1902+1067364787+1067155251+1066810613+1066392897+1065846790+1065217845
1894+1064710242+1064562801+1064804468+1065102333+1065048237+1064601237
1885+1063937313+1063153944+1062453550+1062209442+1062537269+1063105136
1877+1063516073+1063604130+1063425913+1063336161+1063901520+1065241435
1868+1066523798+1066922329+1066783294+1066824713+1067174503+1067610386
1860+1067983767+1068178592+1068080366+1067764877+1067437321+1067145625
1851+1066757466+1066224510+1065720635+1065449954+1065374302+1065244418
1843+1064976313+1064782437+1064781352+1064824398+1064732544+1064566597
1834+1064545447+1064714851+1064920319+1065094605+1065354643+1065702468
1826+1065912410+1065878922+1065864009+1066143028+1066563658+1066788920
1817+1066802952+1066814002+1066769465+1066479599+1066062630+1065789983
1809+1065622612+1065356676+1065026341+1064803723+1064689363+1064485725
1800+1064061366+1063582438+1063317926+1063299352+1063335144+1063180721
1792+1062650680+1061819656+1061042524+1060648670+1060748388+1061125362
1783+1061346557+1061223046+1060939756+1060655788+1060339485+1060028199
1775+1059863675+1059863946+1059871810+1059723827+1059397288+1059035092
1766+1058841758+1058880804+1059043497+1059134809+1058941950+1058463835
1758+1057930472+1057442053+1056847612+1056026214+1054971215+1053657670
1749+1052134589+1050560531+1049012098+1047582701+1046420393+1045448843
1741+1044427400+1043384061+1042563544+1042000896+1041453094+1040454022
1732+1038724931+1036463968+1033654457+1030037378+1025433156+1019456888
1724+1011696620+1002595826+992802568+981385632+965773986+944292298+918249976
1714+888886067+856177454+821826519+790405624+767801555+759127967+765055562
1704+779234083+795161150+810991957+822926258+822203493+804318141+773757758
1694+744233867+727725171+726872183+740551981+763722494+788812043+812744774
1684+833577587+843432329+839985197+829633766+817938352+808814239+806362925
1674+813321997+828369232+849488656+875664861+901534321+920004624+931497348
1664+940443516+949276611+957286614+962826254+965769716+967015743+967637299
1655+969362527+974019759+979161614+981921503+983660356+985953586+988599318
1645+990448328+991572946+992617301+993739207+994809865+995930212+997477494
1635+999243055+1000432682+1001111927+1001963491+1003384414+1005121572
1626+1006711289+1008160141+1009667224+1010983684+1011745631+1012061595
1618+1012242117+1012282316+1011881683+1011019883+1009949361+1008934222
1609+1008175190+1007673959+1007146358+1006075158+1003654959+998663867+989584020
1599+975016798+954420025+929510795+905404524+888754556+883126858+886829623
1589+895216058+903984686+910712597+914613238+916009825+916250272+917206231
1579+920361464+926977050+938010776+951055798+961575278+969241320+976422875
1570+984076376+990640510+994782546+996824822+997256163+996354977+994833388
1560+994765667+998464568+1003628657+1007844380+1011385672+1014443968+1017042519
1550+1019407673+1021574477+1023454941+1025200912+1026936782+1028555445
1541+1030189157+1031983190+1033273145+1033844741+1034333363+1035296711
1533+1036603613+1037543370+1037914243+1038147369+1038625281+1039338284
1524+1040103553+1040895463+1041678018+1042254427+1042598184+1042934959
1516+1043431920+1043998364+1044433501+1044661678+1044761463+1044896634
1507+1045242290+1045713490+1046053587+1046340334+1046750321+1047313850
1499+1047946117+1048511273+1048822018+1048790428+1048537575+1048255845
1490+1048164940+1048368578+1048538999+1048244592+1047392214+1046005186
1482+1043977417+1040885362+1035343960+1024776553+1007091856+983955576+963421034
1472+955499021+959807344+967595542+972740650+971912135+962584451+946507910
1462+930121844+919013415+917030996+926534253+941673681+952596165+959402915
1452+965884686+973166907+980117573+984917026+986573651+985771844+983951509
1442+981968413+979971013+978146611+977268609+978132917+980074323+981654143
1432+982070774+979763579+971584443+956172165+937623973+924204416+922610835
1422+931988411+946304475+960485097+971221027+977071343+979057287+978700785
1412+977136556+975667436+975591783+977420863+980856675+985137204+989176541
1402+992290152+994762142+997142820+999380531+1000888834+1001132874+999825023
1392+996889018+992271646+986064963+979599869+975892427+976727857+980186378
1383+983256063+984932889+986215929+988219023+991115574+994712656+998781820
1373+1002650396+1005587417+1007455001+1008314496+1007990262+1006159081
1364+1001967423+993714126+981076379+967994072+960701208+963023181+973724538
1354+987612244+999726187+1008246233+1013722558+1017217957+1019461904+1020784533
1344+1021293221+1020991425+1019643714+1016488684+1010349654+1000799013
1336+989584765+980497326+977261966+980786175+988277728+995418270+999203670
1326+998562590+993244620+983393132+970327773+957026712+947330189+944203833
1316+948298689+957870480+969686625+980420318+988215362+993189372+996523568
1306+999298778+1001931223+1004278414+1006041942+1006994104+1006922858
1298+1005443298+1001724806+994391676+982196319+965445617+947146007+932558583
1288+926615599+930538610+940843267+952090596+960470251+964890019+965683691
1278+963035722+956214940+943593598+923603197+896274581+863537158+827618876
1268+790630073+757249197+735747986+732747853+746749377+768478359+787263745
1258+797245252+800054762+802889287+811975031+826023126+836464581+834463724
1248+817836736+792639268+769358327+756516128+755831528+762435319+769344362
1238+771840213+768913970+762224766+754072881+745759998+737536663+729922548
1228+724365147+721934169+721676097+721156495+719156791+717773423+721502625
1218+733789836+754156058+778663165+802965685+824683957+843399452+859445488
1208+873170162+884920824+895108951+904051661+911812743+918200422+922702418
1198+924321759+921960537+915654136+907562041+901349122+900207150+905092289
1188+914454273+925504946+935971279+944922870+952225631+957659453+960793943
1179+961541587+960699513+959960343+961139057+964967366+970517988+975845720
1169+979086504+978941842+974619419+966328025+956377633+948958004+947527794
1159+952172824+959896893+967187046+971863055+973018720+970157758+962761448
1149+950718074+935313388+919844710+908942291+906548733+913637078+927487026
1139+943412737+957509097+968103416+975358386+980151671+983235251+984948616
1129+985445779+985107920+984637668+984700169+985396090+985920098+984677663
1119+980112217+972097130+962777989+955563353+952705916+953814399+956747896
1109+959557000+961409399+962226458+961942084+959938651+954952710+945821886
1099+932906137+919029481+908627005+905177567+908895177+916730353+924504586
1089+929124873+929243504+924315861+913240038+894344360+867640961+837520596
1079+812009875+797208103+791423339+785793539+772428892+752756082+737568660
1069+737864694+754174294+774099888+781127494+767417056+738862343+707867568
1060+681947945+660123922+639145973+620294087+608872066+609014558+620825009
1050+641497637+667290970+694494380+719926873+741398190+757960303+769805327
1040+777683277+782316986+784867475+788046774+795586525+809385631+827478418
1030+845715662+861232132+873617230+883173565+889002393+889239925+883522542
1020+875235622+870056008+870859171+874004372+871249364+856098615+829183647
1010+797374051+767592629+743451176+728464544+728103433+744832510+773537308
1000+805193838+833762109+857923357+878320762+895402477+909274660+920183044
990+928576868+934739420+938838411+941581149+944123436+946788556+948439893
980+947524811+942947841+933550809+918499575+900131633+885356299+881355264
970+889029847+901668543+910339555+910703717+905833831+903021745+906673125
960+913213397+913011793+898144334+869834542+839495761+821797845+824910168
950+846105855+875594157+903605000+924666669+937567369+943164291+942803518
941+938206618+931105800+921478219+906795145+884971123+858678321+835820586
931+825148785+831082211+851565843+879671455+907544348+930135537+946321151
921+957447477+965375659+971403447+976072678+979515201+981806329+982935014
911+982573496+979862415+973574454+963394257+951411216+941287149+935312914
901+932847432+931343400+927450962+917045842+895910284+861853960+816723168
891+766790212+721348609+689988249+679212934+689757564+716524684+751549169
881+787642752+820218635+847276298+868673318+885162559+897593617+906705664
871+913176520+917480030+919753059+919701540+916200244+907269871+891658090
861+871041794+850161326+834694409+829325123+836499289+854559197+876771447
851+894107506+900120651+893192220+874977211+848216191+816627315+785735376
841+761232473+745078245+734508466+726074918+719670021+718147211+724401414
832+738790283+757178561+770971295+771811064+759219888+743669117+739606597
822+753536468+779163515+803627711+815928615+809902522+784659431+746165036
812+706852226+680480858+675594838+692329610+723817345+760573497+795108275
802+824172828+847863418+867254768+882851161+894352088+900747495+900352761
792+891685138+875708585+857374877+842893611+833378627+821709990+797535117
782+756353232+704520221+655970836+622847084+607608820+603393232+600632733
772+592405535+576952176+560178697+554480668+569624265+603709061+645079805
762+681754001+707112604+719335821+720044012+714540639+710789744+715191615
752+727584373+740098134+742576903+731853650+716511533+710647184+721828826
742+746008851+773445047+796772899+813307829+822919208+826065833+823609164
732+817209418+808845625+800044526+792527891+788760184+789247790+789788406
722+785464289+778542772+778576124+792106922+815487716+839928186+859932348
713+875071437+886671675+895567543+902280609+907259364+910361654+910376229
703+905299926+894292434+880609383+871505945+873031466+884856763+901130841
693+915696098+925752444+931718883+934933771+935535397+932060132+922507389
683+905817020+882953590+856244294+827478011+798404916+774065655+762738267
673+768695283+787232629+809321639+826258150+834279067+840476056+852484722
663+870793280+891216852+908737229+921478558+930493395+937232763+942735661
653+947552198+951762362+955397948+958517728+960878612+961365404+956480875
643+940065050+908810238+870355839+841857119+836334155+852337213+878367265
633+903801046+923885470+938037078+947193255+951988574+951498595+943855331
623+928720173+909322044+892299712+885051385+891349312+908145364+927593996
613+942958145+951694166+953270868+945105290+920960040+875906393+816925383
603+766706832+749270784+769541696+811147668+853737189+887348411+911458479
594+928265717+939659470+947061881+951684473+954676335+957045353+959610349
584+962842659+966348497+968895190+969385372+967443830+962734129+953762812
574+937431249+910628878+874083075+835885053+809733727+806085126+823914281
564+852505262+880725776+903104989+918200084+924922165+922891414+915344138
554+909193584+910472421+919696455+932451952+943917086+951747855+955750043
544+956775554+955468448+950961097+941510310+926879434+909339398+892191046
534+877976530+868321223+864741427+868359253+878674213+893268890+908730247
524+922192375+932631253+940651560+947306056+953183692+958129027+961804337
514+964662045+967882763+971961146+975822537+978070484+978768981+979217811
504+980370832+982189540+984051362+985354129+986034933+986663403+988061956
494+990702808+994136179+997037272+998334345+998201750+997415534+996321693
484+995156266+994673203+995269067+995819174+994569282+991220308+987322311
475+984535714+983381743+983610666+984858389+986767527+989084212+991892299
465+995403425+999221159+1002197566+1003466371+1002881827+999810923+993199879
455+983965202+974277628+963010640+944557623+916585488+888514448+876719588
445+888657212+915406978+941780177+960035725+971919591+981090547+988465232
435+993658200+997119568+999680836+1001820117+1003890390+1005428317+1004250959
425+998281673+988757470+979181883+971290443+965017869+960828109+958751193
415+957733614+957576751+958773631+960849124+962090406+960649621+955463771
405+947455124+939980043+936140752+935052740+932075994+924607082+917507078
395+916081003+918631424+922462649+928898322+940116367+954033629+964500775
385+966465297+961198779+955349886+953855751+956489485+957936303+947903005
375+918591632+881175962
##END=
