##TITLE=JMB-191_DNK
##JCAMP-DX=5.0
##DATA TYPE=LINK
##BLOCKS=1


$$ === CHEMSPECTRA SPECTRUM ORIG ===
##TITLE=JMB-191_DNK
##JCAMP-DX=5.00
##DATA TYPE=INFRARED SPECTRUM
##DATA CLASS=XYDATA
##ORIGIN=Angelika Moesle
##OWNER=
##XUNITS=1/CM
##YUNITS=TRANSMITTANCE
##XFACTOR=1
##YFACTOR=8.6886332e-010
##FIRSTX=3997.453
##LASTX=373.96442
##MAXX=3997.453
##MAXY=0.9329348851546324
##MINX=373.96442
##MINY=0.4560697999733372
##NPOINTS=2559
##XYDATA= (X++(Y..Y))
2559H77203655H77596463H78062879H78363968H78366095H78088879H77637486H77206605
2551H77049441H77277881H77713222H78035988H78082362H77975894H78031872H78526963
2543H79383579H80048115H79952623H79182649H78421455H78176825H78383656H78771319
2535H79191567H79545341H79789902H79996459H80127075H79960375H79513990H79199319
2527H79314294H79664020H79808768H79495743H78896995H78552345H78953248H79985483
2519H80926342H81207399H80871050H80288149H79812129H79666696H79897880H80272920
2511H80382132H80089207H79712658H79598712H79656062H79621007H79592332H79859326
2503H80455672H81153685H81700089H81932577H81824668H81446953H80871255H80197871
2495H79607699H79259070H79259413H79784071H80851636H81941152H82353923H81948767
2487H81161985H80631496H80930664H81862261H82211645H81472815H80693098H80847863
2479H81327930H81293836H81393581H82139545H82453531H81623325H80465208H79796694
2471H79583003H79761433H80444902H81009555H80889846H80688435H81090023H81711957
2463H81829127H81433370H80795932H80116510H80043039H81816573H85167032H86932403
2455H86121543H84368794H82801474H81776510H81391180H81550197H82009616H82792761
2447H84092676H85401784H85695189H84814836H83498183H82474523H82045768H82161223
2439H82551493H82695829H82294926H82019288H82866576H84116412H83941275H82892438
2431H82965704H84237836H84907722H84313777H83265420H82735068H83079307H83513892
2423H83157511H82729169H83513686H84960132H85325157H84649850H83978388H83638951
2415H83576799H83950742H84704458H85335516H85512505H85440200H85366523H85207369
2407H84930497H84803448H84921784H84966650H84800087H84648136H84604506H84615208
2399H84750420H84986681H85044717H84815385H84395343H83795773H83182688H82996094
2391H83368596H83746997H83614118H83100024H82659608H82920565H84250527H85490279
2383H85223971H84172596H83993548H84994501H85620757H85146795H84190227H83278455
2375H82860539H83582081H85413515H87146780H87722203H87058080H85691896H84408034
2367H83823007H83952182H84561700H85627206H86815164H87228004H86274454H84404604
2359H82876249H83009540H85033124H87389764H88571000H88521058H87754926H86885960
2351H86557157H86892615H87288578H87317939H87148289H86990439H86855364H86807344
2343H87057119H87642763H88144235H88151369H87756503H87160363H86492535H85914025
2335H85433134H84912043H84655888H85346629H86492055H86857903H86920192H87906053
2327H89553293H90401404H90023826H88915924H87650104H86782442H86563880H86833275
2319H87420154H88124889H88432358H88049291H87375358H87247623H88258043H89622648
2311H89959410H89103478H87728994H86516889H85945856H86217789H87130591H88181485
2303H88785103H88397371H87039009H86012329H87237402H90006950H91056404H89786467
2295H87885746H86777914H87032080H88280613H89306468H89372805H88973755H88704565
2287H88517354H88340501H88613464H89554117H90496073H90748455H90485714H90292466
2279H90367721H90373484H90054353H89698452H89721091H89997003H90004137H89651873
2271H89461437H89795110H90098806H89666965H88847598H88360190H88346332H88493687
2263H88632260H88897402H89333291H89596306H89222501H88205838H87206257H87123456
2255H88183817H89437976H89946101H89811438H89608929H89648168H89714025H89382066
2247H88667727H88158641H88325615H88940895H89518924H89935125H90197180H90180990
2239H89948639H89805950H89864055H89987879H90102648H90218171H90236556H90028148
2231H89670258H89410672H89375755H89409781H89290347H89088386H89121040H89507331
2223H89987603H90288487H90443525H90591634H90686577H90646377H90643633H90963381
2215H91573790H92032523H91947664H91429043H90933540H90761078H90847652H90991919
2207H91021623H90777130H90289516H89919758H89998786H90462459H91046045H91592450
2199H91983954H92004740H91534413H90833451H90440232H90644799H91160471H91496683
2191H91472193H91234079H91009412H90985951H91250818H91682728H92012903H92095018
2183H91985669H91696791H91141194H90525365H90414027H91028483H91796743H92001927
2175H91614745H91142429H90969830H91152033H91513902H91670174H91255209H90373621
2167H89571610H89280811H89505959H90059841H90792428H91507728H91998017H92256367
2159H92374429H92282024H91911237H91464098H91163009H90953913H90785568H90897387
2151H91459982H92174115H92593677H92670373H92724361H92997529H93379430H93501608
2143H93066885H92183582H91351661H91000424H91128366H91520829H92075604H92693834
2135H93109006H93145021H92984770H92931261H93030938H93128008H93198324H93432527
2127H93960135H94556687H94688674H93986066H92739454H91797086H91762305H92360572
2119H92780477H92557387H91947115H91526936H91617763H92059483H92432740H92505457
2111H92461140H92655967H93186662H93769082H94079020H94142064H94230559H94397601
2103H94381412H94064339H93744934H93754127H93999649H94122307H93972483H93720581
2095H93605881H93768396H94192074H94617124H94685724H94327423H93802353H93319953
2087H92928380H92760171H92984907H93487819H93961507H94337507H94830198H95533560
2079H96232739H96652027H96692913H96387983H95822919H95197211H94760293H94586939
2071H94569995H94663978H94897769H95149054H95223691H95202562H95384286H95819145
2063H96218264H96356701H96282475H96110699H95895772H95706229H95609845H95615264
2055H95745468H96049438H96455143H96735925H96708211H96434494H96216206H96328026
2047H96720352H97054233H97058074H96801576H96615531H96755751H97151440H97560232
2039H97855489H97974717H97788946H97333438H96949754H96920530H97202548H97651265
2031H98185733H98648788H98792986H98494368H97907900H97396276H97242405H97421658
2023H97707106H97900491H97897541H97740309H97669718H97907077H98372464H98780638
2015H98941164H98857746H98659489H98500953H98466104H98573464H98848553H99278748
2007H99711962H99928191H99836541H99548212H99256041H99092909H99091880H99213029
1999H99380003H99563716H99811364I00123360I00374096I00465541I00461493I00468490
1991I00476448I00407230I00264403I00184826I00335198I00736513I01199705I01488171
1983I01543875I01500588I01497432I01559859I01673874I01811418I01847159I01693150
1975I01539965I01626745I01799824I01713182I01397893I01199500I01247726I01384035
1967I01471364I01467727I01333545I01093786I00877282I00747489I00566384I00136394
1959H99451485H98705795H98053128H97518042H97179635H97213935H97617582H98071650
1951H98254265H98165221H97990427H97789975H97529499H97287201H97132232H96899881
1943H96405819H95821615H95514147H95586863H95848712H96135738H96463375H96943511
1935H97629587H98370475H98914478H99225994H99490724H99785982H99997203I00034797
1927H99932582H99834551H99967431I00422048I00971196I01296844I01292728I01006526
1919I00521725H99999056H99585805H99222976H98718555H97993308H97161593H96435935
1911H95961766H95639137H95096163H93943190H92133435H90082205H88390168H87450750
1903H87320066H87803015H88508504H88954752H88828047H88141010H87099926H85869847
1895H84476223H82912538H81291641H79774261H78403962H77200294H76331122H75958278
1887H76069891H76687572H77999081H80010591H82242241H84013168H84995119H85395267
1879H85622678H85881028H86161468H86514693H87109256H88007651H89036661H89910909
1871H90440575H90636018H90648641H90664351H90863498H91350220H92029436H92688209
1863H93216777H93577823H93655205H93393836H92969403H92578859H92234347H91948830
1855H91916314H92315913H93056389H93827392H94354726H94579393H94582480H94422092
1847H94123610H93751863H93394179H93118404H92943884H92767648H92412228H91855808
1839H91283815H90873171H90702493H90827414H91210892H91634570H91887776H91992117
1831H92129044H92407905H92777253H93137406H93485075H93860869H94163536H94160449
1823H93782253H93318444H93186387H93479518H93850442H93951834H93883027H94033880
1815H94581451H95313215H95871831H96045939H95884659H95615539H95429836H95343605
1807H95286598H95246535H95238509H95190214H95016654H94830266H94907579H95361373
1799H96006906H96605377H97036808H97213318H97118649H96980830H97126812H97604753
1791H98169680H98624709H98956256H99176327H99281561H99353660H99498408H99695978
1783H99840382H99901505H99949457I00042892I00143872I00166990I00113413I00087756
1775I00109091I00010100H99647820H99135716H98781530H98838332H99283070H99756964
1767H99812325H99326769H98615242H98113771H98013820H98163849H98260439H98144778
1759H97908929H97717396H97629724H97601392H97545002H97409036H97276362H97321500
1751H97585339H97887388H98038241H98063829H98161654H98482980H98983491H99466508
1743H99772742H99936492I00131112I00470960I00928458I01427254I01920562I02375522
1735I02759137I03065713I03345947I03703151I04185414I04639825I04813797I04653134
1727I04362816I04163599I04133072I04224654I04329887I04395332I04505437I04738679
1719I04999636I05117149I05028586I04786151I04494049I04269656I04179789I04193646
1711I04249487I04350673I04551398I04835543I05082506I05231712I05390317I05655528
1703I05950168I06164957I06333440I06544456I06788468I06969231I07006550I06914488
1695I06802669I06776669I06837381I06908039I06968065I07115694I07420007I07738931
1687I07853769I07805611I07854318I08057444I08161512I07987335I07684257I07495536
1679I07459246I07472280I07528327I07712246I07997830I08243764I08404495I08561866
1671I08740022I08860484I08893687I08904869I08946784I08996382I09021353I09056477
1663I09166101I09318463I09379792I09287181I09165277I09190248I09369433I09544571
1655I09627029I09741935I10051599I10492152I10790085I10740075I10388428I09958233
1647I09666954I09616464I09778842I10025325I10218230I10340408I10485704I10677443
1639I10792418I10729648I10545044I10369975I10294239I10349943I10502511I10634430
1631I10611175I10398580I10110389I09923796I09930587I10068749I10216515I10320102
1623I10389937I10409900I10351590I10279216I10316740I10463340I10577972I10622014
1615I10743574I11020309I11307884I11491665I11715646I12182886I12811886I13253949
1607I13257310I12937562I12642991I12608210I12816756I13174440I13656292I14204960
1599I14633509I14804119I14856942I15063773I15439087I15695860I15641528I15441968
1591I15390106I15534305I15664851I15617792I15446084I15271770I15114812I14930207
1583I14680638I14369533I14146581I14261419I14683656I14964782I14767898I14355127
1575I14275207I14735038I15472016I16118440I16519343I16715129I16746480I16631711
1567I16512551I16606054I16944942I17299950I17389406I17096755I16533474I15977191
1559I15747859I16073232I16921549I17882439I18406548I18381029I18289241
1552I18597806I19191272I19628807I19724437I19599652I19359275I19028551
1545I18721288I18598973I18708460I19030197I19574476I20257807I20857789
1538I21268295I21611574I21940171I22069415I21870952I21491797I21142962
1531I20920765I20918707I21221373I21719483I22160174I22351364I22145630
1524I21455987I20527957I19930445I20026005I20632985I21282153I21616376
1517I21571991I21385260I21395481I21721678I22147414I22320425I22049041
1510I21505517I21157368I21317345I21743356I21894758I21620286I21344168
1503I21493169I21994434I22488908I22804403I23005952I23119898I23077983
1496I22967604I23107344I23702043I24508102I25053752I25126949I24846989
1489I24391000I23945507I23757953I23903798I24131004I24193293I24179436
1482I24306553I24580819I24872509I25153634I25420560I25515296I25297765
1475I24917854I24639335I24472772I24242617I23889598I23472574I23048553
1468I22751237I22771680I23112695I23574446I24044910I24569568I25133328
1461I25597824I25883546I26051275I26186555I26284037I26265583I26131743
1454I26076245I26336242I26872357I27334245I27455394I27359490I27371015
1447I27620928I27946987I28124526I28091529I27964480I27906238I27988010
1440I28124663I28171037I28139274I28214461I28442559I28571459I28387472
1433I28051740I27900133I28021625I28196419I28218097I28147507I28148193
1426I28150320I27931003I27554934I27407441I27698309I28232778I28734112
1419I29081437I29178095I28881397I28215765I27536892I27332393I27782620
1412I28531671I29013797I29023675I28817187I28634298I28415393I28088579
1405I27855885I28011952I28622018I29450920I30143993I30514369I30646905
1398I30628452I30360909I29838720I29349322I29239767I29548676I29905606
1391I29995199I29957468I29946629I29731772I29119922I28450585I28277231
1384I28650282I29044941I29039042I28744813I28445508I28178171I27897663
1377I27787833I28139755I28907534I29591964I29750225I29502508I29359339
1370I29619061I30110448I30500100I30663918I30779716I31152150I31849887
1363I32516275I32748900I32601203I32422498I32295312I31955327I31264380
1356I30500854I30116622I30341015I31040536I31809619I32128887I31726818
1349I31035734I30948954I31750897I32655260I32791226I32219508I31603817
1342I31348005I31418938I31652935I31923564I32168195I32392999I32637629
1335I32932132I33322059I33836427I34365270I34733450I35016634I35502944
1328I36168028I36570920I36424320I35848006I35122279I34679118I35063625
1321I36379250I38030812I39264390I39622348I39015369I37933879I37387062
1314I38025735I39407765I40448370I40506132I39847016I39152434I38787752
1307I38638065I38393024I37713396I36437629I35029050I34468377I35213723
1300I36535727I37315169I37347823I37450313I38331146I39793713I41104330
1293I41767081I41789788I41503037I41254703I41109338I40814560I40201750
1286I39596486I39549083I40017694I40384022I40763864I42439231I45883193
1279I49191531I49996011I48336149I46197521I44893353I44274437I43976504
1272I44210639I45011621I45430497I44326986I41876980I39524249I38420738
1265I38415525I38544906I38330117I38536056I40105435I42319248I43580061
1258I43686735I43708276I44534846I46274903I48273928I49448646I49196058
1251I48056532I47199366I47383559I48408865I49358505I49562112I49289493
1244I49050213I48598272I47440155I45875578I44760885I44557896I45072126
1237I45791131I46177421I45949324I45328282I44819882I44686522I44827291
1230I45127556I45554390I45856987I45609613I44834699I44239520I44458905
1223I45235465I45720609I45468776I44768980I44145948I43905091I44038588
1216I44275535I44336041I44281229I44441273I44960856I45661132I46349678
1209I46934773I47175905I46698855I45507672I44213177I43475856I43422760
1202I43837588I44536011I45206241I45358877I44944529I44592333I44803966
1195I45372735I45969424I46707362I47603493I48110246I47880983I47480080
1188I47527689I47605825I47018809I46247600I46427814I47461146I47928043
1181I47238468I46422806I46522346I47496407I48742265I49685730I49843443
1174I49097068I48050907I47722858I48691912I50528216I52190411I53244324
1167I54464456I56690206I59432245I61287483I61549401I60789922I59818605
1160I58567053I56625859I54619014I53986241I55324983I57824794I60231170
1153I61526831I61024674I58912184I56578730I55631011I56368195I57530771
1146I57819443I57343560I57063806I57212532I57254036I57031015I56631690
1139I55620858I53590140I50923082I48466283I47164174I47978601I50872386
1132I53872363I54661477I53080025I51066045I50410428I51090536I51740938
1125I51369055I50267602I49332780I49080466I49340257I49627077I49788494
1118I50046090I50455019I50853383I51305942I52043674I53001409I53879018
1111I54607352I55417938I56352965I56834131I56079043I54115210I52018772
1104I51075101I51686333I53064453I54137848I54589515I54719925I54663261
1097I54357851I54086123I54351402I55202669I56114578I56488246I56047142
1090I55064507I54158085I53653047I53442923I53355388I53308054I53253928
1083I53251115I53398606I53546647I53407525I53005936I52619303I52300721
1076I51874985I51353277I51000120I50962458I51045191I50920612I50569788
1069I50365495I50534596I50875953I51190007I51633991I52357111I53108220
1062I53576077I53868865I54373217I55309205I56567960I57747069I58290318
1055I58009947I57389248I57052830I57233593I57692463I57979145I57879537
1048I57643345I57639435I57817453I57794335I57498734I57288405I57370040
1041I57604791I57883927I58132811I58075323I57676616I57364071I57440698
1034I57729301I57839063I57618374I57211297I56767794I56244988I55633138
1027I55314831I55685069I56387540I56482483I55638557I54459037I53592198
1020I53103349I52724811I52409933I52404583I52895832I53742845I54590956
1013I55222014I55665380I56044948I56441460I56848262I57209171I57466904
1006I57553889I57456408I57395559I57776019I58612467I59223974I59211969
999I58920759I58695200I58483498I58148520I57768061I57435279I57107093
992I56779319I56552662I56549918I56889491I57505046I58019414I58203401
985I58165876I58026411I57880223I57891336I58082458I58218836I58246345
978I58425736I58791309I59050208I59129236I59303002I59748015I60207434
971I60287216I59954366I59433618I58912664I58548668I58580293I59064752
964I59615135I59941675I60283855I60890491I61404996I61612308I61807614
957I62047236I62101156I61938436I61730232I61508309I61221970I61071322
950I61501449I62558655I63454992I63708128I63656472I63707511I63946859
943I64270105I64559257I64634718I64388304I64126798I64388510I65124459
936I65530575I65520079I65599999I65654330I65391590I65009415I64714638
929I64373829I63975534I64023623I64806563I65329162I64860826I63976288
922I63246171I62868387I62807607I62759449I62397374I61808643I61386200
915I61317119I61329467I61274312I61436210I62094022I62980206I63536488
908I63610715I63365330I63103138I63558373I65380682I67029500I67283049
901I67141457I67578649I68481915I68975565I68944832I68814354I68767637
894I68821281I69143980I69940915I70769817I70941388I70630695I70389975
887I70516475I70863526I71101021I71207558I71352306I71401904I71107058
880I70650521I70552559I71025492I71555021I71778042I71869555I71949612
873I71920731I71730981I71478257I71263125I71120367I71041956I70976237
866I70900776I70925404I71246249I71909344I72589245I72676780I71632471
859I69234533I65554997I60738472I54821111I47971947I41188297I36364020
852I35071789I37454635I41419276I42910381I40800223I38186604I38449276
845I43059176I49722569I54808832I57011258I56497576I54022599I51045534
838I50102343I52854260I55753189I56377662I55699338I54898562I54688163
831I55227090I56216518I57437268I59081079I61343050I64082414I67257048
824I70538084I72566676I73099429I73201781I73842375I75153609I76281679
817I76703848I76762844I76910336I77173763I77417569I77880624I78866622
810I79999289I80733728I81143274I81482299I81770285I81973960I82121864
803I82235192I82579636I83861646I85807917I86902647I87052334I86967269
796I87087869I87582412I88377426I89039422I89167157I88808993I88085392
789I86611711I83014702I75414154I62789565I45004280I22403432H97292757
782H75571301H64128771H66033813H79160354H98589654I19591900I37739053
775I49806536I56435080I60123878I62464534I63649269I63224493I61098557
768I57464846I52078798I44226897I34835253I26882578I21818268I20141460
761I22840075I30651845I42502411I55343849I66534752I74791534I78193787
754I73067392I53764935I13573491H55888247H03599340G74927535G70707905
747G87287120H16878039H46387665H67871557H81850325H90896907H96387777
740H99635678I02417162I05754107I09469865I13573697I18463967I24102123
733I29896757I35179423I39635108I43404306I46686301I49311925I51114340
726I52380709I53486690I54464731I55186067I55696868I56066352I56176867
719I55934913I55467467I55008391I54683154I54481881I54453206I54728706
712I55382608I56387333I57662141I59100767I60368850I60512638I58327705
705I53676097I47932228I43152610I40793500I40985719I43230335I47039938
698I51601337I55928738I59582481I62572100I64873792I66332380I66905676
691I66928177I67073199I67940106I69593795I71551865I73246920I74476588
684I75406128I76181865I76622693I76407355I75483853I74106556I72627044
677I71362870I70524775I70181840I70309849I70874227I71800269I72875105
670I73778919I74266464I74250960I73686994I72452456I70444032I67793232
663I64983210I62717740I61586034I61790875I63171876I65436112I68228572
656I71055402I73427889I75136802I76219046I76731425I76716059I76281336
649I75542300I74557331I73412385I72278759I71322808I70625207I70215318
642I70116052I70348403I70934733I71848906I72942059I73996315I74881400
635I75581883I76092821I76417440I76665637I77059885I77814082I79031058
628I80661903I82488123I84197035I85586200I86695130I87667477I88563265
621I89386473I90187524I90992142I91719515I92317851I92884698I93522068
614I94164993I94676686I95021816I95268779I95513341I95844888I96295320
607I96799878I97287424I97778742I98319041I98859066I99260929I99291594
600I98372550I95304657I88707052I78427578I66473492I55702974I47501415
593I41769551I39189204I41742865I50073462I61638376I72567019I80656552
586I85967139I89393882I91604266I92954054I93573861I93380750I92238411
579I90137445I87199894I83620583I79650728I75549366I71508510I67681139
572I64347418I62073716I61627949I63532922I67584069I72896851I78477999
565I83646720I87929806I90836075I91936636I91002432I87872936I82250833
558I73772059I62366092I48764011I34915448I23746565I17937525I18508215
551I24444920I33561201I43690508I53385230I61968551I69235013I75171925
544I79879924I83588752I86588936I89044979I90839299I91577306I90758762
537I88027493I83343779I76905602I68893519I59417771I48841050I38083840
530I28483445I21243188I16823930I14661567I13560731I12630437I12005964
523I12732789I15984943I22236595I30857235I40250594I48311109I52731877
516I51016310I40842687I21394521H94748563H65525756H38827249H18644164
509H07936690H08880430H21808509H44018883H70457667H96039422I17560084
502I33989338I45696736I53617512I58690535I61489581I62077352I60234188
495I56074789I50612663I45554115I42347443I41527871I42939810I46138730
488I50344297I54403470I57337866I59122513I60842471I63841282I68536041
481I74087348I79209969I83100933I85629281I87072571I87930149I88797674
474I90170237I92263450I94960693I97886514A000557071A002425137A002655155
467I99742918I91740644I77980850I61447597I48649517I45426724I52265872
460I64087559I74362985I78991750I77104475I69725370I58158193I43126336
453I25029536I04738679H83851065H64371960H48719610H39907985H40554066
446H50586098H65960204H80630193H90718271H96949685I02945594I11445565
439I22262663I33164346I41982144I48066822I52427084I56725261I61917032
432I67673730I73023419I77307946I80402044I82329106I83097366I82915368
425I82289524I81830379I82019511I83047767I84716823I86581253I88323711
418I89943511I91590889I93362502I95275982I97271783I99161938A000658463
411A001573253A002040424A002454841A003125344A004090694A005253064A006471550
404A007556745A008438607A009257631A010067257A010655782A010880861A010925589
397A011019983A011137701A011093661A010793189A010309006A009786405A009317038
390A008889588A008417478A007816604A007151657A006728597A006920336A007847406
383A009207621A010240542A009679525A005803379I96849271I81987543I62665809
376I43343388I30313163I28514658I38325589I55174611I72705867I86725658
369I96497692A003153402A007773592A010773570A011876738A009737356A002120961
362I88264166I72090175I61574440I62632195I73703870I87745407I98933429
355A006021118A010425352A013580917A016246054A018628694A020542380A021877350
348A022907801A023915065A024735393A024786500A023335390A019912763A014960614
341A010034465A006849883A005944559A006461603A007223277A007807549A008547682
334A009684327A010818640A011337262A011103265A010394756A009420626A008352033
327A007623836A007712057A008636177A009993922A011478442A013163207A015212790
320A017472704A019527638A021089951A022149489A022890788A023691839A025007944
313A027012937A029507876A032295603A035401638A038805605A042162376A044943792
306A046858781A048082960A049060726A050128291A051336486A052518545A053478064
299A054253800A055238358A056815968A058807790A060523700A061482258A061818813
292A061833082A061434580A060194828A057592460A053038196A045985012A036212910
285A024010215A010304821I96720988I85047478I76118203I69169020I62554196
278I55291095I47872545I41352459I35540880I28263510I16410130H97764044
271H72527899H43617774H14593635G86308737G56257645G22161512F85524477
264F50889210F22520002F03071562E95241476F02945199F29063001F71842338
257G24375394G77840665H25521796H64741924H95988383I20811689I40537345
250I56253836I69079633I79918752I89048821I96222741A001334934A005029083
243A008325622A011234772A011748592A006524579I92724653I69367619I37685133
236I00966875H63998567H31474419H04957567G80447217G49938284G07025175
229F52358500E94861771E48237227E24903963E30146086E59441439F01541423
222F45649762F86380956G22974018G55713573G84061652H07346450H25671416
215H39836640H51117342H60870511H69717877H77782028H86157764H96754516
208I08443392I17586976I24431269I31268565I38950199I46660302I53291864
201I58266033I61085043I61009102I57752214I52432777I47279491I44307023
194I44491078I47638959I52414187I56911032I59986951I61990160I63776797
187I65260357I65713121I65702282I67657746I73445108I82019237I90511457
180I97103093A001802105A004698632A004586746A000240273I93204515I88321996
173I90066032I98172098A008128120A015974121A021173369A025167372A028804307
166A031786379A033879800A035509957A036839372A036720281A032642929A021603153
159A001999264I76043223I50484586I34102118I33122911I47362224I70195629
152I93218508A011313388A023842555A032388557A038134416A041441999A043034565
145A044317330A046374734A049123976A051601765A053167028A054355191A056243976
138A059019767A061800085A063895768A065408208A066702292A068057362A069510119
131A070584475A070854762A070922471A071735115A073013283A073708209A073741823
124A073725565A073410550A072284881A071182056A071221913A071495630A069517254
117A063680088A053860170A039595543A018711564I88632619I50084026I08836200
110H71118017H36605752G97419583G45813666F82743335F18776667E69442428
103E47472672E53894179E76593332E99482784F11735832F10224216E98007046
96E81289875E66044943E56008350E53037699E58629892E73405697E94852030
89F17763228F36939941F48882091F52786912F50634358F45914286F42285514
82F42919179F50417169F66502184F90593040G18745951G45710765G68387074
75G86038038G98210138H04408144H05009841H01102138G94125926G85762744
68G77299817G69807727G65113311G65407128G71709476G83202291G97896427
61H13333303H26642596H36036435H42635618H48537680H54476239H60179771
54H65319268H69210163H70528188H68264433H62886823H56567257H52053261
47H50848633H52645697H55892569H58711509H59789089H58289409H53899924
40H48168197H44584907H45985940H52246852H60694893H69132781H78131206
33H89143130H99734806I05110015I04761386I01974207I01632919I07725897
26I19708589I32793010I42469621I47888597I51012536I53678498I56074172
19I57347538I57474656I58047334I59774563I62254136I65997197I71564145
12I78261084I84960492I90641729I93474047I92601995I91237801I92594174
5I95401384I96878495I97139658I99520377A005302594
##END=


$$ === CHEMSPECTRA PEAK TABLE AUTO ===
##TITLE=JMB-191_DNK
##JCAMP-DX=5.00
##DATA TYPE=INFRAREDPEAKTABLE
##DATA CLASS=PEAKTABLE
##$CSTHRESHOLD=0.93
##MAXX=3997.453
##MAXY=0.9329348851546324
##MINX=373.96442
##MINY=0.4560697999733372
##NPOINTS=230
##PEAKTABLE= (XY..XY)
3986.1207448631744, 0.7620360891114042
3979.0380854026585, 0.7628410501408082
3967.7058302658324, 0.7630156317165591
3953.5405113448005, 0.7639040392480791
3945.0413199921813, 0.7633419072704855
3933.709064855356, 0.7643101259799907
3925.2098735027366, 0.7642510571760439
3920.960277826427, 0.7642455138280623
3905.3784270132915, 0.7639559547003124
3894.046171876466, 0.7651484053111267
3886.96351241595, 0.7652019298982287
3882.7139167396404, 0.7657238882424956
3872.798193494918, 0.76423740820215
3865.715534034402, 0.7651978775197043
3855.799810789679, 0.7646371166084295
3844.4675556528537, 0.7658084668735177
3830.3022367318217, 0.7663772143764298
3823.2195772713058, 0.7663542068757162
3817.553449702893, 0.7671128548835742
3809.054258350274, 0.7669761218629058
3803.3881307818606, 0.7669709964381811
3793.472407537138, 0.7677074710541127
3780.7236205082095, 0.7687732613767274
3773.6409610476935, 0.76860040797012
3760.8921740187648, 0.7672029177798722
3753.809514558249, 0.7669105574367786
3745.310323205629, 0.7680695689738594
3736.81113185301, 0.7670851390125295
3725.4788767161845, 0.7679213921544032
3714.146621579359, 0.7670987888552867
3702.8143664425334, 0.7702969948007813
3692.8986431978105, 0.7705143731082221
3677.3167923846754, 0.7686450519052282
3660.318409679437, 0.7703028361688816
3650.4026864347147, 0.7708969153818884
3640.486963189992, 0.769765857784402
3630.5712399452696, 0.7698236146047356
3622.0720485926504, 0.7704888024607145
3610.739793455825, 0.7718464769893234
3602.2406021032057, 0.7735424677797471
3596.574474534793, 0.7730263508035807
3589.491815074277, 0.7728204171637909
3580.9926237216573, 0.7718515433313423
3568.2438366927286, 0.770789031230034
3561.1611772322126, 0.7729485675525843
3554.0785177716966, 0.7716884655059482
3542.746262634871, 0.7731197518727541
3529.997475605942, 0.7727459712168067
3525.7478799296323, 0.7724962868334015
3512.9990929007035, 0.7738475839052416
3503.083369655981, 0.773949627557859
3494.584178303362, 0.7732186354694766
3481.8353912744333, 0.7736708562370903
3471.919668029711, 0.7741450114592173
3459.1708810007817, 0.7736480876737897
3450.6716896481626, 0.7741310045136356
3440.75596640344, 0.7726634778577526
3422.341051806098, 0.7739709060205658
3403.9261372087567, 0.774157587386911
3392.593882071931, 0.7758352199642465
3377.012031258796, 0.7748195569731526
3369.92937179828, 0.7746150534823876
3362.846712337764, 0.7754267490713849
3348.6813934167317, 0.7765421905884209
3340.1822020641125, 0.7764213725371849
3327.4334150351838, 0.7756865661388278
3306.1854366536354, 0.7772590558280834
3299.1027771931194, 0.7778086700918259
3286.3539901641907, 0.7781625433513855
3275.021735027365, 0.778689388182964
3266.522543674746, 0.779036347028223
3253.7737566458172, 0.7793013494719596
3241.024969616888, 0.7795810148530846
3232.525778264269, 0.7799522914449438
3221.1935231274433, 0.7806442420289054
3207.028204206411, 0.7811879558418416
3195.6959490695854, 0.7823779623401368
3188.6132896090694, 0.7821375765319823
3178.697566364347, 0.7832780517389942
3170.198375011728, 0.7833150071025838
3163.115715551212, 0.7830191895523401
3141.8677371696635, 0.7795264763024883
3122.036290680219, 0.778079394869388
3100.7883122986705, 0.7818332354325693
3068.208078780297, 0.7709598584473791
3046.960100398749, 0.761088017604563
3000.2145479593432, 0.7749533697442025
2974.7169739014853, 0.7738987252002568
2952.052463627834, 0.7760568895876249
2946.3863360594214, 0.7766621745308697
2925.1383576778735, 0.7774851957532432
2913.8061025410475, 0.7793537419301556
2888.3085284831895, 0.7820532359695099
2881.2258690226736, 0.7809183041104797
2869.893613885848, 0.7802512690510824
2855.728294964816, 0.7796105188448419
2816.0654019859267, 0.7855680626597191
2799.067019280688, 0.7856086533474396
2772.1529133307267, 0.7878649871258812
2760.820658193901, 0.7887589970880886
2750.904934949179, 0.7884580532442568
2722.574297107115, 0.7899403610029396
2704.1593825097734, 0.7903323808377005
2688.577531696638, 0.7909212746744135
2678.6618084519155, 0.7905994103395627
2667.3295533150895, 0.7909082217407571
2644.6650430414384, 0.7929317991998572
2626.250128444097, 0.7953488865943119
2612.084809523065, 0.794268433334309
2603.5856181704457, 0.7943801917477072
2592.25336303362, 0.7963241378835294
2580.921107896794, 0.7956597250536319
2572.421916544175, 0.7978678386555401
2559.673129515246, 0.7981369534293704
2539.841683025801, 0.8001524852141273
2528.5094278889756, 0.7992938206117775
2520.0102365363564, 0.8005578560026633
2510.094513291634, 0.8003598490029418
2503.011853831118, 0.8005221526711178
2491.6795986942925, 0.8019326966638853
2478.9308116653638, 0.802619401919984
2473.2646840969505, 0.8029856130386875
2452.0167057154026, 0.8017447033139269
2432.1852592259575, 0.8046336808038335
2425.1025997654415, 0.8057486453149069
2415.186876520719, 0.8062236945973902
2409.5207489523063, 0.806426171898893
2401.021557599687, 0.8062183901868216
2395.3554300312744, 0.8064333243817433
2388.2727705707584, 0.8057903090488274
2375.5239835418297, 0.8057251017255248
2362.7751965129005, 0.8061799447226382
2347.1933456997654, 0.8073823490316465
2334.444558670836, 0.8065460368070669
2323.1123035340106, 0.8061208168359856
2314.6131121813914, 0.8074862407565455
2291.9486019077403, 0.8081442161781051
2282.032878663018, 0.8088673989229673
2273.533687310399, 0.8092141196996766
2246.6195813604377, 0.8121084016001519
2235.287326223612, 0.8144612356832291
2216.87241162627, 0.8119252964752317
2192.791369460516, 0.8163397355583356
2175.7929867552775, 0.8201865592674333
2164.460731618452, 0.815354828591043
2161.6276678342456, 0.8152806207126084
2143.2127532369036, 0.8229867858446551
2127.6309024237685, 0.8206917094507747
2117.7151791790457, 0.8208034678641731
2107.7994559343233, 0.8204150842224064
2097.883732689601, 0.8201245111311621
2092.217605121188, 0.8204513236426203
2076.635754308053, 0.8197054314171632
2068.136562955434, 0.8207216304969256
2056.8043078186083, 0.8232306879426656
2051.1381802501955, 0.822159831278032
2044.0555207896793, 0.822312061344876
2032.7232656528536, 0.8234416288417686
2011.4752872713054, 0.8288836525895802
2000.1430321344799, 0.8303127329124166
1993.060372673964, 0.8315576359329959
1980.311585645035, 0.8229562088066977
1970.3958624003126, 0.825776759834701
1961.8966710476934, 0.8246212046359072
1936.3990969898355, 0.8263542698241954
1925.06684185301, 0.8289704363957084
1906.6519272556684, 0.8282449285726018
1892.4866083346365, 0.8262563984532406
1886.8204807662232, 0.8257377191991434
1864.1559704925721, 0.8315480992891956
1855.656779139953, 0.8320577788570243
1849.9906515715402, 0.8317527817658047
1840.0749283268178, 0.8318185251777758
1827.3261412978886, 0.8300380157078989
1813.1608223768567, 0.8275094079685956
1794.7459077795152, 0.8318458839459959
1774.91446129007, 0.8311111374992078
1764.9987380453476, 0.8322669907181204
1742.3342277716965, 0.8328477780600578
1719.669717498045, 0.8350396195897091
1712.587058037529, 0.8372857616014071
1702.6713347928066, 0.8376944106112494
1697.0052072243939, 0.8389049813666023
1687.0894839796715, 0.837562982870013
1668.6745693823295, 0.8352531835871752
1665.8415055981231, 0.8352159901550359
1655.9257823534008, 0.8368049899850982
1648.8431228928848, 0.8403137372386573
1640.3439315402657, 0.8417266653923748
1630.4282082955433, 0.843136255373217
1617.6794212666146, 0.8432775186472359
1599.2645066692726, 0.8435800716259364
1579.4330601798279, 0.8124495790288795
1572.350400719312, 0.8151559275309653
1559.6016136903827, 0.8255090760787588
1551.1024223377635, 0.8294935268688812
1501.5238061141513, 0.8575396580746731
1478.8592958405002, 0.7508097928785797
1451.945189890539, 0.7994771638052472
1432.1137434010943, 0.6696398290885446
1383.9516590695853, 0.829289381349804
1366.953276364347, 0.8174209638444201
1328.7069152775603, 0.8429554145061089
1308.8754687881155, 0.835486833966873
1281.9613628381544, 0.8428982537260127
1211.1347682329942, 0.8160270498955973
1179.971066606724, 0.8355232523729307
1155.8900244409692, 0.7975622455240831
1114.8105995699761, 0.7924085297408405
1093.5626211884282, 0.7019865548232108
1068.0650471305703, 0.8180590318695917
1026.9856222595777, 0.8214466022313637
1007.1541757701325, 0.7297652403416103
973.1574103596558, 0.8530764027747983
902.3308157544952, 0.8067523284185446
882.4993692650505, 0.8354767603655409
742.2627119468334, 0.5171834850390603
692.6840957232212, 0.4560697999733372
648.7716070680217, 0.8204737351030964
634.6062881469898, 0.8390632908700962
619.0244373338542, 0.8587167306735868
592.1103313838935, 0.8107562704195246
518.4506729945265, 0.47567892340319107
504.28535407349455, 0.4805141712383007
490.1200351524626, 0.5580583240819466
466.03899298670785, 0.6647788915716526
439.12488703674717, 0.7392711680858416
427.7926318999216, 0.7338288463179112
412.2107810867865, 0.7833957714236311
382.46361135261895, 0.8612501666863593
##END=

##END=

