##TITLE=S. Graessle SG-V2483 15-24
##JCAMP-DX=4.24
##DATA TYPE=INFRARED SPECTRUM
##DATE=8/8/2016
##SAMPLING PROCEDURE=ATR platinum Diamond 1 Refl
##ORIGIN=Angelika Moesle
##XUNITS=1/CM
##YUNITS=TRANSMITTANCE
##RESOLUTION=4
##FIRSTX=3997.4121
##LASTX=373.82813
##DELTAX=-1.4160156
##MAXY=1.0000026
##MINY=0.54102153
##XFACTOR=1
##YFACTOR=9.3132502e-010
##NPOINTS=2560
##FIRSTY=0.99627399
##XYDATA=(X++(Y..Y))
3997+1069738250+1069846345+1070908294+1072125507+1072910081+1073321024
3989+1073615679+1073739007+1073396096+1072502402+1071423045+1070672647
3980+1070418632+1070471304+1070703175+1071100230+1071448517+1071434437
3972+1071070150+1070615815+1070224712+1070020105+1070205448+1070759495
3963+1071281925+1071342277+1070875655+1070209928+1069698570+1069369610
3955+1069146315+1069260811+1069998217+1071121542+1071984580+1072165635
3946+1071789892+1071250182+1070701063+1070017865+1069296523+1069001675
3938+1069245195+1069540682+1069596682+1069723146+1070208392+1070706375
3929+1070694919+1070316616+1070064009+1069992393+1069825225+1069594378
3921+1069692042+1070153224+1070445192+1070050889+1069137419+1068475405
3912+1068491853+1068807820+1068849292+1068670604+1068886540+1069706634
3904+1070419528+1070098057+1068879884+1067643663+1066598290+1065725204
3895+1065576468+1066556050+1068192974+1069337739+1069328651+1069161291
3887+1069856649+1070682759+1070183240+1068514381+1067352400+1067077712
3878+1066920593+1067000657+1067879566+1069021131+1069330955+1068715212
3870+1068178894+1068323597+1068990859+1069712906+1069643466+1068073998
3861+1065969427+1065308117+1066357394+1068119438+1070015305+1071684612
3853+1071626053+1068235085+1064736471+1064109464+1065107030+1066448146
3844+1067837710+1069179595+1069983625+1069645642+1068164110+1066337938
3836+1065298517+1065409173+1066056019+1066659282+1067093776+1067513039
3827+1067975246+1068245069+1068253965+1068407885+1068690956+1067993614
3819+1065941011+1064554071+1064759703+1065241685+1065264533+1065695508
3810+1067048209+1068789388+1069962249+1069678410+1068304525+1067549391
3802+1067895758+1068018254+1067061585+1066203987+1066328082+1066997841
3794+1067649743+1068043982+1068101966+1067947726+1067993166+1068509645
3785+1069164363+1069338827+1068943884+1068407117+1067818383+1066905489
3777+1065911444+1065521365+1065847508+1066381458+1066567058+1066234259
3768+1065816148+1065803988+1065961363+1065878868+1065807764+1066096915
3760+1066312658+1065781908+1065078230+1065687956+1067914830+1070785031
3751+1072785026+1072270403+1069825609+1068300813+1068108750+1067331792
3743+1065306901+1064513623+1066060115+1068215629+1069030283+1067496399
3734+1064266072+1061604511+1061016992+1062053086+1063800217+1065583380
3726+1066701713+1066559122+1065387669+1064145624+1063459738+1063418714
3717+1064018393+1065270357+1067040913+1068832780+1069499210+1067861198
3709+1064990486+1063317274+1063251227+1063833369+1064269080+1064284440
3700+1064127512+1064268312+1064879190+1065867860+1067114128+1068418957
3692+1069413066+1069415370+1067526607+1064211224+1062008222+1062048350
3683+1063287130+1064563415+1065434069+1066062547+1066694929+1066990545
3675+1066064467+1064496983+1064343640+1065495829+1066002323+1064874774
3666+1063821529+1064184920+1065378453+1066454674+1067214224+1068030414
3658+1068799116+1068644620+1067332752+1066451922+1067326800+1069253003
3649+1070071497+1067792527+1064248664+1062598556+1062635484+1063116251
3641+1063427994+1063569114+1063759193+1064062040+1064364824+1064577111
3632+1064747543+1064956950+1065001366+1064411415+1063484954+1063256347
3624+1063764441+1064466135+1065009366+1065124310+1064640791+1064083992
3615+1064242200+1064973590+1065553044+1065582036+1065062230+1063886425
3607+1062192669+1060990944+1061199904+1062578012+1064098392+1064750423
3598+1064433175+1064066392+1064334808+1064848918+1064924182+1064716439
3590+1064716119+1064584663+1063380570+1061363487+1060281378+1060598369
3581+1061430815+1062289501+1063289690+1064256280+1064463319+1063627354
3573+1062534108+1062153181+1062524380+1062874588+1062420189+1061089440
3564+1059736356+1059041190+1058951206+1059352357+1060304290+1061743454
3556+1063224923+1064056792+1063754265+1062559772+1061418207+1060951073
3547+1060729249+1059997411+1058829158+1058073384+1058050152+1058286824
3539+1058403239+1058411751+1058395815+1058368103+1058417575+1058718502
3530+1059305189+1059882339+1059990371+1059584164+1059196645+1059217253
3522+1059432997+1059514148+1059492004+1059546724+1059748772+1060059683
3513+1060316002+1060314850+1060113955+1060047139+1060260002+1060469090
3505+1060395682+1060130339+1059931171+1059785700+1059389221+1058636775
3496+1057876969+1057596137+1057951976+1058665703+1059254181+1059284197
3488+1058661095+1057818985+1057329706+1057207850+1056919403+1056152173
3479+1055318703+1055061680+1055507759+1056253805+1056773164+1056685740
3471+1055933614+1054874608+1054099891+1053995443+1054450290+1054969648
3462+1055079856+1054677553+1054052915+1053591924+1053505524+1053763059
3454+1054074931+1054022835+1053482484+1052818230+1052393655+1052060792
3445+1051472057+1050744315+1050338300+1050412540+1050717115+1051044667
3437+1051513913+1052289783+1053124661+1053431796+1052941302+1052020984
3428+1051161018+1050457276+1049842110+1049436479+1049409599+1049750526
3420+1050284861+1050729211+1050822203+1050574204+1050272893+1050175869
3411+1050333180+1050666940+1051006011+1051057915+1050660156+1050065085
3403+1049713726+1049733694+1049912318+1050051837+1050032893+1049678910
3394+1048927808+1048089154+1047700739+1048091138+1049045696+1049877694
3386+1049951677+1049216703+1048201474+1047539076+1047546628+1048067842
3377+1048614849+1048817856+1048711937+1048445185+1047973379+1047285572
3369+1046652678+1046383111+1046492806+1046760966+1046981445+1047085125
3360+1047125701+1047236613+1047494276+1047721667+1047589508+1047046021
3352+1046454215+1046155975+1046134471+1046174023+1046111751+1045883272
3343+1045509385+1045080906+1044755723+1044770251+1045279626+1046098376
3335+1046816070+1047206149+1047299140+1047162309+1046926149+1046849798
3326+1047081093+1047508292+1047964227+1048329026+1048468097+1048359170
3318+1048172546+1048045058+1048011395+1048177090+1048565569+1048849088
3309+1048706369+1048283970+1047895811+1047625092+1047632259+1048285954
3301+1049500223+1050417468+1050264765+1049212735+1048094530+1047569028
3292+1047753283+1048376770+1049032832+1049382399+1049295935+1048933376
3284+1048710913+1049037952+1049949821+1051024891+1051696377+1051639417
3275+1050962299+1050108221+1049492287+1049253951+1049382527+1049830462
3267+1050365116+1050617148+1050462652+1050087485+1049669118+1049300351
3258+1049132544+1049277823+1049670718+1050112701+1050325308+1050110333
3250+1049674558+1049501375+1049772862+1050266109+1050783291+1051224314
3241+1051369210+1051099834+1050721019+1050620284+1050753979+1050807483
3233+1050737211+1050790459+1051068026+1051373306+1051497081+1051438266
3224+1051349370+1051420090+1051769017+1052333111+1052868598+1053069621
3216+1052776950+1052234935+1052042424+1052538615+1053358580+1053895155
3207+1053987891+1053859059+1053683444+1053540404+1053533748+1053657076
3199+1053669236+1053296821+1052565687+1051833080+1051428218+1051338298
3190+1051328826+1051266682+1051205818+1051254266+1051493689+1051900728
3182+1052219319+1052096568+1051563897+1051223802+1051615225+1052488055
3173+1053102581+1053142069+1052880054+1052555319+1052082040+1051412154
3165+1050799227+1050560252+1050752059+1051208698+1051800889+1052427191
3156+1052777974+1052474999+1051565945+1050562364+1049930621+1049857470
3148+1050407804+1051471225+1052602678+1053293173+1053405556+1053179509
3139+1052911478+1052750006+1052665974+1052503543+1052156920+1051756409
3131+1051583033+1051783545+1052267383+1052794870+1053033013+1052730294
3122+1052051192+1051506105+1051356026+1051383674+1051406074+1051575161
3114+1051952760+1052161400+1051769081+1050836027+1049927677+1049652798
3105+1050160189+1050978747+1051433210+1051313530+1050999035+1050828347
3097+1050612796+1049999165+1049088640+1048373570+1048087682+1047908739
3088+1047396612+1046523398+1045610377+1044854411+1044150477+1043337679
3080+1042407377+1041451540+1040534870+1039676760+1038914138+1038261084
3071+1037579934+1036700320+1035737891+1035029413+1034710501+1034653158
3063+1034762597+1034936869+1034785317+1033765864+1031648237+1028727989
3054+1025624381+1022916740+1020985545+1020107788+1020408075+1021535752
3046+1022678405+1023234692+1023393283+1023849218+1025007935+1026582779
3037+1027955959+1028764021+1029074804+1029157748+1029195380+1029072052
3029+1028356342+1026538811+1023347779+1018952271+1013976412+1009140712
3020+1004826996+1001210749+998708164+997832198+998614148+1000584383+1003295416
3010+1006486575+1009802983+1012762719+1015062873+1016672597+1017620370
3002+1017903825+1017685970+1017421075+1017642514+1018609552+1020113100
2993+1021606216+1022613061+1023052292+1023140484+1023074564+1022903748
2985+1022613829+1022260998+1022003655+1021948295+1021991943+1021939975
2976+1021744007+1021530376+1021445576+1021512136+1021619656+1021699336
2968+1021833799+1022047303+1022154502+1022073223+1022057415+1022349702
2959+1022796421+1023011204+1022735685+1021956103+1020876234+1019833868
2951+1019075534+1018571664+1018134929+1017718418+1017485587+1017609554
2942+1018101201+1018772687+1019258766+1019221390+1018684239+1018025809
2934+1017529490+1017109716+1016499157+1015468952+1013857820+1011614562
2925+1008858729+1005796465+1002583674+999304130+996006795+992775827+989838811
2916+987588065+986411492+986492580+987749601+989872731+992415700+994962318
2906+997287816+999383618+1001327613+1003118008+1004622836+1005720305+1006505775
2896+1007312621+1008450602+1009902566+1011307235+1012295968+1012831775
2887+1013147678+1013434269+1013746268+1014127515+1014590426+1015007769
2879+1015215321+1015162777+1014859865+1014326939+1013713116+1013271262
2870+1013099166+1013029598+1012829151+1012406880+1011785058+1010911396
2862+1009593255+1007795436+1005982769+1004824052+1004458485+1004443253
2853+1004483125+1004713780+1005235699+1005975985+1007055150+1008675690
2845+1010600293+1012217952+1013157022+1013530845+1013690397+1013974876
2836+1014570778+1015427544+1016341206+1017168851+1017904785+1018565520
2828+1019092558+1019455821+1019841676+1020559179+1021620488+1022573701
2819+1022974212+1022900228+1022822021+1023095876+1023734274+1024480640
2811+1024996159+1025144638+1025135615+1025232446+1025403070+1025464766
2802+1025436222+1025485054+1025640445+1025800637+1025971452+1026294587
2794+1026817018+1027350713+1027630264+1027573432+1027350201+1027233657
2785+1027397945+1027825079+1028381878+1028968628+1029532019+1029962354
2777+1030095858+1029868786+1029430323+1029076468+1029019572+1029190516
2768+1029336883+1029336307+1029280884+1029260084+1029267700+1029346867
2760+1029597107+1030003634+1030465329+1030967471+1031498094+1031854765
2751+1031823085+1031502702+1031184559+1030978671+1030807408+1030639792
2743+1030511152+1030429361+1030361649+1030196849+1029740210+1028906165
2734+1027821239+1026665147+1025582973+1024754496+1024269185+1023965058
2726+1023691330+1023642434+1024101313+1024933183+1025694845+1026186044
2717+1026565115+1026959034+1027261625+1027317689+1027147577+1027011706
2709+1027224313+1027795512+1028376054+1028692853+1028822965+1028929397
2700+1029029620+1029114036+1029227700+1029391411+1029609331+1029886450
2692+1030156017+1030318641+1030375025+1030427953+1030573552+1030786288
2683+1030863023+1030620976+1030219313+1030053426+1030244593+1030490352
2675+1030491504+1030298225+1030159793+1030203633+1030338097+1030407281
2666+1030377777+1030347377+1030407089+1030542064+1030668336+1030748208
2658+1030846896+1031034479+1031243822+1031347886+1031378158+1031493230
2649+1031710253+1031865389+1031868909+1031812525+1031820973+1031951021
2641+1032193772+1032452011+1032601515+1032688427+1032939178+1033462569
2632+1034043879+1034338150+1034244647+1034036391+1034060903+1034356646
2624+1034678821+1034835237+1034811237+1034658406+1034489510+1034454246
2615+1034531238+1034526566+1034400550+1034342118+1034463846+1034704165
2607+1035029349+1035442467+1035800355+1035836130+1035432356+1034797541
2598+1034318758+1034231975+1034492454+1034917925+1035287524+1035381796
2590+1035205860+1035085668+1035251108+1035496931+1035584547+1035702691
2581+1036082146+1036427041+1036290529+1035838946+1035636451+1035730979
2573+1035564131+1034894053+1034303654+1034530470+1035550307+1036573281
2564+1036933024+1036758368+1036584800+1036565985+1036482785+1036343137
2556+1036436065+1036851424+1037370014+1037776093+1037995549+1037979549
2547+1037639582+1036979295+1036262945+1035881890+1035981794+1036365153
2539+1036767904+1037046495+1037142175+1037024927+1036679776+1036163106
2530+1035714467+1035590755+1035779043+1036142242+1036733664+1037547486
2522+1038159260+1038132892+1037675166+1037447454+1037744861+1038168540
2513+1038220956+1037996573+1037986333+1038286364+1038467868+1038321116
2505+1038230940+1038579547+1039135322+1039350361+1039048218+1038471196
2496+1037777565+1036956960+1036216161+1035914722+1036061474+1036303009
2488+1036374625+1036178978+1035662115+1034990629+1034598566+1034737253
2479+1035216484+1035726819+1036147938+1036448097+1036523297+1036295905
2471+1035864866+1035474339+1035376740+1035719331+1036417697+1037106271
2462+1037445854+1037486942+1037472286+1037410014+1037210271+1037033951
2454+1037057695+1037143583+1037151071+1037262495+1037606238+1037863069
2445+1037617182+1036930272+1036303009+1036145826+1036449057+1036924320
2437+1037322911+1037585758+1037751901+1037759773+1037447326+1036911200
2428+1036693664+1037225567+1038123740+1038493083+1037951005+1036965151
2420+1036189474+1035855906+1035839458+1035960482+1036123938+1036352417
2411+1036702560+1037056351+1037127007+1036814560+1036366625+1036032738
2403+1035769955+1035424484+1035014245+1034741349+1034808997+1035195940
2394+1035591651+1035669731+1035437923+1035226660+1035367780+1035890338
2386+1036458785+1036663264+1036427937+1036066594+1035942882+1036161058
2377+1036517281+1036705248+1036654176+1036643360+1036946336+1037450654
2369+1037701342+1037283231+1036329377+1035640483+1035806243+1036343457
2360+1036428769+1036089570+1035782499+1035404004+1034628262+1033663464
2352+1033050282+1033082154+1033656296+1034409446+1034856805+1034584102
2344+1033581160+1032317420+1031260846+1030595312+1030366385+1030524464
2335+1030910383+1031399790+1032013740+1032771754+1033441129+1033568168
2327+1032940458+1031958893+1031332270+1031351342+1031583534+1031424878
2318+1030773680+1029970866+1029410291+1029421363+1030192369+1031526830
2310+1032841514+1033617320+1033759400+1033478185+1033021546+1032564715
2301+1032172396+1031826541+1031587694+1031637037+1032043628+1032619691
2293+1033091498+1033340905+1033465321+1033663400+1033995687+1034256487
2284+1034196519+1033876008+1033655528+1033815272+1034265319+1034703461
2276+1034999077+1035283236+1035658787+1036014690+1036178978+1036180514
2267+1036345441+1037056607+1038245916+1039244250+1039347609+1038409948
2259+1036813152+1035167204+1034104359+1034023911+1034820645+1035898466
2250+1036589472+1036740256+1036781536+1036959839+1036802208+1035884770
2242+1034739493+1034272295+1034625510+1035337572+1036235937+1037324191
2233+1038051549+1037716510+1036676832+1036170658+1036604896+1036988575
2225+1036516449+1035785763+1035835042+1036757856+1037843421+1038482460
2216+1038452636+1037789341+1036904736+1036539809+1037099935+1038187036
2208+1039130266+1039671576+1039722840+1038938970+1037276703+1035751843
2199+1035859746+1037943261+1040425878+1041121749+1039515801+1037343134
2191+1036496097+1036871328+1036884576+1035668835+1034009959+1033276265
2182+1033880552+1034832805+1034874725+1033959207+1033023786+1032513579
2174+1032054636+1031659373+1032228076+1034280935+1036777312+1037760669
2165+1036383393+1034137127+1033675560+1036326369+1040770390+1044212812
2157+1045204362+1044882443+1045032522+1046065928+1047060421+1047149509
2148+1046549190+1046011272+1045595657+1044679819+1043061775+1041243988
2140+1039652952+1038452316+1038045021+1038761179+1039952600+1040419734
2131+1039873368+1039143642+1038940314+1039079194+1039022874+1038728155
2123+1038649115+1039022490+1039499673+1039552153+1038949786+1037850269
2114+1036771296+1036368865+1036777248+1037328287+1037355038+1037001887
2106+1036857248+1037127583+1037536926+1037738333+1037595422+1037289759
2097+1037179615+1037376158+1037545758+1037361054+1036969375+1036740768
2089+1036765920+1036944608+1037392862+1038299548+1039392985+1039975448
2080+1039623449+1038657819+1037806749+1037423390+1037118879+1036349537
2072+1035283428+1034594534+1034421030+1034356518+1034533094+1035606947
2063+1037365406+1038641819+1039032474+1039338009+1040027863+1040471510
2055+1039970200+1038691483+1037341150+1036338593+1035449699+1034336806
2046+1033543144+1034329702+1037193055+1041113941+1044258764+1045243082
2038+1044108557+1042002322+1039634072+1036943712+1034737317+1034741413
2029+1037115231+1039922136+1041532756+1041742739+1040823509+1039322521
2021+1038323292+1038565019+1039729368+1041034965+1041916114+1042134226
2012+1041996882+1042395089+1043899725+1045746824+1046382855+1045479241
2004+1044603083+1045000458+1045541705+1044187725+1041127957+1038739803
1995+1038220636+1038438812+1038646427+1040048471+1043190159+1045957256
1987+1046157703+1044238028+1042121746+1040554582+1038882202+1036825248
1978+1035122916+1034466918+1034972709+1036629984+1038848091+1040113943
1970+1039704664+1038838555+1038801115+1039162714+1039200986+1039236762
1961+1039321945+1038630491+1036909152+1035151076+1034448166+1034992357
1953+1036059234+1036767712+1037048223+1037568222+1038616859+1039753560
1944+1040594262+1041196244+1041626451+1041729363+1041402580+1040836309
1936+1040440022+1040500950+1040931669+1041468692+1041921938+1042244434
1927+1042612049+1043178703+1043507662+1042788368+1041051925+1039410969
1919+1038671835+1038575771+1038324380+1037479326+1036238689+1034907813
1910+1033338601+1031083887+1028241206+1025711805+1024403136+1024597504
1902+1025948988+1027667640+1028765557+1028425974+1026522811+1024056833
1893+1022585669+1022655557+1023338179+1023482307+1023089476+1023155908
1885+1024273025+1026098492+1027915831+1029308340+1030288561+1031025711
1876+1031652909+1032200428+1032667243+1033168745+1033822696+1034473190
1868+1034821541+1034992421+1035372580+1035946082+1036341345+1036233121
1859+1035615971+1034803173+1034198503+1034051495+1034348454+1034851365
1851+1035303076+1035667299+1036084066+1036549217+1036737568+1036233505
1842+1035083108+1033821800+1032866154+1032424747+1032566379+1033132906
1834+1033911015+1034783269+1035485027+1035621283+1035356580+1035265892
1825+1035138660+1034222183+1032601771+1031283758+1030947823+1031446958
1817+1032093164+1032204140+1031601390+1030506352+1029175412+1027854071
1808+1026810746+1026191356+1026054076+1026486971+1027444664+1028596853
1800+1029585139+1030396593+1031209263+1032065388+1032865194+1033416041
1791+1033592744+1033709224+1034194471+1035003045+1035739171+1035985954
1783+1035630691+1034968677+1034482150+1034510502+1034963237+1035451363
1774+1035624227+1035201444+1034008807+1032280684+1030400049+1028518646
1766+1026814330+1025364990+1023850242+1022058759+1020661130+1020469259
1757+1021290761+1022450054+1023620546+1024880703+1026259580+1027502136
1749+1028291894+1028658165+1028809653+1028805429+1028604597+1028110839
1740+1027226233+1026208188+1025705405+1026020668+1026790522+1027273145
1732+1027148729+1026818234+1026534971+1026488059+1026900474+1027703864
1723+1028598069+1029408755+1030189169+1031039407+1031969965+1032815658
1715+1033394281+1033804008+1034173223+1034542246+1034956453+1035389924
1706+1035660003+1035684131+1035721187+1035937314+1036114338+1036037218
1698+1035801315+1035180068+1033647784+1031486446+1029296116+1027011642
1689+1024537216+1022457798+1021391752+1021088841+1020698570+1020218507
1681+1020651786+1022112966+1024139329+1026303163+1028198966+1029536691
1672+1030521712+1031490926+1032288428+1032660715+1032980266+1033570792
1664+1034191975+1034458022+1034426662+1034637030+1035360228+1036466849
1655+1037724253+1038670811+1038449948+1037700446+1037791261+1038448092
1647+1039082778+1039561177+1040208215+1041000725+1041640595+1041984146
1638+1042003794+1041343316+1039171482+1036098146+1034387686+1034470502
1630+1035564387+1036931360+1038011485+1038592283+1038814299+1038929690
1621+1039102746+1039210650+1038794459+1037087135+1033728744+1029746418
1613+1025731837+1020823754+1013906140+1004337013+992544340+980402228+970634254
1603+965617627+966158105+970765453+976666878+981956720+986552548+991365015
1593+996763913+1002026939+1006230960+1009036905+1010571365+1011068323
1585+1010738404+1009680231+1007859884+1005369330+1002470010+999314626+996445578
1575+995458764+996778185+999179523+1001937851+1004793140+1007370157+1009559911
1565+1011557090+1013367837+1014741466+1014780250+1010546341+1000785790
1556+993083411+989307997+987280610+987025443+989181981+993431058+998467908
1546+1003223672+1007538733+1011457890+1014777306+1017584338+1020132940
1538+1022151494+1023743234+1025325118+1027121977+1029006900+1030646832
1529+1031927213+1032651883+1032352236+1031033135+1028980980+1024874559
1521+1016516181+1004290933+988811422+969219345+948864007+933456175+923581257
1511+916582939+910972778+907042804+907676979+915476446+925761411+935689385
1501+945728719+956037876+966190873+975791232+984257770+991247127+997452359
1491+1003760887+1009966694+1013692893+1011318499+998941699+970626318+920974992
1481+855568763+796836885+767682338+772364054+799855374+836476269+872210256
1471+899116809+914246817+922043917+927436223+933067440+939907102+947104267
1461+953082044+956239987+951268992+926737793+887468968+861433324+854671998
1451+859938288+872446543+888917988+903453054+905684792+888102694+854826045
1442+821298453+803602436+806235261+823191376+844392985+860873581+871466898
1432+879403389+886727146+893803351+900299526+906131639+911440681+916169052
1422+920208978+923732361+926927232+929671737+931945523+933967086+935648425
1412+936563879+936376743+935185899+933445679+931735348+930762166+931128565
1402+932767985+935089451+937456101+939439967+941049499+942508503+943957651
1392+945598095+947575498+949706948+951609919+953141051+954599032+956275635
1382+958190062+960305321+962667810+965287388+967934613+970100367+971326156
1372+971886794+972801928+974857474+977887098+980922355+983186605+984607977
1362+985339431+985465447+985196903+984915432+985071912+986042725+987866208
1352+990199130+992631252+994950862+997171528+999364098+1001381373+1002751673
1342+1002710137+1000292416+995246925+989651100+986840995+987853408+991143576
1332+994830734+997955398+1000417087+1002332026+1003612535+1004050614+1003456183
1323+1001411069+996440394+985066600+963517984+933334575+903279934+881827830
1313+869657110+862260714+858463604+861757419+873137741+887396072+897997132
1303+902855807+904326331+905736312+908740528+912972901+917483737+922170893
1293+927696510+934436524+941894297+948794567+953265915+953362043+948601863
1283+941503898+936720870+937558756+943365269+950823041+957220913+961913828
1273+965544027+968936594+972534729+976183423+979296311+981235378+981159026
1263+977120892+965901146+945612175+919762003+897270670+886490218+889374307
1253+901207940+914580321+923660105+926672193+925976387+925554052+927804286
1243+932693169+939194848+946355725+953058364+957619824+957784751+951108289
1233+935988008+913065509+885907052+860078512+840811298+830718077+829273792
1223+834181683+843110108+854492926+867324189+880584314+892911961+902735552
1214+908648880+909839405+906635957+901036356+896457296+896152913+901214340
1204+910059820+919937427+928769019+935779049+941101403+945161744+948238856
1194+950427907+951934015+953160059+954357368+955361590+955887028+955978100
1184+955940084+955915188+955891124+956145460+957260401+959498411+962406307
1174+965198876+967369558+968837138+969748112+970401358+971221388+972502665
1164+974079172+975136194+974294980+970402638+963866975+957008881+952600573
1154+952060030+954961719+959732138+964702557+968958802+972453961+975419073
1144+977920378+979942197+981460593+982293999+982223983+981475569+980786163
1134+980758835+981325361+981637169+979879669+974044229+964733661+956720882
1124+955302838+960949351+969349585+976319551+980792307+983627627+985673510
1114+987252258+988392735+989072349+989299613+988977053+987853088+985808678
1104+983182125+980752499+979344183+979309943+980344244+981838320+983385772
1095+984928744+986568804+988366367+990230554+991918166+993232914+994179280
1085+994727374+994398351+992125973+986583460+977252796+965904154+956557938
1075+952813692+955023222+960481960+965968346+969462673+969869520+966427353
1065+959496619+951808895+947605450+949454149+956116852+964005663+970311118
1055+974374916+976803069+978220986+978847096+978636345+977580091+975942464
1045+974185284+972644296+971437707+970699725+970674509+971499467+973059079
1035+975015618+976260671+973769349+963595680+945864398+928409852+921651598
1025+928728635+943390677+957694703+968467731+976356286+982511278+987558369
1015+991825366+995415692+998355205+1000771326+1002809081+1004486197+1005769585
1005+1006344240+1004423093+996753545+982815406+969062098+964858397+972843848
995+986501092+997638855+1002796601+1002670009+999720065+997343367+998395653
986+1003136952+1009339688+1014218395+1015319064+1009626855+993083603+962562723
976+919394004+870804755+826596871+793168607+770807578+757160446+752122827
966+757677820+773771282+796566742+820512663+840365859+852133828+854991741
956+852842819+851971845+855883643+862884008+869151896+873591820+878841918
946+887752359+900070727+913095716+924549126+933844398+941263131+947172555
936+951999806+956113012+959638058+962776162+966085977+970038671+974133892
926+975940352+970760781+954005625+926492161+897366606+879078270+877817921
916+889474658+904958458+918042263+927887806+936264616+944403794+952202366
906+959032812+964632797+969252305+973236743+976803325+980128501+983246956
896+985678822+985949029+981490161+970430478+955021686+942278552+938944353
886+945655311+957206385+967962197+975138562+976690366+968971602+950296259
877+926956992+911235369+910391532+920030162+930634806+937921315+944170131
867+952048126+960895015+968599635+974357124+978861944+983047021+987303586
857+991344279+994277071+995185357+994121808+992054677+989308829+984974440
847+979116663+974781379+975907200+983232108+993722001+1003939510+1012662367
837+1020468043+1028227446+1036302625+1044438540+1052063864+1058816166
828+1064768471+1070001289+1073739007+1073741823+1062936859+1030231665+964431454
818+865336802+752243914+657413443+606400521+603124370+632638468+675186325
809+717062631+752628553+781425150+805043520+825285771+843539867+860671214
799+876854788+891734813+905092665+917134746+928123965+938188131+947507082
789+956387251+965146908+973956933+982840109+991957206+1001710396+1012340960
779+1023563587+1034462822+1043272463+1046345031+1035624227+998388421+926962688
769+833486133+747994582+693943907+670263714+662797557+664943407+679196938
759+705744324+738732078+771406232+799931085+823357584+842392094+858105205
749+871148563+881695735+889605410+894897172+898392459+901444419+904870778
739+908541424+912029863+915434974+919452564+924586118+930518839+936528551
729+942281880+948009097+954120953+960710312+967418390+974015941+980921907
719+988604574+996492554+1002540794+1003372344+995477964+978479993+958132910
709+944520978+945228176+959454059+979173431+995737676+1004650996+1005357298
700+998612356+982802990+951022785+895459539+818013022+733015997+657756994
690+604560718+580915916+588550968+619658662+660329148+699789972+733900731
680+762031601+784302902+801098058+813113067+821506901+827873668+833872372
670+841411297+852395972+865432226+876683652+886046891+895097364+903929981
660+911443625+916895642+921057808+924914693+925319236+914805088+891597149
650+867759003+859808944+871539473+892411419+911227561+924553542+933829998
640+940961435+947235723+953243323+959082348+965062620+971702667+979096375
630+985919845+987182562+973749189+939037152+889220643+843582043+821181334
620+827290950+851647238+878307648+898086092+911954279+923800392+934346669
610+942640663+948907911+954178169+959176620+964176350+968893842+972803272
600+975995391+979088183+982301103+985394023+988314527+991214424+993999056
590+996430026+998682052+1001286717+1004506229+1008150955+1012025313+1016417045
581+1022142086+1029722610+1038177052+1045196554+1048125442+1042203858
572+1017629330+964097503+884455664+802535687+749397266+739992491+766105126
562+807717369+847325905+876959491+896875791+910412076+920291602+927949117
552+934174637+939551071+944537874+949403781+954131897+958524461+962482851
542+966041434+969190865+971986698+974883458+978557305+982923245+986325860
532+986545316+983366892+979632310+978875064+982089647+987076898+991183256
523+994219216+997699079+1002383418+1007213038+1010329701+1011081379+1010537189
513+1010357541+1011761250+1014849370+1018371280+1020639562+1021081673
504+1020460427+1019511949+1018283280+1016967700+1016315350+1016920212
496+1018901391+1022127622+1026001916+1029207028+1030725168+1030988655
487+1031163951+1031757549+1032024364+1029908530+1022500485+1007439533+985201959
477+960807207+941808665+933908718+938894625+953467067+970424334+984887592
467+996661961+1006856558+1015420312+1021657416+1025429246+1027264313+1028010423
457+1029103220+1031939437+1035990114+1039324569+1040817685+1041270548
449+1042211858+1044285580+1047664131+1052626614+1058481447+1063115547
440+1065342933+1066498706+1068080590+1067653135+1056896427+1027271673+979684726
430+927007808+886057899+865918496+865928096+880740409+901692162+920733328
421+937623140+957310384+976970365+988511775+993815057+998517252+1005160691
411+1012884703+1019694861+1024737152+1027933815+1028982516+1027912951
402+1025483326+1022565637+1020949002+1024798143+1035575971+1047052741
394+1053519860+1053864883+1049550846+1043664846+1039230554+1037033695
385+1035973602+1035252260+1035205284+1036791072+1041376788+1049680702
377+1060242146+1069017227+1073739007
##END=
