##TITLE=X7370
##JCAMP-DX=4.24
##DATA TYPE=INFRARED SPECTRUM
##DATE=26/10/2018
##SAMPLING PROCEDURE=Diamant-ATR
##ORIGIN=ComPlat
##XUNITS=1/CM
##YUNITS=TRANSMITTANCE
##RESOLUTION=4
##FIRSTX=3997.453
##LASTX=373.96442
##DELTAX=-1.4165319
##MAXY=0.92870998
##MINY=0.53398651
##XFACTOR=1
##YFACTOR=8.6492857e-010
##NPOINTS=2559
##FIRSTY=0.85307097
##XYDATA=(X++(Y..Y))
3997+986290660+985400583+984132036+983125358+982584806+982639316+983484807
3988+984857963+985948646+986139672+985580376+984996478+984999441+985397482
3978+985316027+984294946+982931851+981999529+981501014+981133640+980997537
3968+981272293+981611619+981345065+980373256+979607015+979987414+981267193
3958+982573849+983639999+984468606+984327610+982085946+977730520+973388462
3948+971790857+972701540+972976777+971283314+970292693+972648821+977143658
3938+980890792+982015724+979473462+973286196+966294373+963359239+966042014
3928+970399508+971895742+970322325+969184024+970162172+970748482+968595646
3918+965469900+965752718+970987678+978009754+983063543+984955268+983867962
3908+978970537+968904445+954911082+942352827+936543065+937767921+944069928
3898+954142635+964916944+971577434+970972242+964668927+959718300+961036878
3888+964099845+962436290+956519368+952187097+950846812+950333687+953117282
3878+961262016+968907477+969634369+963766376+955917622+948930209+944979094
3869+946817756+951440978+952605811+950137837+950567508+956995211+964668789
3859+968380639+965974548+955747614+937392002+923035538+929051487+947371402
3849+963868229+973059335+974252629+969020838+960226188+950372761+940927918
3839+934602895+935420958+942806274+951289783+957594615+962218388+965887580
3829+967634933+966970269+965458116+963523734+957998099+947712382+940504517
3819+942889727+949421351+955574023+963743152+974308724+982511138+984368820
3809+979105812+969764890+962469299+958931868+953978623+945778827+941571150
3799+945891775+953836456+962244161+971922549+981745379+988579461+991273262
3789+990998576+988847394+985394174+982459040+981985540+982633114+981383932
3779+978816723+979119181+983361246+987879858+988912379+985058362+977972955
3769+972086355+970258788+970961905+972459311+974325194+974437866+970093259
3759+962931222+958946477+960004633+960809052+955274734+941330782+925471122
3750+920168628+925361965+930822063+932387004+934672290+942084343+950356084
3740+953335735+947618661+933968828+921095505+921378736+935713907+953422427
3730+965510076+969011811+965231324+958787013+955133532+956301949+961096970
3720+967845186+974602017+978739817+977689654+969819262+956576842+946431224
3710+949372560+962725103+976556315+985082481+986760921+982907387+978540796
3700+978816516+983052035+987185011+988545900+985933279+978277756+965571753
3690+952413613+948535821+957432808+971394884+982885748+988629216+987632048
3680+980706932+969355341+954417735+940650199+938165135+945152341+949698656
3670+949608380+954359641+967972606+982652134+992113585+995927494+996421530
3660+995247394+991820016+985468668+978855039+974899996+970055082+957394492
3650+935775515+918927577+924147446+944861322+965159310+978576011+985513462
3640+988648994+990224754+990775229+989771790+986925003+982227700+974448548
3631+961813938+948999122+949127369+962911926+977234279+984110191+981967278
3621+972587902+962095103+957938352+959577925+961177667+961230798+962216940
3611+964343176+965679050+967600890+973369305+981462837+986812606+986884482
3601+983636346+980594191+978822719+977412625+976846300+978903278+982549660
3591+982893949+975970005+964969386+960691900+967806457+978820858+986752583
3581+990661041+992430239+993687415+995064982+996535788+997554939+996773123
3571+991694733+979664833+962064505+949184704+951810006+965764089+979758830
3561+988675939+993646756+996767335+997855674+995863612+991778944+988821069
3551+988893428+989494003+986671679+980647598+976661889+979044687+986226571
3541+993600309+997925069+998540530+997154349+996490305+997633913+998954764
3531+998130774+994605747+989971362+986200936+984128659+984189165+987098043
3521+992397368+997804541+1001316475+1002865772+1003355949+1002993330+1001180992
3512+997933615+995092065+995029009+997278736+998351846+996218789+993372759
3502+993759153+997523101+1001483726+1003473101+1003932542+1004169051+1004446012
3492+1004153683+1003166508+1002255481+1002077823+1002173199+1001415985
3483+999578425+998162612+999087973+1002297931+1005561227+1006866711+1006243326
3473+1005159397+1004728899+1004947076+1005275584+1005390806+1005251051
3465+1004734343+1003720635+1002637464+1002336591+1003161684+1004575981
3456+1005777131+1006330708+1006229750+1005498654+1003855360+1001181268
3448+998433715+997215406+997876968+999124979+999846565+999966473+999484497
3438+998035537+995670932+992990707+990218414+986943196+982934607+978472711
3428+973700913+968227721+961460071+953068905+943444957+933958491+926100572
3418+919966782+914281890+908036668+901422831+895277809+890328078+887062852
3408+885848333+886841367+889796003+894103879+899111427+904370438+909726547
3398+915406822+921796486+928859220+936100232+943220095+950287240+957218282
3388+963627103+969270785+974323540+979118837+983645994+987413181+990005336
3378+991679572+993187384+995080487+997271638+999077843+999677660+998760568
3369+996800551+994632003+992737659+990921324+988659606+985660453+981831865
3359+976864630+970380832+962482324+953649082+944161513+934032090+923283486
3349+911954085+900177922+888456958+877444349+867431665+858512833+851092166
3339+845664180+842214819+840270996+839384295+839270589+839726585+840651188
3329+841954467+843479576+845317962+847947675+851563184+855469644+858658101
3319+860895217+862846001+865174977+867878151+870497250+872718654+874742968
3309+877208667+880582224+884492336+888036177+890806816+893118082+895305787
3299+897479159+899782707+902206163+904409443+906268917+908196683+910519527
3289+912949461+914937871+916269679+917233149+918439123+920460266+923397261
3279+926662004+929284067+930634276+930991313+931384047+932764646+935207398
3269+937889415+939860665+940734204+940644893+939868866+938666544+937219238
3259+935500484+933303062+930452208+927048054+923567751+920551576+918027576
3250+915516876+912724047+909899312+907438436+905431282+903662635+901811362
3240+899541168+896536087+892612331+887868236+882716729+877752251+873561940
3230+870533843+868710135+867846106+867651634+867962293+868782907+870261017
3220+872453616+875038879+877521600+879790485+882123528+884606938+887015302
3210+889315198+891750025+894331912+896717879+898663908+900251245+901679118
3200+903096241+904658976+906567172+908870995+911218096+913110097+914623008
3190+916442030+918823243+921021354+922220299+922563071+922806954+923405944
3180+924334337+925396145+926323229+926851721+927047365+927417082+928398193
3170+929785753+930967262+931701390+932293007+932995435+933647488+934000597
3160+934088116+934208231+934699924+935644856+936634030+937015325+936568012
3150+935824856+935646717+936560776+938432654+940578185+942191365+942862782
3140+942840523+942771266+943066075+943544399+943865532+944135739+944677325
3131+945372517+945819830+945964409+946012235+945960550+945749746+945607303
3121+945781859+946204501+946769448+947660422+949051496+950650479+951855006
3111+952310864+952154639+951854248+951925504+952536278+953142297+952826539
3101+951342570+949627744+949004842+949977959+951892081+953677336+954804267
3091+955341029+955359084+954889788+954351303+954256617+954485476+954495400
3081+954192459+954024174+954281701+954673884+954538263+953466945+951889669
3071+950740962+950338993+950148518+949878725+950064514+951199232+952939487
3061+954459220+955137667+954894336+954267160+954034511+954423455+954838310
3051+954510836+953244012+951539730+950175119+949555179+949376695+949090569
3041+948638984+948400339+948461464+948442927+948037720+947262313+946303529
3031+945603444+945808046+947091685+948866809+950518925+951951070+953189020
3021+954101632+954719366+955222430+955525232+955335102+954644389+953885039
3012+953585199+953893102+954403194+954603041+954466250+954298516+954094534
3002+953484104+952274616+950606651+948564627+946000726+942852445+939429754
2992+936247774+933692074+931999438+931446068+932258275+934271286+936924498
2982+939713399+942448203+944998183+947092787+948528585+949321220+949563931
2972+949349888+948778463+947871709+946628039+945214018+943871872+942731572
2962+941893110+941376678+940874441+940024678+938948949+937995265+937005884
2952+935230483+931799453+926136131+918355808+909615874+901922863+897231762
2942+896341271+898449520+901882824+905300072+908148100+910258968+911553012
2932+912219537+912814805+913887295+915460368+916997812+917984230+918480678
2922+919023848+920070082+921616485+923316909+924939529+926629340+928611685
2912+930766519+932712410+934203545+935219871+935762766+935816242+935523914
2902+935220353+935223592+935682896+936637407+938031444+939584807+940874028
2893+941712559+942308654+942957606+943747347+944617026+945495113+946289333
2883+946909479+947379120+947803623+948210760+948536373+948777981+949102078
2873+949764330+950847087+952062089+952979869+953439793+953473354+952985589
2863+951986905+950953075+950366834+950039016+949397920+948288562+947038002
2853+945810320+944223052+941647160+937905540+933714884+930374130+928979059
2843+929940186+933006323+937427148+942182406+946429571+949853709+952519808
2833+954555492+956129735+957481460+958709693+959704311+960443263+961119780
2823+961816626+962278686+962204881+961674941+961146242+961041839+961423754
2813+962083319+962803940+963484247+964140572+964876492+965748859+966649067
2803+967353218+967647958+967483256+967117949+967000729+967359764+968022154
2793+968677446+969149223+969429767+969615005+969810579+970031307+970217302
2783+970311437+970268573+970038198+969563527+968847592+968109191+967750569
2774+967976189+968578625+969224269+969738703+970055082+970185189+970268711
2764+970412739+970578543+970817188+971360014+972231899+973042245+973411962
2754+973408034+973367237+973483493+973754458+974158976+974678717+975210241
2744+975597875+975753067+975724330+975659552+975653075+975613725+975375770
2734+974945409+974527108+974283984+974166695+974029903+973850385+973723999
2724+973643715+973459718+973153401+972937290+972940254+973000208+972916479
2714+972725383+972568745+972447045+972241202+971907320+971548491+971325834
2704+971359876+971690796+972248920+972843707+973252566+973399833+973461165
2694+973728134+974335049+975141948+975895785+976397195+976483129+976058558
2684+975304720+974653081+974317614+974003371+973303355+972242787+971194968
2674+970392754+969795763+969352309+969107806+969053365+969087546+969162041
2664+969327087+969615625+970015457+970580680+971398261+972340712+973016747
2655+973170147+973027911+973037352+973348011+973774374+974157943+974480937
2645+974683954+974704421+974700011+974941481+975475073+976181360+977132839
2635+978520949+980159902+981411428+981772875+981395509+980947369+981018969
2625+981634223+982298129+982547455+982383718+982090219+981799269+981473449
2615+981181328+981068311+981091672+981056802+980930485+980857438+980864398
2605+980823670+980740424+980787285+980955087+980929107+980492751+979920982
2595+979767237+980275400+981139498+981886375+982389300+982890365+983589761
2585+984388254+985016049+985255659+985132856+985068768+985639848+986889444
2575+988094384+988486360+987944361+986840929+985659557+984897588+984814962
2565+985133752+985422497+985740323+986438685+987408701+988056826+988071367
2555+987797507+987754368+988150754+989005893+990298973+991688048+992497360
2546+992426242+991991954+991902505+992212819+992373937+991929243+990935934
2536+989838635+989121805+988994316+989262800+989543689+989674554+989854348
2526+990322886+991006776+991601011+991943232+992183945+992579022+993149068
2516+993565784+993393571+992501081+991287320+990476561+990532243+991219372
2506+991877903+992180706+992452084+993132460+994119223+994892286+995247739
2496+995546958+996048367+996362541+995959746+994936528+993824689+992884650
2486+992114412+991767436+992215920+993215500+993873342+993689965+993323349
2476+993898426+995612701+997377902+997948293+997168131+995893589+994944453
2466+994547791+994622768+995012401+995340151+995106950+994195923+993144382
2456+992711748+993127085+993925095+994605402+995102677+995397004+995262968
2446+994853420+994853282+995472187+995886629+995299147+994146030+993658403
2436+994372064+995547785+996143054+996002403+995817441+996147119+996834938
2427+997385413+997614548+997662650+997525720+997058284+996396446+995802487
2417+995175311+994354353+993678801+993583219+993938189+994340708+994686513
2407+995033971+995292256+995371161+995363374+995323612+995055058+994405073
2397+993742890+993780447+994766314+996124240+997052702+997272534+997053736
2387+996698284+996246147+995684439+995207562+995112807+995614906+996891309
2377+999082253+1002118895+1005728065+1009584839+1013286214+1016412305
2368+1018878073+1021002931+1023088990+1025063203+1026494729+1026945143
2360+1026394736+1025240240+1023869083+1022214417+1019635701+1015785405
2351+1011891212+1010047243+1011267620+1014980021+1019714744+1024017521
2343+1027082348+1028494440+1028071867+1026452485+1024809329+1023638431
2334+1022529694+1021073153+1019352607+1017559978+1015608092+1013303373
2326+1010676555+1007986062+1005560400+1003742894+1002766400+1002453054
2317+1002217441+1001496199+1000076527+998136356+996215757+994951207+994635311
2308+995188749+996403613+997856984+998980745+999750156+1000836359+1002526170
2298+1003975888+1004150100+1003181531+1002245144+1002189944+1002693077
2289+1002865910+1002460634+1002136882+1002558904+1003623331+1004684863
2281+1005308800+1005697606+1006465983+1008049806+1010246815+1012238946
2272+1013119583+1012558701+1011036280+1009382097+1008113895+1007292179
2264+1006906543+1007081581+1007804890+1008741759+1009537358+1010127044
2255+1010566708+1010729067+1010408967+1009740099+1009387197+1009984395
2247+1011163769+1011741671+1011352314+1011019534+1011509780+1012279467
2238+1012709207+1013198763+1014443397+1016457029+1018337590+1018611174
2230+1016683477+1014144523+1013208618+1013947501+1014630909+1014397639
2221+1013855296+1013515487+1013413840+1013888029+1015233551+1016853002
2213+1017812544+1017978348+1017764374+1017177375+1016208254+1015744815
2204+1016703875+1018472797+1019560861+1019785793+1020453213+1022163629
2196+1023648562+1023366777+1021447969+1019269291+1017710897+1016841494
2187+1016902688+1018252690+1020270250+1021565190+1021680068+1021685443
2179+1022776126+1024934612+1027165182+1028404716+1027854516+1025364421
2170+1022374502+1021369960+1023161624+1025480953+1025503970+1023119863
2162+1020537425+1019603105+1020677455+1023451816+1027442487+1031170255
2153+1032187132+1029257994+1024001326+1019570027+1018158004+1019729009
2145+1022071699+1022367680+1019958626+1017086961+1016166700+1017329258
2136+1018997499+1019601106+1018441924+1016021156+1013745655+1012707139
2128+1012901267+1013823389+1015210879+1016823094+1018070071+1018318226
2119+1017334771+1015403628+1013326872+1012223234+1012839797+1014917793
2111+1017377015+1019068686+1019343235+1018313540+1016866302+1016051064
2102+1016124801+1016499479+1016681754+1016634962+1016187167+1015060649
2094+1013697761+1013142255+1013944607+1015732962+1017824052+1019859254
2085+1021725343+1023150598+1023840897+1023918631+1023708722+1023378768
2077+1023474695+1025077262+1028272403+1031244268+1032048273+1030573677
2068+1028089164+1025851152+1024714091+1025139076+1026924676+1029199694
2060+1031038425+1032264935+1033464982+1035058935+1036783823+1038223962
2051+1039101567+1038937210+1037429329+1035250031+1033408543+1032168113
2043+1031537905+1031845463+1032961437+1034221852+1035609549+1037231825
2034+1037669490+1035585980+1032738435+1031978051+1033107394+1033804791
2026+1033433489+1033233504+1033790044+1034407227+1034275466+1033462019
2017+1033014155+1033709623+1035056730+1036499351+1038571007+1041584081
2009+1044260103+1045071275+1044001749+1041782894+1038794147+1035714227
2000+1033979210+1034646837+1037106955+1039174063+1038792355+1036229557
1992+1034320052+1035289449+1038038725+1040211200+1041430819+1042826648
1983+1044605149+1045717677+1045363603+1043752078+1041864074+1041053315
1975+1042323240+1045328733+1048061470+1048178002+1045460908+1042844014
1966+1043751457+1048063951+1052378237+1054174793+1053882052+1052890190
1958+1051191765+1047966440+1043727682+1040641836+1040238076+1041403392
1949+1041563201+1039466529+1035838821+1032194506+1030537222+1032668971
1941+1037840462+1043171832+1046848605+1048589618+1048314587+1046377035
1932+1044082928+1042693508+1042525981+1042851525+1041848086+1037816756
1924+1031532116+1025954246+1022677236+1021258115+1022159080+1026580456
1915+1033077417+1038002752+1039226988+1037899727+1037076978+1038652531
1907+1041928714+1045249759+1047859625+1049780293+1050969521+1051308986
1898+1051037469+1050895371+1051723772+1053248743+1053648437+1051874208
1890+1049938862+1050728809+1053848146+1056828556+1058720763+1059937901
1881+1060691463+1061196042+1061918524+1062809704+1063257155+1062438126
1873+1058994967+1051709714+1042336609+1037094344+1040673536+1049793318
1864+1058051413+1062232628+1062920033+1062541633+1063171152+1065252732
1856+1067778868+1069601818+1070235609+1069229069+1065895137+1060220030
1847+1053092449+1046241139+1043393593+1047801187+1056544911+1063810525
1839+1067189388+1068159335+1069023019+1069508303+1067019518+1060478936
1830+1053413927+1050862155+1052474921+1054909335+1058073534+1063399115
1822+1069387292+1073065857+1073741823+1073216087+1072777940+1071416912
1813+1067922689+1063582699+1061570859+1063367691+1067135980+1069717178
1805+1068672529+1063635968+1057335616+1053994931+1054861509+1057052247
1796+1057132461+1053265489+1046464899+1042849458+1048187994+1058433879
1788+1065630098+1066810850+1064200640+1060885039+1058121429+1056979199
1779+1058389775+1060541026+1059715726+1053695367+1044130271+1037438218
1771+1039057393+1046827725+1056137498+1063926780+1067409013+1065213658
1762+1060097641+1057088426+1056934406+1057232523+1057834752+1058422922
1754+1054935453+1043389596+1026405625+1013991192+1011836840+1015032050
1745+1017581893+1018008739+1017257176+1016441799+1016610016+1017125966
1737+1014249546+1004639794+993109719+991212688+999038425+1009290167+1018117552
1727+1023173684+1023102910+1019408978+1014468137+1007075517+993055485+972170498
1717+956162056+957668214+970803750+983851423+991239426+991765230+985645361
1707+974386113+962560540+953873186+944081298+924542178+895320052+869404293
1697+851663728+837921621+827227320+816735003+800609409+777616449+753158195
1687+730154347+703774942+674641094+659892516+665148839+679114981+694392259
1677+709410493+725468001+742703297+757970720+770269931+784713570+806756224
1667+831702379+851077832+863205794+872710454+885236939+899906819+911082682
1657+914813001+909016126+893347561+878550537+879349857+883408476+877602504
1647+862559392+849590418+845407618+842067553+832933162+817960135+799090364
1638+778125645+761967662+762271085+775579731+789177121+798312546+804357920
1628+810197315+816746649+823711458+833341815+847421319+861663250+870703713
1618+874739315+879847200+888954026+896033162+895042471+884280429+865819519
1608+843786376+821207650+799000364+777800308+759211702+744697220+734076311
1598+726204058+720713707+718326844+719548943+723811751+730209132+738188751
1588+747215225+756602870+766024283+775639409+785047522+791930118+792241191
1578+782483001+765690331+755407785+757641455+763574571+767022898+770311417
1568+777772054+787576346+795735069+800456629+799787969+790044389+772198869
1558+766662553+783216785+802802972+817042147+825923284+831304339+835988204
1548+840030353+839371477+830894859+816627981+801927780+793981101+804328839
1538+829420677+850171422+860210224+864729801+872657804+885393164+895627886
1528+899296114+898839635+897994627+894810373+883475183+862979209+837802264
1519+808303247+775529907+750635780+742177148+743948138+745007328+739845277
1509+731166262+735202209+765850071+801054034+823273380+833931777+837142700
1499+837165717+840375261+850711491+862689293+867849483+863246935+854435952
1489+854001250+866846595+884309442+897981189+905783151+909562880+911329804
1479+910385285+904444106+893050823+879645079+872335086+878665346+893768067
1469+906117653+910279297+907857288+904973425+905117522+903767865+894684194
1459+876419823+859447290+863467939+884577306+904684474+916564488+918507209
1449+910877116+897900836+885527613+875076850+863135572+847235874+827635146
1439+803672514+773211060+741264536+721314489+717093098+722806520+735410188
1429+753719077+773333656+789376072+801198200+810835930+818353764+821643799
1419+822352912+828152337+841671718+856367095+866852935+872929872+877467642
1409+882396216+886591696+888720825+890525031+894385801+898590447+899481420
1400+896683768+893657462+893983695+899433939+910038102+922259717+930644199
1390+932561698+930381779+930005447+934371141+940124946+943190945+943014459
1380+941277168+938703619+934443293+929149343+926949371+930974636+938734699
1370+946320413+952709594+957514607+958825328+956464376+955332828+960837237
1360+971122816+980174374+985097229+986842927+987178119+986328769+983315281
1350+977811217+970796239+963571973+956790058+950007592+941904343+932481828
1340+925909615+928401777+940827374+957493933+972613125+983649095+990254317
1330+992871281+992170576+988970403+984150849+978089211+970079339+958661523
1320+942419880+920074217+890382175+854014137+817488426+794028651+795681938
1310+822237000+860460240+894093198+913281896+916767368+908425336+893178380
1300+874810433+855277929+834983455+813553782+790466273+765399037+738652534
1290+711602195+686639914+666176742+651203439+640873825+633717300+628956597
1281+626476013+626072942+627225370+629350779+632040376+635267838+639479030
1271+645143455+652080492+659520593+666859530+673980496+680875359+687476515
1261+693940122+700590827+707460536+714243003+720676977+726671976+732151095
1251+737018819+741263502+744945100+748082630+750645842+752674910+754306765
1241+755649944+756810160+758131907+760190539+763362251+767525962+772287009
1231+777347206+782548262+787709210+792661834+797482767+802459580+807672212
1221+812765350+817334958+821414802+825380320+829450861+833501968+837274048
1211+840456372+842452431+842197040+838236553+829039589+813798767+793789799
1201+773115685+757368560+750712756+753803701+764224901+778722568+795191003
1191+813114394+832760880+853995668+875171123+892390638+899727094+890919695
1181+862505985+817143862+764434809+717309415+685719239+672212814+672581222
1171+680369470+690960677+702394964+713972106+725184425+735712646+745518592
1162+754543342+762562724+769490527+775597648+781260213+786635755+791728755
1152+796621081+801429885+806095143+810387721+814150704+817448112+820421975
1142+822996075+824794492+825402372+824581207+822127774+817808664+811848328
1132+805392370+799947915+795939534+791674934+783733837+768726836+745658209
1122+717501199+690320271+669993615+659212966+657153094+661159753+668381331
1112+676631295+684787469+692657035+700348805+707818332+714943984+721730791
1102+728257039+734471733+740155040+745118002+749376812+753035875+756037027
1092+758142313+759185722+759269313+758631318+757331210+755212003+752240415
1082+748708083+745025659+741578916+738898553+737648475+738237197+740590293
1072+744381531+749310243+755084515+761309407+767552700+773530816+779186420
1062+784555485+789560552+793955741+797520669+800338788+802807038+805291000
1052+807852350+810358433+812678038+814684158+816267430+817461550+818467539
1043+819572418+821023033+822803395+824580587+826113690+827603998+829352660
1033+831213305+832705336+833621601+834262007+835039275+836067729+837208512
1023+838254883+838904731+838755604+837435855+834667628+830595433+826459356
1013+824347110+825460121+828905140+832725665+835745011+838018650+840031111
1003+842000225+843810426+845326990+846694840+848229804+850015059+851851447
993+853685492+855762110+858209203+860807422+863320052+865729863+868034996
983+869920726+870299333+867034382+858150214+844325963+829662492+819037310
973+814704005+815459151+818323856+820747175+822035155+823298257+825903092
963+829944345+834221624+837133534+837390717+834882016+831522999+830313029
953+832680252+837296651+841856197+845234233+847613034+849471130+851064463
943+852460911+853667781+854771902+855940594+857175649+858196317+858778354
933+859142007+859735139+860643479+861571183+862425012+863443268+864634081
924+865607543+866172766+866677483+867517599+868588435+869435442+869820733
914+869954080+870158268+870471753+870710742+870822243+870974471+871306907
904+871780958+872328194+872983968+873782323+874616444+875285587+875661437
894+875805947+875924340+876189034+876631247+877195850+877808967+878376050
884+878820538+879127544+879319535+879494780+879853127+880456872+881052210
874+881380717+881494492+881467891+881045249+879949329+878362130+876739578
864+875175878+873123930+869645488+863684256+854011243+839206018+818372853
854+792669346+766471320+746470278+738320926+742738029+753997346+762867801
844+763206852+757378828+754529146+762223742+780051344+801552481+820622925
834+834887529+844685619+850914784+853602796+851913124+846144227+839656156
824+837305679+841350033+849783098+858837137+866042796+870829823+873603977
815+875025579+875650549+875775074+875543459+874956390+873748418+871781578
805+869771736+869163857+870987496+875024890+880122369+885056870+889068697
795+891889780+893594200+894517080+895180779+896098905+897446150+898838119
785+899572109+899188610+897677766+894638849+887420716+870320351+838025886
775+791768931+740646319+695147267+660565173+637583446+626510882+628040057
765+640950525+661405082+684681206+707339870+728322300+748089315+766715892
755+783308645+796962820+807353560+814619794+819484968+823239268+826900743
745+830481865+833440084+835700700+837842923+840289465+842750410+844664187
735+845868782+846602290+847055805+847098531+846322091+844375649+841457950
725+838426407+836254965+835546955+836671267+839864617+844682518+849766697
715+853788654+856383083+857756515+857528689+853932475+844188620+827050077
705+805771322+785988044+768710572+748917164+724110488+700678691+688018514
696+688959656+698975442+712387595+726226042+739405751+751221194+761149667
686+769007311+774811009+778636496+780753566+781815236+782694426+783973723
676+785491940+786535280+786782470+786845663+787566216+788832695+789224257
666+788194631+786707976+785490493+784791373+784535431+784377345+783885928
656+782715651+780883466+778948326+777578753+776884939+776346110+775333988
646+773661061+771355170+767544981+760438832+749940106+739758034+734935930
636+737279103+744546990+753772415+763842366+775120220+788713889+806096797
626+826441301+843356360+847628540+835558395+812895251+789441126+771433937
616+759613601+752107551+747077468+743348390+740327529+737878093+735987815
606+734548847+733475461+732763523+732355559+732178315+732223936+732226968
596+731339853+728770991+725163131+722850831+723707003+726811869+729461359
586+730035817+728695532+726197305+723450234+721452866+720366869+719471899
577+718667342+718727778+719792550+721003486+721648371+721749398+721806113
567+722204773+722637477+722474774+721872958+721676764+721925539+721459895
557+719617029+717525939+716800494+717426705+717873466+716873542+714229909
547+710360594+706034938+702179404+699314355+697613174+697375218+698622815
537+700571462+702331150+703869008+705687066+707703041+708937820+708588639
527+707249457+706519601+707089855+707914810+707397826+704632700+700055168
517+695115430+690357897+684220524+674477702+660358711+643544333+628036612
507+618549249+617376423+623103972+632994129+644811777+655972205+663106677
497+663650055+658126763+651016272+648224477+652621458+662017166+671932270
487+679378780+683547866+685134514+685918673+687472725+689866687+692213305
477+693761155+693898774+692329699+690355761+690534934+693559654+697683947
467+701429633+704558136+707324640+709930647+711828505+711435771+708155867
458+704789477+704956383+708496640+713374908+718464394+722279130+722835325
448+720347849+717647088+717132516+719242212+723548090+728496167+731359149
438+731118850+730295893+732136347+736798160+742278588+747127706+750176339
428+749674860+744955230+738154640+732076324+726246647+719156967+716031290
418+725276079+740642943+750245803+752664986+753526603+757078575+761618412
408+763130497+760432285+754349284+744557879+729679193+708969589+683760393
398+660157416+646676627+643536064+644598355+647039935+652319620+661757089
388+672905250+681819740+689120912+699471338+712349348+722079559+725940605
378+723554430+713479242+698776353+691584062
##END=
