##TITLE=HMS-Q17
##JCAMP-DX=4.24
##DATA TYPE=INFRARED SPECTRUM
##DATE=9/1/2020
##SAMPLING PROCEDURE=Diamant-ATR
##ORIGIN=Marie
##XUNITS=1/CM
##YUNITS=TRANSMITTANCE
##RESOLUTION=4
##FIRSTX=3997.453
##LASTX=373.96442
##DELTAX=-1.4165319
##MAXY=0.81671083
##MINY=0.32881933
##XFACTOR=1
##YFACTOR=7.6062123e-010
##NPOINTS=2559
##FIRSTY=0.81584656
##XYDATA=(X++(Y..Y))
3997+1072605558+1073055754+1073660560+1073741823+1073219533+1072636511
3989+1072228631+1071700072+1071000995+1070630259+1071002641+1071936964
3980+1072844487+1073229720+1072983973+1072325018+1071566306+1070933681
3972+1070486541+1070224495+1070272140+1070748039+1071415066+1071810643
3963+1071790582+1071603215+1071459184+1071388187+1071424861+1071558313
3955+1071605018+1071401901+1071021134+1070637860+1070307560+1070009075
3946+1069843337+1070004843+1070496807+1071014082+1071233498+1071106001
3938+1070770294+1070461543+1070495396+1070934386+1071283102+1070982815
3929+1070163528+1069321673+1068646340+1068155944+1067965365+1068042004
3921+1068102030+1068007367+1067954707+1068120994+1068339784+1068332574
3912+1068084163+1067843902+1067840376+1068065983+1068384529+1068738417
3904+1069066288+1069165104+1068911443+1068401612+1067777450+1067271381
3895+1067233532+1067760837+1068385626+1068409605+1067771886+1067085504
3887+1066930031+1067615003+1068791547+1069524399+1069418687+1069014020
3878+1068911913+1068934873+1068560454+1067609675+1066509457+1066148516
3870+1067192783+1069070676+1070349797+1070372053+1069538583+1068619070
3861+1068006427+1067554429+1067047654+1066440184+1065839295+1065598015
3853+1066070858+1066768603+1067093340+1067191999+1067253593+1067152818
3844+1066817032+1066570188+1066712339+1066909970+1066574420+1065841333
3836+1065556953+1066047349+1066775343+1067097337+1066907463+1066617676
3827+1066604746+1066821420+1066916083+1066684050+1066271076+1065850501
3819+1065344667+1064882403+1064975969+1065691816+1066235734+1066065059
3810+1065391450+1064698172+1064425546+1064742290+1065321002+1065650989
3802+1065419739+1064625294+1063678668+1063134671+1063347975+1064197823
3793+1065035760+1065330875+1065184101+1065108794+1065445991+1066077754
3785+1066637345+1066781768+1066367071+1065599896+1064999086+1064896822
3776+1065029256+1064987175+1064734454+1064497405+1064394358+1064278851
3768+1064068132+1064020487+1064218589+1064149708+1063411920+1062518737
3759+1062389986+1062984057+1063196499+1062473678+1061293138+1060415706
3751+1060380521+1061191109+1062375411+1063629926+1064820653+1065383065
3742+1064782020+1063500783+1062183499+1061028819+1060195898+1060193468
3734+1061291492+1062742620+1063691127+1064070483+1064045485+1063513792
3725+1062528297+1061744274+1061727661+1062115088+1062100199+1061464753
3717+1060665371+1060101000+1059744291+1059437186+1059297465+1059579023
3708+1060196289+1060874444+1061486773+1062049263+1062575315+1062955141
3700+1063067357+1063030370+1063074096+1063210605+1063143212+1062522420
3691+1061367269+1060390630+1060538031+1061573521+1062271423+1062072146
3683+1061343369+1060769124+1060762306+1061181235+1061652589+1062156072
3674+1062981001+1063905842+1064265686+1063762830+1062899346+1062453931
3666+1062520304+1062780861+1062981001+1062862986+1062185929+1061071057
3657+1060167530+1060129681+1060649150+1060691623+1059738335+1058291439
3649+1057617908+1058232667+1059237595+1059989332+1060447600+1060604169
3640+1060491405+1060401131+1060634261+1061123090+1061594131+1061968393
3632+1062366477+1062836813+1063225650+1063302368+1063128637+1062949421
3623+1062885946+1062961802+1063087496+1063037030+1062711275+1062366007
3615+1062242507+1062239137+1062029281+1061468436+1060842863+1060641392
3606+1060974905+1061353948+1061288906+1060834243+1060445092+1060382559
3598+1060451440+1060470325+1060633712+1061183116+1061973878+1062633225
3589+1062854053+1062414671+1061373303+1060236881+1059429428+1058992240
3581+1058932136+1059363211+1060200599+1061065415+1061665911+1062014157
3572+1062192668+1062168846+1061858293+1061219868+1060349646+1059498466
3564+1058822349+1058344491+1058174208+1058461487+1059125301+1059780887
3555+1060002811+1059712789+1059365719+1059542036+1060186024+1060621017
3547+1060395410+1059801731+1059366502+1059100851+1058729724+1058286032
3538+1058019519+1057965448+1057995383+1058148348+1058457255+1058610063
3530+1058330699+1057975322+1058102349+1058531700+1058609436+1058259467
3521+1057987077+1057990603+1057950011+1057570577+1056890385+1056132535
3513+1055536035+1055331821+1055652013+1056302113+1056774172+1056748861
3504+1056390898+1056003079+1055661886+1055395452+1055332683+1055440902
3496+1055498891+1055443724+1055368260+1055195626+1054782104+1054321407
3488+1054276270+1054835469+1055633519+1056091865+1055964290+1055541442
3479+1055312857+1055460572+1055734059+1055764464+1055458456+1055036549
3471+1054739631+1054661503+1054803654+1055067267+1055168356+1054778342
3462+1053893153+1052999578+1052679700+1053018777+1053573588+1053895033
3454+1053840571+1053455730+1052918081+1052573126+1052644985+1052884933
3445+1052801868+1052203017+1051231863+1049976094+1048322711+1046250712
3437+1044058583+1042093157+1040348089+1038541114+1036495445+1034251831
3428+1031842322+1029091385+1025703435+1021594700+1017095952+1012705738
3420+1008678031+1004919971+1001155094+997127465+992806601+988458311+984436246
3410+980955200+978102939+975978751+974755189+974589373+975479264+977311394
3400+980017037+983481000+987361854+991301481+995176459+998922215+1002467911
3390+1006051221+1010011849+1014037127+1017262474+1019406332+1021164565
3381+1023150286+1025087422+1026439108+1027318185+1028287380+1029547459
3373+1030800250+1031785823+1032580738+1033409036+1034423446+1035643638
3364+1036918528+1037985677+1038665555+1038973130+1039064345+1039122334
3356+1039275690+1039539617+1039836065+1040127105+1040475821+1040922491
3347+1041380210+1041738721+1041980785+1042102012+1042028116+1041747498
3339+1041482082+1041589753+1042194324+1042966828+1043462161+1043653680
3330+1043834542+1044042596+1044028883+1043780707+1043591068+1043596475
3322+1043695369+1043866044+1044141726+1044335204+1044168604+1043680167
3313+1043238277+1043089074+1043050990+1042781969+1042273393+1041884947
3305+1041892783+1042230058+1042704233+1043214847+1043615753+1043594359
3296+1042990102+1042177163+1041788638+1042024276+1042544215+1043029910
3288+1043432383+1043668177+1043549928+1043103650+1042650084+1042546018
3279+1042948099+1043689727+1044347586+1044606889+1044531817+1044341787
3271+1044075587+1043652505+1043157485+1042876475+1043004990+1043434029
3262+1043909614+1044242266+1044216249+1043609484+1042630963+1042011738
3254+1042244868+1042956170+1043400724+1043369849+1043259357+1043380350
3245+1043604782+1043722405+1043791286+1043912122+1043911887+1043560115
3237+1042993001+1042627359+1042646166+1042790276+1042740985+1042538025
3228+1042471103+1042666462+1042972627+1043209832+1043358173+1043478069
3220+1043581194+1043656345+1043730633+1043808683+1043853976+1043936650
3211+1044205748+1044580089+1044752018+1044608692+1044332226+1044046515
3203+1043726793+1043429797+1043302378+1043372278+1043514978+1043639105
3194+1043828822+1044209040+1044669893+1044905453+1044797468+1044537930
3186+1044331600+1044167507+1043902562+1043470546+1043042370+1042912914
3177+1043101612+1043190398+1042752896+1041822961+1040796326+1039992556
3169+1039461489+1039168881+1039187610+1039614375+1040395264+1041321359
3160+1042169483+1042814020+1043214142+1043321107+1043117285+1042749840
3152+1042469144+1042442578+1042740437+1043293445+1043724129+1043544834
3143+1042686131+1041534663+1040497528+1039848603+1039807070+1040383666
3135+1041216823+1041763640+1041700793+1041234454+1040908150+1040914498
3126+1040791154+1040060732+1038900958+1037881062+1037358928+1037385964
3118+1037844466+1038407740+1038613365+1038211519+1037369899+1036491135
3109+1035900983+1035646459+1035487539+1035096194+1034263037+1032883063
3101+1031002740+1029069365+1027735625+1027082861+1026429704+1025176051
3092+1023317827+1020918505+1017789544+1013949987+1009753172+1005328556
3084+1000430470+995003433+989512060+984654957+980998300+978841512+978169470
3074+978661512+979815330+981085126+981953311+982028069+981217873+979856392
3064+978542870+977685891+977241964+977031716+977154197+977848181+979094781
3054+980629053+982236672+983823368+985321201+986671162+987763779+988355028
3044+988220792+987436456+986376517+985377465+984450351+983374583+982106276
3034+981020633+980673720+981360651+982973677+985182655+987576804+989675525
3024+991071015+991699174+991926114+992353271+993480759+995412723+997859063
3014+1000512673+1003367754+1006534799+1009898614+1013101079+1015722325
3006+1017452505+1018364965+1018996728+1019812018+1020635692+1020957686
2997+1020639140+1019994682+1019380237+1019019532+1019017181+1019209249
2989+1019131826+1018347803+1016745904+1014443988+1011507331+1007800129
2980+1003027110+996911575+989387149+980630306+970871435+960151989+948294475
2970+935196630+921107569+906453981+891502300+876557515+862449099+850411899
2961+841504207+836509891+836179356+840922048+850189818+862518607+876142269
2951+889399818+900937767+910036351+916707638+921249563+923776303+924232220
2941+922623896+919066759+913756796+907081513+899775015+892908448+887608359
2931+884550317+883630726+884238118+885807496+887996021+890574638+893526811
2921+897112707+901525490+906578344+911885877+917196623+922448519+927598934
2911+932449454+936669699+940043309+942596066+944446689+945722127+946638270
2901+947419472+948101310+948618036+949045193+949551497+950129660+950553135
2891+950644506+950438724+949960710+948930391+946824069+943164434+937695629
2881+930408565+921519446+911415228+900716705+890502779+882303255+877518795
2871+876615974+878836706+882725319+887016247+891066758+894621309+897477252
2861+899504192+900831428+901832987+902881172+904158021+905686180+907420120
2851+909249664+911062359+912902638+914955517+917341517+920003198+922748650
2842+925378359+927904472+930630881+933817282+937315019+940736510+943905357
2832+946937696+949962120+952945952+955785675+958428000+960842368+962937875
2822+964607715+965857528+966841926+967786828+968868631+970099793+971326176
2812+972401396+973366908+974381005+975498306+976606674+977613092+978576723
2802+979563158+980467076+981162862+981781852+982637734+983858867+985198014
2792+986224570+986722803+986924666+987288115+988025511+988951136+989773636
2782+990380245+990852931+991336196+991885365+992399975+992737328+992865060
2772+992872191+992902910+993086828+993446123+993896319+994361247+994769832
2762+994966367+994837460+994511626+994215727+993985810+993722274+993428883
2752+993201473+993044590+992851660+992561638+992227655+991904094+991543467
2742+991118660+990772844+990667289+990719792+990693932+990533993+990431337
2732+990552016+990826131+991026427+991015221+990932234+991104006+991717041
2723+992618060+993476606+994082039+994415161+994514761+994401683+994148805
2713+993934482+993947333+994234926+994672192+995067456+995291104+995344547
2703+995357399+995506681+995888466+996427604+996911104+997146977+997131226
2693+997031078+996986803+997010861+997090242+997228240+997336538+997272515
2683+997033429+996731731+996376981+995906489+995399245+995025453+994823903
2673+994752436+994882205+995302858+995875144+996319385+996560038+996785645
2663+997146977+997577661+997952393+998250252+998522172+998815250+999117339
2653+999303922+999244523+999012411+998833038+998826534+999005202+999444897
2643+1000141937+1000805829+1001130017+1001179151+1001205481+1001235337
2635+1001137070+1000982225+1001035433+1001377958+1001726204+1001717036
2626+1001326239+1000858097+1000502564+1000140135+999672307+999241623+998947291
2616+998640343+998177609+997661588+997313734+997258958+997457217+997729921
2606+997897226+997980369+998230426+998886482+999835537+1000544880+1000499978
2597+999764775+998915163+998413482+998278854+998356198+998597714+999005594
2587+999512916+1000018593+1000461345+1000807161+1000995076+1000962791
2578+1000757793+1000551228+1000488537+1000594641+1000864053+1001317227
2570+1001871411+1002246065+1002141607+1001577628+1001016391+1001024227
2561+1001719151+1002651751+1003297463+1003503793+1003388050+1003131881
2553+1003026326+1003331237+1003856975+1004016131+1003522443+1002748607
2544+1002186509+1001831837+1001362834+1000729582+1000273979+1000326796
2536+1000905742+1001732081+1002395817+1002662643+1002716008+1002868268
2527+1003079378+1003107354+1002982835+1002880963+1002726117+1002388999
2519+1002059247+1002044437+1002367920+1002783166+1003060179+1003137053
2510+1003040745+1002783166+1002409765+1002062538+1001865534+1001845943
2502+1002056348+1002579343+1003325595+1003981259+1004193623+1003825552
2493+1003159073+1002751820+1002864271+1003216357+1003479343+1003637402
2485+1003649705+1003278185+1002570331+1002020771+1001899778+1001880736
2476+1001676130+1001572691+1001921093+1002495730+1002779326+1002605046
2468+1002233762+1002035503+1002183296+1002439073+1002296766+1001548555
2459+1000568703+999874327+999570043+999364026+999047361+998845106+999160204
2449+999940544+1000565881+1000531637+1000008876+999530705+999367318+999431497
2439+999598019+999855363+1000211680+1000611254+1000924158+1000970470+1000603731
2429+999811793+998786961+997920578+997561753+997651636+997813926+997925985
2419+998226429+998761571+999213021+999371784+999333700+999196643+998969390
2410+998773012+998841580+999268659+999817200+1000059264+999817670+999362459
2400+999024009+998788058+998465358+998061945+997777722+997727726+997787282
2390+997727491+997493186+997294300+997408632+997944714+998738689+999373587
2380+999410574+998802320+998026055+997595293+997489189+997310286+996975989
2370+996880700+997313969+998099324+998858271+999278219+999138341+998440517
2360+997502746+996652976+995875458+995011269+994276302+994121299+994486863
2350+994829545+994881108+994784016+994586071+994095988+993486401+993318861
2340+993592427+993755422+993620559+993424730+993266123+993109788+992995613
2330+992874229+992608500+992295909+992266053+992716797+993472531+994036981
2320+993956737+993275448+992529588+992225774+992482335+993186506+994197938
2310+995225200+995811513+995746942+995318061+994965740+994862928+994939018
2300+995122858+995424713+995809789+996053890+995862371+995240795+994641865
2291+994591478+995185784+995945122+996155997+995527290+994581369+994157660
2281+994475266+995021535+995413664+995859393+996539428+997058584+996939472
2271+996390303+996118305+996404957+996752497+996581979+995989398+995533246
2261+995481761+995652436+995932349+996529946+997524217+998446238+998623417
2251+997858279+996603764+995568666+995292671+995861744+996819890+997587456
2241+998070565+998575537+999210435+999818611+1000285890+1000467849+1000122503
2231+999265132+998307457+997788379+998104261+999063661+999645193+998916260
2221+997209041+995638958+994566010+993100150+989833975+983613668+973861928
2211+960730935+945480847+930619911+918827516+911505424+908893033+911009778
2201+917328273+926044132+934983247+943061308+950262251+956750168+962489090
2191+967350424+971277748+974323487+976592569+978373214+980215060+982324909
2181+984062532+984804161+985100922+986243613+988772469+991569953+992488604
2172+990244755+985840826+981918596+980661808+982196158+984801653+986643265
2162+987278084+987554941+988513635+990607106+993430920+995828361+996498209
2152+994863006+991648708+988542473+986952564+987180287+988848246+991374124
2142+993700960+994640768+994021778+992649562+991175787+989941646+989403997
2132+989679286+990211215+990457197+990353366+990032782+989674271+989551163
2122+989702169+989592460+988521393+986525798+984634505+983924927+984513904
2112+985754940+987047775+988022769+988514811+988861489+989621533+990672852
2102+991198669+990680297+989395690+988049726+987290857+987416160+988277997
2092+989435029+990361829+990722378+990690562+990745103+991026819+991254620
2082+991219357+990871346+990177989+989463553+989468020+990393880+991294272
2072+991124146+990097589+989312390+989292408+989594733+989781080+989997833
2062+990407985+990829030+991351477+992478652+993918574+994088935+991951033
2053+988711972+986484971+985873034+985907670+985958214+986470787+987710257
2043+989014062+989670823+989835072+990130658+990773706+991558512+992266523
2033+992777921+993310320+994344556+995452062+995136650+993116763+991435325
2023+991867576+993705740+995205688+995693107+995487090+995087908+995040107
2013+995687229+996650234+997117043+996992994+997122058+997916973+998761257
2003+999255258+999741815+1000219438+1000024001+998832254+997087970+995533167
1993+994846707+995140647+995492889+994865984+993440794+992236196+991683423
1983+991276483+990623092+990051903+989719879+989047680+988213191+988800052
1973+991246470+993613271+994161265+993151242+991544250+990027767+989440122
1963+990077214+990641194+989423979+986473295+983556307+982137464+982142401
1953+982439711+982055731+980968287+980003950+980102061+981435487+983079310
1943+983713190+982844534+981273276+980253928+980487451+981682645+982612815
1934+982071482+980130585+977978029+976473379+975525028+974890601+974746569
1924+975245507+976130697+977048642+977800771+978235922+978424933+978775922
1914+979475156+980100337+980095322+979456741+978679614+978125116+977774520
1904+977438577+976905708+976031176+974868894+973598079+972276094+970839776
1894+969336223+967960246+966881107+966204677+966096379+966780411+968215944
1884+969763772+970559550+970486594+970317486+970726228+971683512+972806299
1874+973717662+974105559+973938802+973700813+974033308+974892403+975578237
1864+975659029+975299499+974972177+975032751+975422608+975830644+976158986
1854+976603540+977239770+977883993+978446248+979067198+979876375+980880363
1844+981956132+982781844+983094043+982942567+982508278+981956054+981429062
1834+981020790+980809915+980901364+981227198+981407433+981208313+980824725
1824+980459553+980042035+979484951+978926928+978581973+978450637+978263505
1815+977786117+977074894+976347371+975736138+975242294+974828772+974463443
1805+974151793+973953221+973872194+973787640+973637810+973582328+973836382
1795+974500744+975541328+976673126+977388111+977494763+977315939+977289765
1785+977529008+977705560+977526500+977153884+976929374+976894972+976846544
1775+976725238+976740440+977043940+977383018+977466788+977307476+976935643
1765+976336322+975740919+975609739+976056095+976595703+976782364+976552760
1755+976092769+975726030+975778846+976279665+976708076+976542652+975970209
1745+975532316+975531767+975929617+976504254+976935799+977044489+977149339
1735+977896923+979403767+980694094+981259406+981542453+981715792+981655374
1725+981485170+981475453+981624499+981768217+981987007+982569715+983437743
1715+983995297+984069898+983976333+983880338+983749158+983595096+983472928
1706+983249672+982715627+982003620+981554756+981564943+981597621+981433842
1696+981398970+981499118+981374364+980906615+980159971+979153005+977994877
1686+977106709+976990653+977229504+976867388+975833152+974554815+973479359
1676+972897043+972627396+972223982+971765715+971890626+972827378+973818515
1666+974366665+974874223+975881737+977267040+978443192+979193440+979652727
1656+980114756+981245770+983421052+984976011+984975071+984481775+984530987
1646+985471266+986650082+987462237+987915490+988118293+988159904+988366078
1636+989274071+990716657+991707637+991970781+991886148+991817110+991899627
1626+992002126+991882073+991324598+990223910+988690501+986930857+985082428
1616+983122332+980677638+977022469+971002145+960301270+940922700+909056264
1606+865227698+816236258+772220091+740273724+718724104+699199935+676788713
1596+657430596+653896459+673226405+709377501+749426457+783597709+808594914
1587+825026405+833822585+834440478+825482870+806821322+779411239+742131400
1577+694813482+649890027+622959644+614880995+623575108+649883993+687426975
1567+725537071+760126783+789484503+811908107+830397961+853181094+880795392
1557+900170827+910764423+918513202+925117488+930509810+934836943+938147392
1547+940557058+942514882+944214656+945370669+945654186+944735771+942650764
1537+939756265+935636403+929263759+920380203+910136812+899022965+886097675
1527+870956590+855334277+841164268+827871612+813739296+797650566+776665552
1517+745918062+704501043+657227675+609087571+564292632+528447191+508057854
1507+511754124+539791269+574052209+605971227+638647272+674075626+710811154
1497+744687918+768473002+775415817+762209439+727373197+679133102+645670566
1487+649765273+680494270+715254969+741922327+758233530+766289885+769951558
1477+773346091+779209689+788014254+797836678+804733572+806193163+803038030
1468+795719620+782326816+761380749+735736187+709229003+680932633+645638437
1458+602284595+568808659+563191238+579189890+605531375+635198825+663686245
1448+687311703+701757629+704454731+698483226+691916555+692399742+702350368
1438+719810138+740053759+757281418+770150521+781501418+793655066+806350987
1428+817854456+827558395+836054445+843533577+849768616+855269549+861013409
1418+866731330+871155319+874226526+876781477+879296384+881728461+883880469
1408+885680705+887253217+888735299+890027350+890994664+891827742+892834630
1398+894017991+895199002+896355954+897329773+897608902+896708040+894075901
1388+888751285+880187999+869598479+859306190+851393710+847493656+848306282
1378+852923828+859435019+866127777+871905489+876370854+879987311+883551266
1368+887274454+890647280+893296894+895541762+897900100+900466256+903088834
1358+905825039+908779955+911791293+914507358+916673079+918220281+919204600
1349+919806350+920289929+920826559+921393673+921813699+921706185+920263912
1339+916228134+908306015+895373438+876269687+850135120+817362492+779923342
1329+740467830+701361112+665027429+635089744+616314256+612638164+624785269
1319+648938503+677567486+702988713+720868746+730799311+734895194+736038747
1309+736640575+738401708+742427769+748902835+756707565+763786653+768238618
1299+769312977+767560386+764125887+759851650+754850908+748607876+740272157
1289+729164656+715464042+700239030+684423631+668257635+652481574+639687386
1279+633432246+635825730+646491498+663648709+685302316+709309952+733299878
1269+755235357+773909600+788769753+799570384+806244726+808810334+807419076
1259+802788130+796486874+790472270+786291128+784632259+785336273+787702291
1249+790928422+794451862+798032429+801667380+805469010+809510274+813710536
1239+817880864+821855911+825573849+829135688+832844535+837078024+841998914
1230+847369608+852678395+857463246+861536482+864962988+867902466+870506081
1220+872890278+875135303+877299535+879418552+881463359+883343055+885022768
1210+886604214+888217397+889871094+891475970+892997782+894492480+895973464
1200+897342703+898524575+899615703+900826962+902286866+903911255+905454382
1190+906686171+907507338+907864753+907645963+906698004+904772858+901459274
1180+896664235+891439766+887759286+886783509+887385024+886586347+881031030
1170+867673803+843909563+808715750+764799732+719696904+683897501+666136659
1160+668544287+685372295+706603760+723578934+732573216+734971363+735312477
1150+738621986+747894772+762820358+780533947+797682146+812070475+822969216
1140+830633912+835868803+839742134+843230860+846898332+850844150+854902026
1130+858845101+862478485+865706418+868565183+871094509+873189547+874724602
1120+875776078+876527502+877016409+877154015+876912813+876374459+875693327
1111+875083740+874761432+874858759+875341006+875915094+876143993+875875599
1101+875509330+875693091+876801694+878726449+880955566+882746555+883461383
1091+883068236+882345414+882325040+883381610+884913452+885876299+885421793
1081+883023412+878341216+871286264+862063788+850712186+836811668+820769329
1071+805878222+797690609+799799831+810619269+825138229+839095560+850759674
1061+859977683+867144852+872874762+877673249+881709262+884926538+887065224
1051+887459156+884869960+877527180+863819827+844007595+821830757+803889210
1041+796289712+800925830+814509997+831088104+845717870+856253712+862232425
1031+862873906+857325406+847449851+839055674+838215229+846033282+858158170
1021+869280403+876977541+881691317+884802646+887270614+889265425+890456388
1011+890465400+888986844+885736108+880676828+874344854+867776223+862025860
1001+857811178+855661287+856099571+859221871+864200985+869720412+874894180
992+879452718+883292824+886353766+888827375+891067777+893275892+895457130
982+897596756+899666482+901509113+902935321+903923715+904557516+904808278
972+904542235+903694738+902383802+900990976+900131332+900329278+901641938
962+903648974+905762427+907554200+908936603+910110639+911315785+912625390
952+913927941+915041089+915858808+916396379+916672139+916625826+916151573
942+915032156+912826626+909042158+903524142+896640491+889147332+881976951
932+876148381+872731436+872595711+875856949+881504421+887723553+892683938
922+895089528+894238662+889921795+882486233+872974283+863039330+854574625
912+849235120+847996826+850893753+857090003+865224564+873822172+881679406
902+888139191+893107569+896847996+899755033+902176845+904270472+905976123
892+907187539+907899389+908099058+907620260+906418953+905051360+904504777
882+905330333+907186755+909369167+911474863+913393427+914978320+916078068
873+916807786+917460002+918008857+917904164+916526305+913688072+909625023
863+904869714+900332490+897115136+895855919+896317713+897734048+899469556
853+901277236+903005299+904243515+904408783+903149644+900639595+897560552
843+894839315+893273228+893308648+895071818+898448876+903066188+908287521
833+913346252+917659906+921118148+923904741+925956287+926905029+926715469
823+926046639+925720571+926017488+926640710+927212996+927664132+928189949
813+928986902+930118857+931545300+933113895+934543708+935532651+935931049
803+935877056+935824867+936292538+937409525+938778999+939863153+940381368
793+940350179+940010162+939748664+939832905+940189378+940633070+941193602
783+941973863+942853802+943612357+944220220+944762414+945119828+944887560
773+943644251+941237877+937684266+932711500+925340118+913629456+894596703
764+864864720+822417540+768479898+707971118+648145821+596230888+557079268
754+531583361+516427975+505724514+494040731+478868928+461104090+444141807
744+432817162+432303649+446352313+475005000+513663089+555289651+594360792
734+629124901+660581890+689903955+716936171+740529893+759743744+774785386
724+786908551+797313134+806370107+814134167+821120630+827920668+834317370
714+839484555+843084008+845668580+847876852+849634693+850231663+848788215
704+844535136+836944101+825820693+811181602+792551086+767885279+733644519
694+687554080+633050148+581459952+548266475+544703853+570956043+616535005
684+667372367+712984555+748732630+774378054+791752175+803128852+810519042
674+815302953+818271426+820133412+821709529+823629582+826183749+829761339
664+834745859+840713680+846371105+850811394+854411160+857604378+859973217
654+861294262+862294254+863729161+865419218+866787438+867925975+869365349
645+870982293+871928214+871743512+871050704+870880970+871491653+872230931
635+872625489+873014562+873777505+874652273+875179343+875094319+874198707
625+872665063+871413682+871396756+872589756+874138838+875254885+875699831
615+875622956+875219073+874612543+873884863+873053822+872172080+871515241
605+871411488+871863800+872601667+873408415+874148006+874684950+874989704
595+875095024+874944019+874610740+874555808+875194702+876167972+876295234
585+874342111+869971801+864139548+858602724+854808696+853167302+853592344
575+856316716+861375603+867595675+873154205+877185439+880212135+882922794
565+885055916+885643012+884115010+881282654+879136366+879219510+881215653
555+883533477+885143604+886277440+887334558+887779269+886280653+881295035
545+871340648+855711752+835599704+814077824+794943747+782047452+778850472
535+786336813+800790967+815626044+826224420+831764927+832431091+827092370
526+815281560+800278159+787932365+782920809+786709273+797248250+810180122
516+821525533+829401495+833377483+833539303+830840007+827708930+827158116
506+830448740+835996143+841080106+844304670+846384662+848874571+852541338
496+856705083+859732720+860506556+859501314+858122750+857071666+855717551
486+852814276+847512777+839942274+831176811+822905272+816907908+814013880
476+813398024+813752226+814982448+817662153+821274065+824735677+827997934
466+831711326+835934863+840038425+843580438+846604862+849168511+851144515
456+852494163+853158682+853077028+852887154+853689436+855332083+856079354
446+854763716+852434999+851033475+850903079+850483914+848284419+844166594
436+839115151+834915280+833742812+836837527+843083537+849339186+852767337
426+852795156+851202896+850634607+851950558+853031029+850856217+846096912
416+842658418+841409858+840985052+841190441+842738740+844770617+844740290
407+841248038+835546887+830313877+828001303+829713380+834223256+837906322
397+837970736+835557779+833385554+833558658+836502055+839972679+840654830
387+837339521+832308061+829401965+829527111+829788060+827530733+822652551
377+817392114+815985574+820897060
##END=
