##TITLE=SG-V2808 44-60
##JCAMP-DX=4.24
##DATA TYPE=INFRARED SPECTRUM
##DATE=14/2/2018
##SAMPLING PROCEDURE=Diamant ATR
##ORIGIN=Lara
##XUNITS=1/CM
##YUNITS=TRANSMITTANCE
##RESOLUTION=4
##FIRSTX=3997.453
##LASTX=373.96442
##DELTAX=-1.4165319
##MAXY=1.0004622
##MINY=0.67409784
##XFACTOR=1
##YFACTOR=9.3175301e-010
##NPOINTS=2559
##FIRSTY=0.99905449
##XYDATA=(X++(Y..Y))
3997+1072231033+1072217599+1072273957+1072334026+1072385202+1072446806
3989+1072598351+1072971427+1073483638+1073741823+1073493746+1072915965
3980+1072302232+1071845995+1071707243+1071875677+1072082558+1072157787
3972+1072242932+1072497790+1072863253+1073159692+1073245796+1073061497
3963+1072608971+1071992551+1071509447+1071453856+1071725667+1071938752
3955+1071942143+1071907727+1071954553+1072009823+1071974448+1071819000
3946+1071581861+1071339413+1071141233+1071007151+1070949897+1070934033
3938+1070895842+1070820485+1070777369+1070935376+1071473559+1072268648
3929+1072873552+1073055100+1072988187+1072816363+1072405353+1071700398
3921+1071030564+1070856309+1071330138+1072074562+1072445334+1072071939
3912+1071114621+1070137665+1069679700+1069755377+1069945626+1070017464
3904+1070160886+1070495323+1070781783+1070897697+1070972031+1070963779
3895+1070700605+1070236307+1069827216+1069575557+1069356266+1069226982
3887+1069420044+1069765549+1069630443+1068872074+1068074170+1067702758
3878+1067683439+1067858270+1068315531+1069022404+1069688081+1070172145
3870+1070514003+1070562556+1070258185+1069992580+1070142590+1070498778
3861+1070541382+1070188393+1069759727+1069589758+1070008444+1071272052
3853+1072782203+1073245796+1072670382+1071799425+1071084427+1070709688
3844+1070623328+1070549123+1070335205+1070215837+1070434616+1070771612
3836+1070851383+1070709624+1070517201+1070158199+1069487277+1068779572
3827+1068550366+1068942121+1069582977+1070076317+1070229206+1069969359
3819+1069646628+1069907051+1070815559+1071533819+1071419184+1070800910
3810+1070177454+1069739641+1069539669+1069474803+1069330742+1069238624
3802+1069591549+1070261703+1070654098+1070774426+1070982394+1071155178
3793+1070929555+1070409347+1070041325+1070007357+1070077469+1070023350
3785+1069914792+1069941659+1070179757+1070638617+1071296617+1071969138
3776+1072333770+1072174036+1071570219+1070919703+1070597292+1070479011
3768+1070216924+1069980425+1070181101+1070717941+1071158313+1071336791
3759+1071287853+1070957894+1070289914+1069329014+1068200064+1067199375
3751+1066767510+1066996461+1067604947+1068693468+1070533770+1072444695
3742+1072962791+1071926790+1070325418+1069166721+1069189943+1070324650
3734+1071510726+1071875550+1071470297+1070746535+1070200292+1070226200
3725+1070686595+1070813960+1070163061+1069276623+1068899197+1068997584
3717+1069027394+1068831452+1068862222+1069637224+1070960836+1071847275
3708+1071773645+1071158569+1070578805+1070261320+1070026612+1069582785
3700+1069046649+1068883588+1069292615+1069979146+1070380433+1070065954
3691+1069189751+1068643060+1069171135+1070177582+1070716085+1070832767
3683+1070973438+1071203220+1071244865+1070974590+1070692416+1070811018
3674+1071163047+1071196631+1070913306+1070655122+1070494364+1070176879
3666+1069574789+1068881605+1068524011+1068774647+1069364454+1069831822
3657+1070084825+1070180269+1069966800+1069485422+1069223143+1069692494
3649+1070745704+1071332441+1070718900+1069319931+1068093937+1067734615
3640+1068145434+1068669415+1068921843+1069032895+1069138958+1069112283
3632+1068870283+1068664618+1068846933+1069267603+1069484271+1069570695
3623+1069769131+1069953430+1069702282+1068746436+1067401713+1066439790
3615+1066495636+1067613072+1069071981+1070042669+1070461547+1070677959
3606+1070653202+1070245647+1069809880+1069825873+1070207393+1070391052
3598+1070161782+1069961426+1070273538+1070953160+1071327195+1070969280
3589+1070125063+1069476146+1069526427+1070104144+1070680006+1070835710
3581+1070400839+1069626477+1069091748+1069136975+1069562507+1069992196
3572+1070273474+1070407364+1070392907+1070316718+1070348383+1070376978
3564+1070005310+1069082856+1067954994+1067259507+1067395316+1068082103
3555+1068614145+1068540963+1068019412+1067529462+1067401969+1067690988
3547+1068284633+1068939435+1069374242+1069470069+1069348206+1069259095
3538+1069370851+1069591933+1069666075+1069463352+1069074988+1068661291
3530+1068330116+1068087540+1067858078+1067647296+1067635845+1067933883
3521+1068302289+1068371697+1068084726+1067698856+1067400754+1067132014
3513+1066806980+1066511693+1066435760+1066649549+1066976758+1067140650
3504+1067065165+1066976950+1067160353+1067645505+1068215865+1068582927
3496+1068496183+1067886353+1067053074+1066582572+1066846642+1067581790
3488+1068168399+1068338368+1068322312+1068299794+1068136286+1067782593
3479+1067524600+1067576736+1067755790+1067790781+1067734423+1067795451
3471+1067930493+1067942135+1067852001+1067850850+1067953714+1067969579
3462+1067778819+1067478542+1067291236+1067350921+1067555626+1067702630
3454+1067768456+1067825837+1067775237+1067521466+1067302111+1067361860
3445+1067422887+1067040472+1066325219+1065802133+1065718587+1065877362
3437+1066004791+1065971974+1065784733+1065558597+1065403277+1065274888
3428+1065059948+1064791783+1064617592+1064616952+1064815517+1065260943
3420+1065839811+1066154418+1065893162+1065246229+1064679643+1064397534
3411+1064306440+1064413590+1064892281+1065719611+1066507598+1066782863
3403+1066388997+1065640095+1065079395+1065001607+1065193006+1065221729
3394+1064955740+1064646059+1064544090+1064627507+1064739392+1064840529
3386+1065045170+1065455605+1065996667+1066399297+1066373580+1065880176
3377+1065235994+1064837075+1064764916+1064803618+1064825816+1064896759
3369+1065006660+1065010498+1064893880+1064805217+1064771057+1064630770
3360+1064337529+1064131481+1064276118+1064675613+1064903284+1064637551
3352+1063972130+1063294108+1063000995+1063293276+1064042242+1064880638
3343+1065551240+1066060253+1066412730+1066412922+1065907300+1065099545
3335+1064459777+1064330749+1064659301+1065059884+1065093660+1064565904
3326+1063677355+1062909517+1062676409+1062995814+1063493887+1063783801
3318+1063804336+1063699041+1063489090+1063097974+1062603739+1062186652
3309+1061954055+1062026214+1062534331+1063318672+1063947886+1064190717
3301+1064179906+1064111074+1064078833+1064081008+1063955434+1063554403
3292+1063119404+1063100725+1063520947+1063931061+1064013839+1063822951
3284+1063531054+1063372280+1063660083+1064352307+1064785195+1064366892
3275+1063422049+1062879771+1063199048+1063969635+1064521253+1064630194
3267+1064575563+1064634928+1064727429+1064630386+1064326463+1063947566
3258+1063573850+1063245746+1063012190+1062913995+1063017563+1063351169
3250+1063742412+1063959720+1064045376+1064219696+1064466302+1064517158
3241+1064265051+1063938674+1063835106+1064031047+1064391712+1064754617
3233+1065020670+1065123854+1065013505+1064704528+1064340088+1064183745
3224+1064400348+1064799588+1064974483+1064782572+1064482998+1064367851
3216+1064491378+1064771185+1065118289+1065453430+1065716092+1065853053
3207+1065788251+1065488869+1065099865+1064922987+1065145604+1065596851
3199+1065923612+1066005495+1065988286+1065941332+1065792537+1065566146
3190+1065339434+1065029050+1064578506+1064292494+1064586566+1065358370
3182+1065940884+1065810257+1065133450+1064546585+1064546265+1065155136
3173+1065998266+1066584171+1066607904+1066071064+1065224927+1064503789
3165+1064285330+1064453636+1064432334+1063921210+1063296219+1063061319
3156+1063258476+1063599247+1063865364+1064070005+1064368619+1064772720
3148+1064960026+1064596290+1063813548+1063096759+1062737117+1062646343
3139+1062648774+1062705964+1062796929+1062765200+1062430763+1061847224
3131+1061342562+1061230038+1061482465+1061721842+1061603753+1061202338
3122+1060903277+1060927074+1061089495+1061064866+1060830478+1060789473
3114+1061317485+1062169060+1062595934+1062192793+1061340770+1060660509
3105+1060314237+1060047096+1059725197+1059557595+1059776437+1060303042
3097+1060875194+1061333670+1061602537+1061552065+1061113611+1060405779
3088+1059630969+1058976423+1058643905+1058767624+1059250600+1059792558
3080+1060119639+1060148617+1059930286+1059472450+1058696744+1057601571
3071+1056357090+1055139477+1053959798+1052778456+1051730748+1051091236
3063+1050979351+1051206702+1051496040+1051780773+1052211038+1052909403
3054+1053790404+1054578200+1054999573+1055037316+1054943407+1054911230
3046+1054833634+1054490049+1053838062+1053027685+1052283389+1051807704
3037+1051623150+1051519070+1051312637+1051075691+1050940201+1050717648
3029+1049807989+1047606766+1044313120+1041345148+1040378491+1041693531
3020+1043874411+1045239028+1045130982+1043929681+1042483886+1041624827
3012+1041747586+1042655774+1043848247+1044886679+1045574169+1045998101
3003+1046419539+1047053038+1047996730+1049257843+1050623612+1051623214
2995+1051942554+1051864766+1052032560+1052751972+1053752086+1054624451
2986+1055261084+1055783403+1056230620+1056496481+1056546954+1056570623
2978+1056767588+1056995003+1056815566+1055965655+1054575193+1052870253
2969+1050889409+1048546620+1045690404+1041970203+1036895492+1030375818
2961+1023313674+1017513346+1014750655+1015653022+1019252639+1023634229
2952+1027174289+1029210596+1029679883+1028633711+1026437222+1024021315
2944+1022371325+1021668610+1020973251+1018689443+1013461011+1004910083
2935+993787480+981707047+970741875+962733480+958443687+957322797+958203798
2925+960243559+963321433+967714474+973485823+980165808+986922045+993002691
2915+998161330+1002740910+1007214490+1011612394+1015523738+1018606793
2907+1020923226+1022788988+1024425544+1025773401+1026547443+1026379393
2898+1024981895+1022443292+1019475512+1017142830+1016179947+1016583984
2890+1017847400+1019485107+1021359377+1023600325+1026274929+1029174645
2881+1031916610+1034187752+1035874524+1037008080+1037685527+1038085854
2873+1038442937+1038873650+1039269883+1039410810+1039041637+1037824279
2864+1035475541+1032116069+1028344948+1024822928+1021795975+1019049404
2856+1016256071+1013319573+1010469626+1008200147+1007133248+1007769498
2847+1010202485+1014019281+1018475654+1022849504+1026753876+1030146420
2839+1033059761+1035425580+1037210163+1038583416+1039807427+1041002138
2830+1042143307+1043222552+1044247551+1045148574+1045860501+1046437003
2822+1046936228+1047298492+1047472172+1047559044+1047723704+1048031658
2813+1048416632+1048774802+1049069002+1049301919+1049449306+1049537714
2805+1049695976+1049953777+1050130783+1050120356+1050076153+1050143514
2796+1050246954+1050297746+1050341054+1050415900+1050526057+1050756606
2788+1051142412+1051474291+1051497000+1051232930+1050920882+1050745987
2779+1050731658+1050766010+1050735880+1050717328+1050878470+1051146762
2771+1051276942+1051290759+1051477361+1051923939+1052371668+1052552704
2762+1052453934+1052275392+1052240400+1052441971+1052844089+1053341012
2754+1053735901+1053829042+1053690866+1053656514+1053905871+1054252654
2745+1054443158+1054450195+1054398763+1054377013+1054380403+1054355199
2737+1054288094+1054278307+1054450643+1054764482+1054975776+1054865171
2728+1054473480+1054074305+1053924102+1054012126+1054079422+1053991079
2720+1054003809+1054412133+1055039171+1055446982+1055552662+1055623925
2711+1055776942+1055888570+1055919532+1055967382+1056042803+1056040884
2703+1055919980+1055758518+1055624372+1055484533+1055303049+1055136598
2694+1055040898+1054978847+1054943599+1055039875+1055283922+1055479032
2686+1055450181+1055267865+1055096552+1054992536+1054961959+1055052413
2677+1055261660+1055465086+1055547736+1055527521+1055482102+1055404314
2669+1055227756+1054972514+1054774077+1054730002+1054799858+1054898884
2660+1055031239+1055264923+1055579849+1055806688+1055784746+1055565392
2652+1055365740+1055291662+1055245220+1055153742+1055136726+1055295692
2643+1055463743+1055378662+1055094505+1054995671+1055301770+1055732227
2635+1055839313+1055568782+1055290895+1055329533+1055675613+1056120847
2626+1056460850+1056568320+1056457971+1056302203+1056254737+1056333229
2618+1056575293+1057091982+1057761241+1058130542+1057889054+1057251524
2609+1056680268+1056417478+1056434366+1056649882+1057020335+1057461859
2601+1057790859+1057828154+1057563956+1057171881+1056861880+1056794264
2592+1057060829+1057583531+1058097022+1058398514+1058562023+1058719454
2584+1058749968+1058492423+1058200334+1058378236+1059093873+1059828701
2575+1060131793+1060095970+1060045049+1060068526+1060068910+1060027521
2567+1059989395+1059968797+1060034558+1060265875+1060509667+1060504037
2558+1060324728+1060289288+1060422667+1060494250+1060497320+1060607925
2550+1060823506+1061027891+1061205729+1061385422+1061583346+1061788308
2541+1061827969+1061492892+1060953685+1060655711+1060676182+1060625261
2533+1060283787+1059932205+1059911095+1060154695+1060331765+1060285834
2524+1060137742+1060060914+1060119319+1060229092+1060150984+1059697498
2516+1059064255+1058715424+1058877205+1059365363+1059866764+1060158981
2507+1060186296+1060139214+1060271313+1060501926+1060460793+1060049207
2499+1059662762+1059728012+1060253849+1060921188+1061411458+1061584498
2490+1061491357+1061294776+1061190696+1061393546+1062032355+1062910285
2482+1063536044+1063600078+1063309141+1063107698+1063183567+1063348483
2473+1063322255+1063046414+1062687092+1062385728+1062184988+1062146734
2465+1062249918+1062240195+1061926676+1061514642+1061324202+1061364503
2456+1061459436+1061554688+1061664717+1061748902+1061794769+1061833087
2448+1061781911+1061449520+1060831374+1060295238+1060301443+1060926882
2439+1061796432+1062468441+1062757844+1062729633+1062556529+1062432362
2431+1062520001+1062868384+1063315602+1063497598+1063090938+1062117436
2422+1060972813+1060092899+1059592650+1059273310+1058959599+1058710434
2414+1058673971+1058900682+1059337280+1059856976+1060300355+1060638183
2405+1060997377+1061381776+1061572152+1061485472+1061400839+1061602218
2397+1061966145+1062103746+1061806411+1061214237+1060614002+1060168640
2388+1059825567+1059456457+1059069372+1058841574+1058941879+1059371888
2380+1059974938+1060560843+1061026932+1061348191+1061489374+1061461611
2371+1061453614+1061660879+1062035425+1062449058+1062855143+1063025240
2363+1062588130+1061599915+1060622255+1060153863+1060292935+1060738809
2354+1060985607+1060775656+1060292487+1059812709+1059504947+1059537572
2346+1059994705+1060574021+1060733115+1060335155+1059720847+1059229490
2337+1058929341+1058659514+1058242362+1057688634+1057186403+1056914848
2329+1056882415+1056915104+1056810832+1056510747+1056133833+1055963800
2320+1056341033+1057272827+1058161056+1058321110+1057757531+1057092046
2312+1056831622+1057059165+1057682493+1058532149+1059266209+1059546464
2303+1059392615+1059175627+1059176907+1059274525+1059196609+1058922048
2295+1058580702+1058141929+1057587497+1057236235+1057419959+1057857388
2286+1057850799+1057245063+1056787483+1057200604+1058160736+1058681008
2278+1058427045+1058110583+1058497349+1059473154+1060212268+1060069614
2269+1059258597+1058606546+1058601301+1058959087+1059297619+1059737352
2261+1060520158+1061468264+1062191193+1062614230+1062987561+1063346627
2252+1063251439+1062436328+1061458860+1061125446+1061480994+1062006639
2244+1062578215+1063500668+1064699026+1065432639+1065001670+1063644858
2235+1062525631+1062562094+1063417251+1064048063+1064043010+1063849563
2227+1063808494+1063669486+1063229050+1062796034+1062582948+1062175393
2218+1061242064+1060302210+1060082984+1060585216+1061362648+1062105857
2210+1062458398+1062039456+1061252811+1061354844+1063030805+1065298365
2201+1066444652+1065958924+1064899190+1064200313+1063442455+1061907037
2193+1060149193+1059625595+1061020087+1063526448+1065639072+1066565492
2184+1066959486+1067804151+1068500661+1067313882+1064224430+1061836221
2176+1062541559+1065600626+1067854240+1067026974+1063783354+1060776295
2167+1060030848+1061272578+1062848490+1063997399+1065489189+1067959599
2159+1070309937+1070703163+1069084200+1067294179+1066867816+1067639747
2150+1068513327+1069130386+1070082906+1071533052+1072675756+1072898949
2142+1072402154+1071356621+1069609525+1067700135+1066978805+1067961646
2133+1069454141+1069973453+1069268818+1068011479+1066790732+1065822667
2125+1065131083+1064646187+1064257886+1063886794+1063454801+1062845163
2116+1062045981+1061307826+1060993731+1061160182+1061402438+1061320108
2108+1061112524+1061380112+1062224778+1062949691+1062985770+1062701997
2099+1062796929+1063227834+1063398827+1063192587+1063104435+1063475784
2091+1064164809+1064779821+1064877376+1064287696+1063500604+1063253167
2082+1063546535+1063694946+1063520627+1063614344+1064045249+1063858327
2074+1062569515+1061277696+1061367254+1062770702+1064354546+1065491748
2065+1066396418+1067192594+1067396979+1066438766+1064442889+1062302438
2057+1060879863+1060315900+1060407378+1061385486+1063656820+1066619035
2048+1068418012+1067736471+1065407883+1063278179+1062257787+1062318750
2040+1063268839+1064630578+1065659670+1066196126+1066742370+1067479501
2031+1068159827+1068887874+1069939037+1070936464+1071034722+1070010747
2023+1068648625+1067594776+1066324259+1064328829+1062782728+1063255534
2014+1065413256+1067923904+1070416768+1072632128+1073245796+1071694321
2006+1069610676+1068844630+1069207663+1069361064+1068562073+1066974966
1997+1065198060+1063999510+1064009809+1065096731+1066155185+1066049634
1989+1064792615+1063362108+1062524351+1062023015+1060845447+1058445980
1980+1055796773+1054846172+1056525524+1059646514+1062388030+1064183041
1972+1065408331+1066000185+1065268811+1063120620+1060759087+1059604549
1963+1060073324+1061648532+1063232248+1063575258+1062596958+1062050203
1955+1063676779+1066918289+1069415375+1069647843+1068233457+1066803014
1946+1066464099+1067263409+1068429846+1069160260+1069480113+1069933919
1938+1070523726+1070637850+1069855875+1068401251+1066963388+1066158448
1929+1065879729+1065385941+1064375848+1063447765+1063144929+1063224572
1921+1063330955+1063656372+1064408856+1065213732+1065585081+1065541261
1912+1065298365+1064813917+1064021132+1063201478+1062534523+1061523278
1904+1059580752+1056959691+1054533357+1052952647+1052511251+1053365576
1895+1055307527+1057657353+1059785777+1061424892+1062410164+1062679416
1887+1062544822+1062502218+1062821366+1063419042+1063979039+1064238375
1878+1064258718+1064291535+1064332092+1064122461+1063683304+1063464077
1870+1063859862+1064798948+1065875123+1066713391+1067086083+1066997804
1861+1066761113+1066702197+1066784910+1066728872+1066394435+1065945298
1853+1065753899+1066117507+1066901848+1067537459+1067566501+1067115446
1844+1066702644+1066594854+1066558455+1066339804+1065955406+1065602033
1836+1065486310+1065651226+1065958028+1066219092+1066276857+1066043877
1827+1065546315+1064810207+1063791606+1062607129+1061661070+1061330215
1819+1061668235+1062484626+1063538027+1064545945+1065216227+1065449208
1810+1065416583+1065349734+1065356578+1065443642+1065551049+1065570496
1802+1065470382+1065394065+1065481833+1065622184+1065585273+1065357602
1793+1065192302+1065260431+1065303547+1064957147+1064198458+1063274277
1785+1062485457+1061950920+1061554688+1061201379+1060938460+1060774952
1776+1060644644+1060643045+1061057893+1061948426+1062861156+1063375222
1768+1063449428+1063164504+1062662016+1062199318+1062023207+1062142704
1759+1062358092+1062542391+1062669756+1062676921+1062496972+1062181214
1751+1061940237+1061987320+1062247295+1062449698+1062452065+1062313121
1742+1062192217+1062202132+1062279025+1062260154+1062143152+1062111614
1734+1062276274+1062459038+1062524991+1062587938+1062721508+1062865058
1725+1062956408+1062991783+1062964532+1062873054+1062808956+1062966963
1717+1063408551+1063831523+1063982366+1063941616+1063850842+1063710299
1708+1063448596+1063114351+1062931651+1063112176+1063782714+1065040309
1700+1066528709+1067391734+1067398003+1066880418+1066098635+1065283396
1691+1064665506+1064371114+1064367084+1064554325+1064865669+1065083105
1683+1064927401+1064591684+1064395039+1064385123+1064463935+1064526882
1674+1064526818+1064492402+1064445895+1064288016+1063853529+1063198792
1666+1062589217+1062173090+1061813704+1061196197+1060266771+1059304592
1657+1058552747+1058156962+1058389430+1059336513+1060040252+1060011145
1649+1059906873+1060344431+1061258249+1061945931+1062176224+1062196055
1640+1062112638+1061942924+1061966337+1062664319+1063871249+1064747260
1632+1065102360+1065295743+1065607215+1066043493+1066385735+1066445355
1623+1066289075+1066179558+1066270268+1066555320+1067029533+1067559400
1615+1067794620+1067581982+1067050260+1066343130+1065456180+1064028808
1606+1061299893+1056714237+1050817826+1045129831+1040575712+1036505337
1598+1032022225+1027766016+1025642901+1026890325+1030925132+1036105713
1589+1040945589+1044570729+1046732418+1047818252+1048703987+1050132191
1581+1052035119+1053720676+1054649527+1054705245+1054022297+1052876331
1572+1051655775+1050951012+1051400852+1052923477+1054768448+1056444281
1564+1057709873+1058481740+1059137117+1060476722+1062443941+1063648696
1555+1063994648+1064089324+1063990682+1063302168+1061685315+1059315786
1547+1056795607+1054725012+1053564780+1053748951+1055882941+1059821089
1538+1063330699+1065121807+1066010676+1066883041+1067809333+1068339072
1530+1068383979+1068262563+1068277277+1068498358+1068828190+1069308224
1521+1070092502+1070999155+1071643913+1071978990+1072231289+1072594513
1513+1073026634+1073245796+1072957162+1071660225+1067428773+1058255348
1504+1047071461+1037846861+1031801399+1027683302+1021649355+1011481766
1496+1002655829+1002222174+1009774075+1020819211+1031172889+1037971155
1487+1040661624+1040029660+1036306453+1029650073+1021700915+1015724541
1479+1014421399+1017981610+1024531287+1031836199+1038509275+1043818437
1470+1047463728+1049893645+1051745205+1053194775+1053852839+1053105792
1462+1050607811+1045658546+1034632410+1010060279+973858962+945188117+935446508
1452+942771634+960635506+981288233+999034911+1012030121+1020884844+1026646533
1442+1029889131+1030633235+1028093481+1019841742+1003474523+982268580+963933054
1432+954551854+957897315+972711269+991317517+1006948821+1018078013+1025396935
1422+1029495712+1030701107+1028482101+1021432367+1009339716+993999286+978558998
1412+967198873+963197010+966700543+975349410+986395952+997383258+1006050356
1402+1011100438+1012355474+1010113950+1005558296+1001079534+999157606
1394+1001033987+1006039929+1012551096+1019485811+1026334933+1032537890
1385+1037551125+1041312651+1044133683+1046361326+1048225936+1049810420
1377+1051139597+1052282237+1053283438+1054063942+1054534764+1054717016
1368+1054664624+1054348802+1053599900+1052042092+1048966969+1043219929
1360+1033456506+1019316673+1003291184+991185163+988677394+996352502+1009478148
1350+1022489670+1032426838+1038963465+1042884469+1045066244+1046226604
1341+1046833555+1046994377+1046622453+1045922680+1045508472+1045874575
1333+1046959449+1048246342+1049117108+1049067979+1047880495+1045907136
1324+1044096708+1043441715+1044310178+1046322879+1048673217+1050400803
1316+1050610306+1048949505+1046214577+1044183964+1044218892+1046057082
1307+1048289458+1049740180+1050050117+1049271788+1047604591+1045619205
1299+1044245440+1044228743+1045624450+1047868277+1050295507+1052515089
1290+1054319376+1055420819+1055376359+1053702956+1050073594+1044644679
1282+1038428928+1033194163+1030517960+1030683004+1032634102+1035083978
1273+1037484084+1039963259+1042728445+1045733520+1048728488+1051465207
1265+1053855078+1055927464+1057661639+1058967084+1059808423+1060223143
1256+1060221672+1059722702+1058548205+1056461170+1053204179+1048477659
1248+1041952355+1033432773+1022915266+1010336375+995475468+978576526+961310202
1238+946901757+938743672+938321531+944262401+953393733+962765146+970838534
1228+977224895+981825648+984330155+984182703+980759197+973805227+964203969
1218+954514559+948361051+948612199+955654256+967230090+979986754+991401127
1208+1000574039+1007673926+1012965560+1016190310+1016474786+1013075334
1200+1006903082+1001197367+999580195+1002867124+1008335444+1012350804
1191+1013142758+1011130504+1007729452+1004487623+1002720567+1003109444
1183+1005444236+1008900879+1012659142+1016246220+1019373479+1021634130
1174+1022494340+1021611037+1019206900+1016146362+1013647741+1012901078
1166+1014615678+1018362618+1022489095+1025377360+1026799359+1027565660
1157+1028249376+1029010177+1030291185+1032740933+1036382002+1040423206
1149+1044022503+1046939362+1049351943+1051335411+1052758561+1053546357
1140+1053801087+1053609752+1052753251+1050593290+1046237927+1039074006
1132+1029680267+1020437883+1014620539+1014211640+1018593359+1025348893
1123+1031993886+1036952106+1039054239+1036442582+1027512501+1014409821
1115+1004098618+1003079249+1011106515+1021934663+1029505052+1031224258
1106+1026120760+1013683437+996521320+981946233+977513913+984200999+995381623
1096+1003116480+1004786365+1003763733+1005016722+1010766832+1019620149
1088+1028668191+1035855589+1040681135+1043508180+1044710952+1044069137
1079+1040427492+1032494902+1021152305+1010783401+1006755758+1010938337
1071+1020430142+1030689849+1038955660+1044787205+1048787660+1051599161
1062+1053626448+1055120797+1056352484+1057591399+1058881619+1060034302
1054+1060944666+1061763679+1062659969+1063524785+1064075762+1064222830
1045+1064125787+1063798579+1062748760+1059740742+1052795600+1040677105
1037+1025685122+1013709217+1009465610+1012422004+1018844059+1026289066
1028+1034252554+1042073004+1048582187+1053318430+1056690824+1059095472
1020+1060564041+1061242640+1061776985+1062938432+1064923563+1067186453
1011+1068973083+1069988806+1070543045+1070896034+1070603370+1069058164
1003+1066799496+1065556166+1066498195+1068942889+1071297513+1072720983
994+1073245796+1072985309+1072128041+1071216270+1070688002+1070403654
986+1069814614+1068314955+1064900917+1056370779+1036755717+1003511370+966564478
976+945149351+950109107+972498247+993394446+1001865666+1001068851+1000716949
966+1006943384+1018138338+1028256093+1033065519+1033215145+1032546654
958+1034593900+1040201293+1047528466+1053981612+1057821501+1057606816
949+1050824031+1035346065+1014139930+996872454+993129928+1003614106+1020403787
939+1035318429+1045478214+1051893937+1056088734+1058668406+1059679010
931+1059635511+1059851219+1061418175+1064175620+1067011813+1068929839
922+1069658334+1069374050+1068025937+1065043059+1059517677+1050338048
914+1036293595+1016674822+992499563+967598752+947878650+937823713+936695530
904+938889141+939187946+937770298+939538632+948666062+964481153+982540262
894+998515663+1010594624+1019291405+1026076621+1032080438+1037577545+1042336434
884+1046128857+1048851695+1050413661+1050699097+1049779586+1048306794
875+1047523349+1048571312+1051722496+1056258319+1060940316+1064687128
867+1067063182+1068217976+1068445263+1067991137+1067214280+1066579373
858+1066325603+1066124288+1064924778+1061269124+1054530414+1046252640
850+1039292273+1034576948+1029433981+1020539404+1008110780+995461906+984264777
840+971975353+954921667+933033799+910069436+888825943+867891170+845621399
830+826640027+820246822+830864955+853306999+878802351+902371682+923024281
820+940550133+954833899+966580726+976845038+986140390+994297132+1000848856
810+1005522856+1008474452+1010264025+1011816523+1013909380+1015965582
802+1015363364+1008345743+992429324+969523750+947185978+934894699+937396646
792+951918063+971764698+991313551+1007681091+1019998214+1028706829+1034937741
782+1039615195+1043125381+1045778683+1048089999+1050470914+1052967616
773+1055350387+1057354005+1058973097+1060503717+1062058711+1063245618
765+1063671469+1063480454+1063013661+1062299176+1061299510+1060318011
756+1059712467+1059399524+1058995039+1058355718+1057720236+1057322979
748+1056998074+1056146115+1053995813+1049815985+1042714563+1031128942
739+1012915663+986950896+955299028+922804798+892697241+862846398+829036360
730+793257056+766552470+760488777+774880014+795419769+805137837+799034482
720+788169743+788950694+808036146+837281445+859315869+856652780+822504978
710+769975720+728525182+723472669+756237750+805989667+847389350+863929481
700+851709401+821102619+792946544+783837346+793961627+812755373+832623694
690+851998995+869274851+881070807+886974702+891961709+902150088+918748561
680+936730010+948614950+948808204+936532214+917743458+902840905+899534977
670+910261284+933291983+958169510+973855956+982229430+988537362+994668545
660+1000238259+1004352517+1006249112+1005449098+1001705484+994376904+981896144
650+962348122+935747553+906782124+884245148+875982343+883698009+902484846
640+925122191+946412639+964213692+978152786+988538706+996304397+1002706366
630+1008359689+1013146405+1017149674+1020564992+1022525494+1021703474
622+1018944749+1017724641+1020734642+1027079165+1033867324+1039330527
613+1043108173+1045172243+1046085293+1046924841+1047877745+1047979586
605+1046500909+1043451630+1038585527+1030441835+1016216602+993203174+962445613
595+931808317+913543479+915900981+935959487+961425733+978150035+975052011
585+948822086+910532902+882668980+881785740+904659329+935187172+961044149
575+979376412+991791219+1000150811+1006063086+1010780266+1014990416+1019189628
565+1023732552+1028310980+1032064509+1034619424+1036670828+1039067673
557+1041628025+1043554943+1044787717+1045948780+1046987724+1046881085
548+1044980588+1042125843+1040206282+1040805493+1044125943+1048863657
540+1053074575+1055578889+1056789530+1057916305+1059270303+1059775798
531+1058174042+1053779017+1045304534+1029560003+1003035238+966293627+926479196
521+895099139+882669172+892100781+916065321+943238235+966736622+985212819
511+999105406+1008700012+1014556761+1017522238+1017584993+1013238906+1001860997
501+979952018+944229392+896156187+847512876+818116735+821658650+853471147
492+895797313+933561619+962243659+983279888+998385355+1009027284+1016714803
482+1021914960+1024225572+1023712145+1021182627+1017033504+1009702492+996307979
472+977522293+960849935+954929151+961950290+976890841+992799009+1005870088
462+1015571204+1022641152+1028365675+1034077659+1039592678+1042886132
453+1042287305+1038576635+1034938509+1034170160+1036263401+1039408443
445+1042668184+1046528928+1050803688+1054082877+1055864901+1057052640
436+1058392629+1059899133+1061106831+1060947288+1058661753+1055616184
428+1054667567+1057328033+1062476118+1067297377+1069472372+1069171519
419+1068939115+1069980234+1069595963+1066244936+1062111102+1060070637
411+1060172862+1059869834+1058212552+1057539519+1060216490+1065616810
402+1070941901+1073245796+1071452577+1066445547+1063955626+1065963146
394+1067726043+1064680731+1055745405+1041756990+1025189863+1011736816
385+1008648324+1017324570+1030282613+1040690730+1048031850+1053795330
377+1058786047+1064681626+1073245796
##END=
