##TITLE= PQQ V keton
##JCAMP-DX= 4.24
##DATA TYPE= INFRARED SPECTRUM
##ORIGIN= JASCO
##OWNER= 
##DATE= 18/10/05
##TIME= 10:26:58
##SPECTROMETER/DATA SYSTEM= 
##RESOLUTION= 
##DELTAX=   0.48211674
##XUNITS= 1/CM
##YUNITS= TRANSMITTANCE
##XFACTOR= 1.00000
##YFACTOR= 0.0001
##FIRSTX=   649.8934
##LASTX=  4000.1226
##NPOINTS=     6950
##FIRSTY=      0.25013
##MAXY=      1.02344
##MINY=      0.23310
##XYDATA= (X++(Y..Y))
649.8934 2501 2584 2633 2658 2687 2742 2828 2931 3027 3096 3126 3120 3089 3048
656.6430 3020 3023 3064 3139 3230 3323 3415 3513 3623 3734 3823 3862 3838 3770
663.3926 3702 3673 3692 3737 3774 3771 3702 3533 3216 2740 2331 2361 2729 3147
670.1423 3513 3813 4033 4143 4127 4009 3848 3712 3645 3649 3695 3741 3766 3780
676.8919 3813 3887 4007 4149 4272 4339 4334 4274 4191 4121 4084 4077 4082 4078
683.6415 4049 4002 3951 3914 3893 3883 3869 3845 3819 3807 3824 3866 3911 3925
690.3912 3890 3818 3750 3732 3786 3899 4026 4123 4169 4169 4144 4109 4069 4016
697.1408 3952 3890 3854 3860 3902 3961 4012 4048 4079 4127 4206 4315 4439 4559
703.8904 4665 4754 4831 4899 4956 4998 5016 5007 4967 4896 4798 4680 4555 4439
710.6401 4350 4298 4288 4310 4350 4389 4414 4425 4427 4430 4433 4434 4422 4389
717.3897 4339 4284 4236 4208 4207 4234 4286 4357 4438 4517 4585 4635 4668 4687
724.1393 4704 4727 4760 4802 4848 4896 4945 4999 5058 5117 5169 5206 5223 5225
730.8890 5224 5233 5263 5309 5364 5415 5457 5491 5519 5543 5560 5564 5556 5547
737.6386 5550 5575 5622 5680 5735 5776 5804 5827 5856 5894 5938 5981 6014 6035
744.3882 6041 6035 6018 5991 5956 5917 5879 5857 5866 5919 6014 6128 6219 6250
751.1379 6209 6117 6014 5941 5921 5948 5996 6037 6057 6054 6038 6019 5998 5977
757.8875 5955 5932 5908 5881 5850 5822 5808 5826 5885 5975 6072 6142 6163 6133
764.6371 6071 6006 5957 5927 5904 5876 5838 5797 5761 5733 5707 5674 5635 5599
771.3868 5586 5611 5675 5765 5859 5936 5983 5996 5977 5931 5867 5793 5720 5655
778.1364 5601 5555 5514 5477 5450 5440 5453 5486 5530 5570 5592 5585 5548 5489
784.8860 5422 5364 5327 5319 5341 5389 5456 5526 5583 5612 5604 5564 5507 5455
791.6357 5424 5420 5437 5463 5491 5514 5529 5532 5516 5477 5419 5348 5279 5218
798.3853 5164 5110 5043 4958 4856 4749 4647 4562 4500 4464 4456 4481 4543 4643
805.1349 4776 4929 5080 5210 5310 5386 5449 5511 5573 5628 5668 5689 5694 5693
811.8846 5694 5701 5710 5721 5728 5729 5719 5688 5628 5541 5436 5334 5254 5203
818.6342 5170 5133 5066 4958 4817 4667 4531 4427 4363 4333 4328 4340 4366 4408
825.3839 4470 4552 4652 4759 4862 4951 5027 5094 5160 5227 5300 5378 5464 5562
832.1335 5671 5780 5872 5928 5936 5903 5847 5791 5752 5737 5741 5754 5766 5765
838.8831 5746 5703 5640 5562 5476 5392 5314 5245 5182 5118 5040 4936 4800 4636
845.6328 4460 4295 4163 4078 4039 4034 4050 4073 4096 4118 4143 4182 4248 4355
852.3824 4510 4708 4934 5170 5399 5613 5814 6001 6171 6313 6420 6493 6545 6590
859.1320 6639 6692 6743 6787 6829 6878 6938 7002 7051 7064 7033 6969 6897 6844
865.8817 6822 6830 6851 6871 6880 6877 6871 6871 6879 6891 6896 6884 6852 6802
872.6313 6744 6692 6655 6640 6646 6665 6687 6701 6701 6688 6671 6663 6678 6724
879.3809 6799 6898 7009 7121 7224 7306 7359 7378 7366 7338 7311 7301 7315 7348
886.1306 7387 7418 7431 7427 7413 7395 7381 7373 7372 7379 7390 7400 7402 7390
892.8802 7367 7338 7315 7308 7319 7343 7371 7388 7388 7368 7332 7292 7259 7245
899.6298 7252 7280 7320 7361 7394 7413 7417 7408 7391 7371 7350 7331 7313 7295
906.3795 7275 7256 7239 7229 7226 7229 7234 7237 7236 7230 7223 7214 7202 7185
913.1291 7163 7142 7126 7122 7132 7150 7166 7171 7160 7134 7100 7067 7044 7033
919.8787 7034 7044 7054 7055 7043 7017 6982 6947 6920 6902 6891 6878 6858 6826
926.6284 6783 6735 6693 6663 6650 6650 6657 6660 6647 6613 6559 6489 6413 6337
933.3780 6267 6204 6148 6097 6046 5992 5929 5856 5779 5709 5663 5659 5706 5804
940.1276 5943 6109 6286 6462 6630 6781 6908 7007 7076 7117 7141 7160 7182 7213
946.8773 7247 7275 7287 7278 7253 7221 7195 7182 7183 7190 7196 7194 7182 7164
953.6269 7145 7128 7116 7108 7100 7090 7077 7059 7039 7018 6997 6975 6951 6924
960.3765 6897 6875 6862 6860 6865 6870 6865 6848 6818 6780 6741 6707 6679 6660
967.1262 6647 6640 6633 6624 6608 6586 6561 6536 6514 6492 6467 6433 6389 6341
973.8758 6295 6256 6227 6203 6179 6151 6121 6091 6066 6046 6030 6014 5996 5974
980.6254 5946 5913 5878 5844 5815 5798 5793 5796 5802 5801 5790 5773 5759 5760
987.3751 5781 5824 5884 5956 6034 6114 6196 6276 6350 6411 6456 6482 6493 6497
994.1247 6501 6513 6533 6557 6577 6586 6579 6563 6547 6542 6553 6573 6589 6587
1000.8743 6559 6511 6457 6411 6379 6359 6344 6327 6307 6286 6270 6259 6254
1007.1418 6251 6244 6231 6205 6166 6113 6050 5985 5921 5860 5800 5735 5665
1013.4094 5593 5524 5462 5406 5350 5285 5206 5115 5019 4928 4853 4798 4764
1019.6769 4745 4734 4726 4719 4718 4732 4766 4825 4903 4994 5091 5193 5297
1025.9445 5405 5513 5619 5720 5814 5904 5990 6073 6149 6219 6281 6341 6399
1032.2119 6456 6510 6558 6602 6648 6697 6752 6807 6855 6891 6916 6933 6948
1038.4795 6963 6980 6998 7018 7041 7068 7097 7123 7144 7159 7168 7174 7176
1044.7469 7178 7178 7179 7180 7179 7172 7158 7137 7115 7099 7097 7109 7130
1051.0145 7150 7164 7167 7164 7163 7168 7176 7180 7173 7153 7125 7100 7086
1057.2820 7082 7082 7075 7057 7032 7007 6991 6984 6981 6974 6959 6938 6920
1063.5496 6910 6909 6911 6907 6894 6872 6843 6812 6777 6735 6684 6628 6574
1069.8170 6537 6524 6537 6566 6598 6620 6626 6616 6598 6577 6555 6533 6508
1076.0846 6478 6443 6405 6369 6341 6325 6326 6342 6371 6406 6440 6463 6470
1082.3521 6464 6450 6440 6442 6458 6484 6511 6530 6538 6537 6531 6523 6514
1088.6196 6501 6486 6469 6454 6445 6445 6454 6468 6481 6486 6480 6461 6435
1094.8871 6411 6395 6389 6391 6396 6400 6402 6401 6398 6394 6388 6382 6378
1101.1547 6379 6384 6391 6397 6396 6388 6376 6362 6349 6336 6319 6295 6263
1107.4221 6227 6189 6156 6129 6109 6094 6082 6071 6060 6048 6038 6034 6038
1113.6897 6051 6071 6091 6105 6112 6110 6106 6103 6104 6109 6114 6117 6116
1119.9572 6111 6104 6098 6098 6106 6125 6152 6178 6196 6196 6176 6140 6096
1126.2247 6056 6030 6020 6026 6041 6059 6071 6070 6053 6019 5969 5911 5852
1132.4922 5801 5764 5746 5745 5754 5765 5764 5745 5705 5648 5584 5523 5472
1138.7598 5433 5402 5371 5334 5288 5233 5173 5112 5048 4982 4910 4831 4746
1145.0272 4656 4563 4469 4379 4296 4226 4172 4135 4114 4105 4106 4117 4144
1151.2948 4193 4268 4367 4485 4613 4740 4859 4966 5057 5132 5191 5235 5268
1157.5623 5295 5323 5358 5400 5447 5491 5527 5554 5573 5588 5603 5621 5639
1163.8298 5657 5673 5686 5692 5689 5673 5643 5602 5558 5522 5499 5490 5490
1170.0973 5490 5484 5470 5447 5419 5389 5356 5322 5284 5244 5201 5155 5108
1176.3649 5060 5015 4975 4940 4912 4887 4865 4840 4813 4782 4751 4723 4701
1182.6323 4689 4684 4686 4691 4699 4713 4735 4764 4798 4831 4857 4875 4886
1188.8999 4894 4900 4902 4895 4873 4835 4786 4734 4688 4655 4635 4623 4609
1195.1674 4586 4550 4502 4451 4405 4370 4346 4329 4314 4297 4279 4255 4232
1201.4349 4211 4193 4178 4164 4150 4134 4116 4094 4071 4046 4023 4003 3986
1207.7024 3973 3963 3955 3953 3958 3971 3990 4014 4041 4072 4108 4154 4214
1213.9700 4291 4384 4487 4596 4702 4803 4899 4994 5093 5202 5320 5443 5565
1220.2374 5682 5791 5891 5980 6059 6127 6183 6228 6264 6292 6315 6332 6344
1226.5050 6351 6352 6346 6332 6311 6287 6262 6239 6219 6204 6195 6195 6210
1232.7725 6243 6297 6372 6465 6572 6687 6807 6923 7029 7116 7182 7229 7261
1239.0400 7288 7313 7337 7356 7363 7355 7332 7301 7266 7235 7209 7187 7166
1245.3075 7143 7116 7085 7053 7022 6993 6964 6934 6900 6863 6824 6786 6753
1251.5751 6724 6700 6679 6659 6636 6609 6576 6539 6500 6460 6419 6377 6334
1257.8425 6292 6252 6217 6186 6158 6129 6097 6062 6026 5990 5955 5918 5876
1264.1101 5827 5773 5717 5665 5618 5576 5539 5506 5478 5455 5437 5424 5412
1270.3776 5403 5396 5393 5396 5404 5417 5433 5453 5478 5509 5549 5599 5656
1276.6451 5720 5789 5863 5942 6023 6102 6174 6235 6282 6317 6343 6361 6371
1282.9126 6372 6361 6340 6309 6270 6226 6176 6120 6059 5995 5930 5866 5802
1289.1802 5736 5667 5597 5527 5464 5409 5364 5326 5289 5249 5207 5164 5126
1295.4476 5097 5079 5074 5079 5097 5127 5170 5226 5293 5371 5460 5561 5674
1301.7152 5799 5933 6071 6212 6355 6500 6647 6794 6937 7072 7195 7305 7403
1307.9827 7492 7576 7658 7739 7821 7901 7977 8048 8109 8162 8204 8238 8267
1314.2502 8292 8315 8336 8356 8374 8390 8402 8411 8418 8422 8426 8430 8435
1320.5177 8440 8446 8451 8456 8459 8461 8463 8464 8467 8473 8484 8499 8516
1326.7853 8530 8537 8533 8518 8495 8469 8446 8428 8415 8405 8393 8375 8351
1333.0527 8321 8288 8254 8223 8193 8164 8134 8102 8068 8031 7992 7948 7899
1339.3203 7843 7783 7722 7662 7605 7549 7490 7426 7355 7276 7192 7108 7025
1345.5878 6946 6869 6792 6714 6633 6549 6459 6365 6267 6167 6068 5976 5893
1351.8553 5823 5765 5721 5691 5677 5680 5703 5741 5792 5848 5903 5955 6000
1358.1228 6040 6074 6104 6130 6151 6164 6172 6175 6178 6187 6203 6229 6264
1364.3904 6308 6359 6417 6478 6539 6599 6661 6730 6812 6908 7012 7114 7207
1370.6578 7292 7369 7446 7523 7601 7679 7753 7819 7877 7927 7969 8007 8044
1376.9254 8083 8123 8163 8200 8234 8262 8287 8311 8335 8361 8389 8415 8435
1383.1929 8445 8444 8435 8423 8416 8415 8422 8429 8431 8422 8404 8385 8370
1389.4604 8363 8361 8360 8356 8347 8334 8321 8309 8299 8287 8273 8258 8245
1395.7279 8235 8228 8222 8215 8202 8179 8145 8106 8066 8029 7994 7958 7921
1401.9955 7885 7853 7825 7802 7779 7751 7718 7681 7645 7613 7585 7560 7537
1408.2629 7514 7493 7476 7462 7454 7448 7444 7441 7441 7446 7455 7469 7486
1414.5305 7504 7523 7542 7563 7586 7613 7646 7683 7723 7764 7798 7817 7817
1420.7980 7807 7796 7788 7786 7789 7794 7800 7803 7801 7793 7780 7764 7748
1427.0656 7732 7717 7703 7689 7670 7644 7613 7579 7546 7516 7489 7463 7435
1433.3330 7407 7381 7361 7349 7340 7331 7316 7294 7268 7237 7207 7181 7162
1439.6006 7152 7150 7153 7159 7163 7164 7163 7160 7156 7151 7146 7141 7136
1445.8680 7135 7138 7144 7148 7146 7132 7106 7073 7037 7000 6966 6934 6906
1452.1356 6884 6867 6854 6844 6837 6834 6834 6836 6841 6848 6860 6873 6878
1458.4031 6872 6857 6840 6822 6807 6792 6778 6765 6755 6748 6745 6744 6746
1464.6707 6750 6757 6764 6771 6779 6792 6812 6840 6875 6913 6955 6999 7047
1470.9381 7096 7141 7172 7181 7170 7149 7130 7120 7118 7121 7122 7116 7100
1477.2057 7078 7055 7033 7014 6997 6979 6961 6942 6926 6913 6903 6893 6882
1483.4731 6866 6844 6815 6781 6743 6702 6658 6611 6565 6526 6494 6464 6429
1489.7407 6380 6319 6253 6192 6136 6082 6026 5970 5916 5866 5821 5779 5736
1496.0082 5694 5653 5614 5575 5532 5484 5436 5392 5357 5330 5304 5277 5244
1502.2758 5210 5179 5156 5142 5134 5131 5131 5151 5227 5378 5548 5671 5739
1508.5432 5773 5797 5820 5848 5881 5915 5947 5975 5997 6010 6013 6004 5985
1514.8108 5956 5918 5870 5811 5748 5689 5640 5602 5573 5552 5536 5521 5508
1521.0782 5510 5542 5592 5641 5684 5726 5777 5848 5942 6055 6174 6289 6401
1527.3458 6517 6639 6764 6880 6982 7072 7158 7247 7339 7433 7525 7620 7725
1533.6133 7840 7949 8037 8099 8144 8182 8219 8256 8289 8311 8313 8299 8294
1539.8809 8327 8386 8447 8498 8534 8553 8561 8563 8567 8573 8575 8566 8544
1546.1483 8511 8476 8443 8414 8387 8357 8323 8283 8243 8205 8170 8140 8116
1552.4159 8098 8082 8062 8032 7993 7951 7910 7875 7847 7822 7796 7763 7727
1558.6833 7719 7754 7788 7789 7768 7742 7721 7708 7700 7696 7690 7681 7666
1564.9509 7648 7628 7609 7591 7576 7564 7552 7536 7513 7486 7462 7445 7431
1571.2184 7418 7404 7389 7375 7363 7355 7350 7348 7342 7329 7308 7287 7270
1577.4860 7256 7246 7242 7243 7248 7253 7252 7243 7223 7194 7161 7128 7097
1583.7534 7069 7041 7011 6978 6942 6902 6859 6814 6765 6716 6667 6622 6581
1590.0210 6546 6514 6484 6455 6426 6397 6368 6340 6312 6287 6267 6253 6246
1596.2885 6243 6240 6233 6219 6200 6176 6150 6124 6100 6079 6060 6041 6021
1602.5560 5997 5968 5937 5904 5871 5839 5809 5779 5752 5728 5709 5694 5684
1608.8235 5676 5670 5667 5667 5672 5684 5702 5728 5759 5792 5822 5848 5871
1615.0911 5895 5930 5989 6075 6170 6244 6294 6332 6373 6419 6469 6516 6557
1621.3585 6591 6625 6666 6722 6791 6863 6921 6961 6988 7010 7032 7058 7090
1627.6261 7127 7164 7195 7215 7225 7226 7219 7204 7181 7154 7124 7096 7070
1633.8936 7045 7015 6979 6943 6916 6897 6879 6859 6841 6830 6831 6848 6883
1640.1611 6939 7015 7110 7220 7340 7460 7575 7681 7782 7880 7981 8086 8195
1646.4287 8298 8387 8456 8511 8556 8593 8623 8648 8674 8704 8737 8766 8776
1652.6962 8762 8767 8814 8860 8890 8911 8931 8951 8968 8981 8990 8996 9004
1658.9637 9017 9037 9062 9090 9117 9140 9157 9170 9180 9192 9205 9219 9237
1665.2312 9258 9282 9308 9336 9362 9386 9402 9408 9407 9401 9394 9384 9371
1671.4988 9353 9333 9313 9298 9287 9276 9256 9219 9171 9121 9079 9043 9011
1677.7662 8983 8957 8935 8921 8919 8930 8950 8973 8995 9016 9037 9062 9105
1684.0338 9191 9301 9373 9393 9388 9381 9382 9393 9410 9431 9451 9472 9493
1690.3013 9516 9540 9562 9579 9590 9596 9601 9608 9619 9633 9646 9659 9670
1696.5688 9674 9670 9664 9663 9667 9667 9652 9628 9634 9666 9687 9694 9697
1702.8363 9702 9709 9717 9722 9726 9729 9735 9745 9758 9770 9779 9783 9783
1709.1039 9782 9781 9784 9792 9803 9813 9819 9822 9822 9822 9825 9836 9855
1715.3713 9880 9906 9929 9946 9950 9944 9935 9929 9927 9931 9942 9957 9973
1721.6389 9984 9987 9978 9962 9944 9932 9930 9939 9954 9970 9981 9986 9985
1727.9064 9980 9973 9965 9958 9955 9960 9973 9990 10008 10024 10029 10018 9996
1734.1740 9987 10000 10021 10036 10046 10052 10055 10055 10052 10047 10043
1739.4772 10044 10050 10056 10057 10054 10050 10049 10053 10063 10076 10087
1744.7805 10092 10090 10084 10076 10070 10068 10072 10081 10093 10105 10117
1750.0837 10127 10135 10138 10137 10131 10124 10118 10117 10119 10123 10128
1755.3871 10132 10135 10136 10136 10138 10139 10142 10146 10154 10165 10176
1760.6903 10182 10183 10177 10170 10166 10165 10167 10168 10168 10166 10162
1765.9937 10159 10157 10156 10155 10153 10153 10154 10156 10161 10166 10171
1771.2969 10172 10172 10174 10178 10179 10174 10164 10154 10144 10136 10132
1776.6002 10131 10133 10135 10137 10139 10138 10132 10120 10104 10089 10079
1781.9034 10078 10087 10102 10122 10143 10160 10170 10171 10165 10156 10146
1787.2068 10138 10130 10120 10107 10092 10077 10068 10070 10085 10112 10143
1792.5100 10167 10175 10166 10149 10131 10117 10113 10116 10126 10135 10139
1797.8134 10135 10124 10110 10100 10098 10104 10114 10119 10116 10106 10092
1803.1166 10080 10070 10064 10060 10058 10057 10060 10065 10072 10080 10086
1808.4199 10092 10098 10105 10112 10118 10120 10114 10103 10087 10071 10056
1813.7231 10045 10038 10035 10037 10043 10052 10063 10072 10077 10075 10066
1819.0265 10052 10037 10027 10023 10023 10026 10027 10024 10019 10014 10010
1824.3297 10008 10007 10006 10003 9996 9988 9979 9970 9964 9964 9973 9992
1830.1151 10018 10038 10049 10049 10042 10031 10020 10011 10007 10006 10006
1835.4185 10005 10002 9998 9996 9999 10007 10018 10027 10032 10033 10029 10025
1841.2039 10022 10021 10022 10026 10033 10043 10054 10060 10058 10047 10031
1846.5071 10013 9998 9987 9983 9985 9994 10005 10018 10029 10038 10043 10041
1852.2925 10032 10016 9994 9970 9951 9942 9946 9961 9983 10006 10025 10036
1858.0779 10038 10032 10020 10007 9999 9998 10005 10015 10024 10026 10020
1863.3812 10008 9996 9991 9993 10000 10005 10005 9999 9991 9987 9991 10000
1869.1666 10006 10003 9987 9965 9945 9931 9927 9930 9936 9940 9942 9943 9947
1875.4341 9954 9965 9976 9984 9987 9986 9981 9977 9973 9970 9969 9968 9966
1881.7017 9962 9958 9952 9947 9944 9943 9947 9954 9962 9971 9976 9976 9971
1887.9691 9963 9952 9943 9939 9939 9942 9944 9943 9938 9933 9930 9932 9940
1894.2367 9949 9955 9954 9947 9938 9932 9932 9937 9944 9948 9948 9944 9938
1900.5042 9934 9935 9943 9956 9970 9981 9985 9982 9974 9967 9965 9969 9977
1906.7717 9981 9979 9971 9962 9956 9959 9968 9976 9977 9965 9940 9909 9880
1913.0392 9861 9856 9867 9889 9913 9931 9937 9930 9915 9901 9898 9909 9927
1919.3068 9943 9951 9949 9943 9937 9936 9940 9950 9960 9969 9974 9976 9973
1925.5742 9966 9953 9939 9927 9924 9930 9944 9961 9975 9981 9980 9975 9969
1931.8418 9967 9967 9970 9975 9983 9995 10007 10017 10018 10011 9995 9976 9960
1938.1093 9951 9947 9945 9941 9933 9922 9912 9909 9915 9929 9945 9958 9963
1944.3768 9963 9961 9963 9970 9982 9997 10011 10019 10022 10020 10016 10013
1950.1622 10013 10013 10009 9998 9983 9967 9958 9959 9968 9980 9987 9985 9976
1956.4297 9965 9959 9958 9961 9963 9966 9969 9977 9991 10006 10018 10020 10012
1962.6973 9998 9984 9977 9980 9991 10004 10012 10011 9998 9979 9960 9947 9943
1968.9647 9948 9960 9974 9986 9994 9996 9991 9979 9963 9946 9930 9919 9913
1975.2323 9915 9923 9936 9950 9961 9965 9961 9953 9946 9944 9949 9959 9968
1981.4998 9972 9974 9974 9974 9974 9970 9960 9943 9924 9909 9903 9906 9916
1987.7673 9929 9941 9949 9950 9946 9939 9935 9937 9946 9958 9966 9967 9961
1994.0348 9952 9944 9938 9935 9934 9935 9941 9952 9963 9968 9960 9939 9911
2000.3024 9888 9878 9886 9905 9927 9943 9950 9950 9949 9950 9956 9967 9979
2006.5698 9988 9989 9980 9961 9937 9916 9904 9902 9911 9926 9944 9963 9981
2012.8374 9994 9994 9979 9950 9920 9900 9900 9919 9948 9969 9972 9957 9935
2019.1049 9916 9910 9915 9927 9938 9945 9948 9951 9955 9962 9971 9984 10002
2025.3724 10022 10038 10046 10041 10024 10004 9988 9979 9979 9980 9980 9978
2031.1578 9976 9976 9980 9984 9983 9976 9968 9962 9962 9968 9973 9975 9972
2037.4253 9968 9966 9971 9982 9995 10006 10014 10016 10013 10006 9995 9985
2043.2107 9976 9971 9968 9964 9959 9953 9949 9949 9952 9956 9958 9957 9955
2049.4783 9957 9965 9978 9992 10000 9999 9986 9966 9944 9926 9917 9915 9921
2055.7458 9930 9942 9955 9966 9972 9972 9963 9948 9932 9920 9915 9917 9924
2062.0132 9931 9938 9943 9950 9958 9966 9971 9971 9965 9955 9946 9942 9945
2068.2808 9952 9959 9962 9960 9955 9950 9947 9947 9949 9952 9954 9953 9948
2074.5483 9938 9925 9913 9907 9912 9925 9942 9956 9962 9957 9948 9938 9933
2080.8159 9934 9941 9949 9955 9956 9950 9940 9928 9919 9918 9925 9938 9953
2087.0833 9964 9971 9973 9970 9966 9959 9950 9940 9929 9919 9912 9908 9908
2093.3508 9909 9912 9914 9916 9916 9915 9913 9915 9920 9931 9945 9959 9967
2099.6184 9966 9957 9943 9928 9916 9908 9905 9905 9908 9913 9918 9925 9932
2105.8860 9938 9941 9940 9936 9929 9921 9916 9916 9919 9927 9937 9946 9952
2112.1533 9951 9939 9916 9886 9856 9836 9831 9841 9862 9886 9908 9924 9933
2118.4209 9935 9933 9928 9923 9919 9919 9925 9935 9945 9950 9950 9945 9939
2124.6885 9936 9939 9948 9958 9966 9968 9962 9953 9943 9935 9932 9932 9933
2130.9561 9934 9934 9935 9939 9944 9950 9952 9948 9937 9923 9909 9902 9902
2137.2234 9908 9921 9938 9959 9983 10003 10015 10014 9999 9974 9949 9932 9929
2143.4910 9944 9973 10008 10039 10059 10064 10055 10042 10033 10035 10047
2148.7942 10062 10071 10068 10057 10043 10034 10032 10036 10039 10037 10031
2154.0977 10023 10018 10018 10023 10030 10038 10047 10057 10067 10075 10077
2159.4009 10068 10048 10023 9999 9986 9989 10007 10033 10057 10073 10079 10077
2165.1863 10071 10062 10052 10039 10023 10008 9997 9993 9996 10003 10012 10021
2170.9717 10026 10028 10027 10021 10012 10002 9994 9990 9991 9997 10005 10013
2176.7571 10018 10020 10018 10012 10003 9994 9986 9985 9991 10004 10019 10033
2182.5425 10042 10047 10047 10047 10046 10042 10036 10027 10017 10010 10005
2187.8457 10003 10001 10000 9999 10000 10000 10001 9999 9996 9991 9988 9988
2193.6311 9992 9997 10000 9999 9995 9989 9985 9983 9983 9986 9988 9988 9986
2199.8987 9983 9977 9970 9962 9954 9951 9955 9966 9985 10007 10025 10033 10029
2206.1663 10014 9993 9974 9963 9963 9970 9980 9986 9987 9982 9976 9970 9965
2212.4336 9959 9952 9945 9938 9934 9934 9939 9947 9957 9968 9981 9996 10012
2218.7012 10026 10031 10022 9999 9968 9941 9927 9929 9944 9962 9975 9979 9978
2224.9688 9977 9979 9982 9984 9981 9975 9968 9963 9962 9960 9955 9944 9930
2231.2363 9916 9907 9907 9914 9927 9939 9945 9942 9931 9919 9911 9911 9917
2237.5037 9925 9928 9921 9906 9889 9875 9869 9875 9890 9912 9937 9958 9972
2243.7712 9976 9970 9955 9937 9918 9904 9894 9890 9891 9897 9907 9917 9926
2250.0388 9928 9925 9918 9912 9907 9905 9904 9903 9903 9906 9916 9930 9945
2256.3064 9952 9948 9933 9911 9891 9878 9873 9876 9880 9881 9878 9871 9863
2262.5737 9860 9863 9874 9890 9908 9923 9932 9935 9931 9924 9917 9912 9911
2268.8413 9914 9918 9923 9925 9921 9908 9889 9865 9842 9823 9814 9815 9824
2275.1089 9839 9854 9867 9874 9875 9870 9862 9855 9850 9850 9854 9861 9868
2281.3765 9873 9875 9874 9870 9866 9864 9866 9870 9875 9876 9874 9870 9865
2287.6438 9863 9865 9870 9876 9880 9880 9873 9860 9844 9829 9818 9815 9820
2293.9114 9828 9839 9848 9856 9862 9867 9869 9869 9866 9861 9858 9860 9867
2300.1790 9877 9887 9891 9887 9874 9855 9837 9822 9814 9813 9817 9824 9834
2306.4465 9845 9857 9867 9871 9868 9861 9855 9856 9868 9888 9911 9929 9940
2312.7139 9944 9943 9938 9929 9917 9900 9884 9873 9872 9883 9902 9923 9939
2318.9814 9948 9948 9940 9927 9909 9886 9861 9836 9814 9799 9789 9784 9783
2325.2490 9788 9799 9816 9838 9858 9873 9883 9888 9892 9892 9883 9860 9822
2331.5166 9776 9735 9710 9704 9714 9728 9736 9736 9727 9715 9706 9704 9709
2337.7839 9722 9736 9747 9747 9735 9720 9715 9734 9782 9849 9914 9951 9943
2344.0515 9889 9809 9729 9674 9659 9680 9723 9770 9812 9845 9871 9890 9902
2350.3191 9900 9881 9844 9797 9755 9732 9732 9751 9770 9771 9741 9685 9621
2356.5867 9576 9569 9606 9678 9762 9829 9848 9804 9699 9563 9433 9346 9319
2362.8540 9346 9404 9459 9490 9489 9468 9447 9447 9479 9543 9629 9716 9784
2369.1216 9817 9814 9784 9746 9719 9713 9731 9764 9802 9833 9853 9859 9854
2375.3892 9842 9828 9815 9805 9799 9798 9797 9793 9784 9769 9752 9736 9725
2381.6567 9721 9722 9725 9727 9728 9728 9728 9729 9731 9735 9742 9749 9755
2387.9241 9756 9753 9749 9745 9747 9753 9762 9769 9771 9767 9761 9754 9750
2394.1917 9750 9753 9759 9767 9776 9784 9789 9788 9783 9778 9776 9780 9789
2400.4592 9798 9802 9799 9789 9778 9769 9764 9765 9770 9779 9790 9805 9820
2406.7268 9832 9838 9835 9822 9803 9784 9770 9764 9765 9772 9782 9790 9797
2412.9941 9801 9802 9803 9803 9804 9806 9809 9812 9813 9813 9809 9803 9796
2419.2617 9791 9791 9797 9806 9814 9817 9813 9805 9796 9791 9793 9801 9811
2425.5293 9821 9826 9825 9821 9814 9806 9798 9792 9788 9787 9790 9794 9798
2431.7969 9800 9800 9797 9792 9785 9776 9767 9760 9755 9756 9760 9768 9775
2438.0642 9780 9780 9777 9774 9773 9773 9773 9772 9768 9763 9757 9753 9753
2444.3318 9757 9764 9774 9783 9789 9790 9787 9780 9773 9769 9769 9770 9772
2450.5994 9772 9770 9765 9759 9754 9749 9743 9737 9733 9731 9733 9739 9749
2456.8669 9759 9769 9777 9782 9783 9779 9772 9764 9756 9751 9750 9754 9760
2463.1343 9767 9772 9774 9772 9768 9763 9757 9752 9748 9744 9742 9741 9743
2469.4019 9747 9755 9763 9770 9774 9772 9765 9755 9746 9739 9736 9736 9738
2475.6694 9742 9751 9763 9778 9790 9795 9790 9776 9761 9751 9753 9767 9788
2481.9370 9810 9824 9827 9819 9805 9791 9781 9778 9780 9783 9783 9782 9781
2488.2043 9782 9788 9796 9803 9806 9804 9798 9792 9787 9784 9784 9786 9789
2494.4719 9791 9791 9788 9783 9775 9768 9762 9762 9768 9779 9793 9804 9810
2500.7395 9807 9798 9786 9774 9763 9752 9743 9736 9734 9738 9748 9759 9766
2507.0071 9766 9760 9751 9745 9746 9754 9767 9783 9798 9810 9816 9816 9811
2513.2744 9804 9796 9791 9790 9793 9796 9797 9796 9793 9789 9786 9785 9785
2519.5420 9784 9782 9780 9779 9780 9783 9787 9791 9794 9797 9800 9804 9807
2525.8096 9810 9812 9813 9815 9815 9814 9809 9800 9786 9770 9754 9743 9740
2532.0771 9744 9756 9771 9786 9801 9814 9822 9824 9818 9804 9785 9764 9748
2538.3445 9738 9735 9739 9745 9753 9760 9767 9773 9779 9785 9790 9794 9793
2544.6121 9788 9781 9775 9775 9781 9791 9800 9802 9796 9785 9772 9763 9760
2550.8796 9763 9770 9780 9791 9800 9807 9808 9805 9798 9789 9780 9771 9761
2557.1472 9751 9743 9738 9739 9742 9747 9750 9751 9750 9749 9748 9747 9743
2563.4146 9738 9733 9730 9732 9740 9753 9770 9785 9792 9790 9776 9757 9737
2569.6821 9725 9724 9732 9745 9757 9765 9766 9764 9760 9755 9750 9743 9734
2575.9497 9722 9710 9698 9691 9690 9697 9711 9728 9742 9747 9741 9728 9712
2582.2173 9700 9695 9697 9704 9714 9726 9739 9752 9761 9760 9749 9727 9704
2588.4846 9686 9682 9693 9715 9741 9762 9775 9776 9769 9756 9743 9731 9723
2594.7522 9719 9717 9716 9714 9710 9707 9705 9706 9708 9710 9708 9703 9698
2601.0198 9694 9693 9695 9697 9699 9701 9702 9703 9703 9702 9698 9692 9688
2607.2874 9688 9694 9705 9719 9731 9739 9740 9735 9727 9720 9715 9713 9710
2613.5547 9706 9698 9688 9679 9676 9681 9693 9710 9725 9733 9733 9724 9710
2619.8223 9695 9684 9677 9675 9674 9673 9668 9662 9655 9648 9645 9647 9654
2626.0898 9667 9684 9703 9720 9730 9732 9725 9715 9704 9696 9689 9682 9673
2632.3574 9661 9647 9637 9631 9629 9631 9634 9636 9637 9638 9641 9643 9647
2638.6250 9649 9651 9652 9652 9651 9649 9647 9644 9641 9636 9630 9621 9612
2644.8923 9604 9601 9602 9610 9621 9634 9646 9653 9653 9647 9635 9619 9602
2651.1599 9587 9575 9567 9563 9564 9568 9575 9583 9589 9594 9596 9597 9597
2657.4275 9598 9600 9602 9603 9601 9596 9592 9588 9589 9592 9596 9599 9597
2663.6951 9593 9587 9584 9586 9591 9597 9601 9599 9593 9585 9578 9574 9574
2669.9624 9576 9580 9585 9588 9591 9592 9590 9586 9580 9572 9565 9560 9558
2676.2300 9559 9563 9570 9577 9583 9587 9590 9591 9593 9596 9598 9598 9595
2682.4976 9587 9576 9565 9556 9551 9550 9555 9563 9573 9581 9585 9585 9582
2688.7651 9578 9576 9576 9579 9583 9587 9591 9594 9596 9598 9600 9602 9603
2695.0325 9603 9601 9595 9585 9575 9565 9559 9560 9567 9577 9589 9597 9602
2701.3000 9603 9602 9600 9600 9600 9598 9596 9593 9591 9591 9593 9593 9591
2707.5676 9587 9582 9580 9582 9586 9591 9592 9588 9583 9577 9575 9576 9580
2713.8352 9584 9588 9589 9587 9582 9578 9575 9576 9582 9589 9595 9596 9592
2720.1025 9584 9577 9574 9574 9574 9573 9567 9558 9550 9546 9549 9558 9569
2726.3701 9578 9582 9579 9571 9560 9552 9549 9551 9558 9567 9574 9576 9572
2732.6377 9565 9560 9560 9567 9581 9596 9607 9611 9606 9595 9582 9571 9565
2738.9053 9564 9567 9572 9576 9579 9582 9583 9585 9585 9584 9581 9576 9572
2745.1726 9569 9568 9570 9573 9576 9579 9580 9578 9577 9576 9579 9583 9588
2751.4402 9591 9590 9584 9576 9569 9564 9564 9567 9573 9580 9585 9588 9587
2757.7078 9583 9580 9579 9580 9585 9591 9595 9596 9594 9591 9588 9587 9588
2763.9753 9590 9591 9590 9585 9577 9570 9564 9561 9561 9561 9562 9564 9566
2770.2427 9569 9570 9569 9565 9561 9560 9561 9565 9569 9569 9563 9553 9542
2776.5103 9535 9535 9542 9554 9567 9578 9583 9584 9582 9576 9568 9560 9551
2782.7778 9545 9541 9540 9542 9545 9547 9547 9545 9542 9539 9538 9537 9538
2789.0454 9541 9544 9548 9550 9550 9547 9541 9534 9528 9526 9529 9536 9546
2795.3127 9557 9564 9567 9565 9557 9545 9534 9524 9518 9516 9515 9511 9503
2801.5803 9493 9486 9485 9492 9505 9520 9530 9532 9528 9523 9522 9526 9532
2807.8479 9537 9535 9526 9515 9509 9509 9515 9519 9516 9502 9481 9461 9449
2814.1155 9449 9457 9470 9484 9495 9504 9511 9518 9523 9526 9526 9524 9519
2820.3828 9510 9497 9481 9464 9448 9435 9427 9423 9422 9423 9423 9422 9418
2826.6504 9412 9405 9400 9397 9398 9398 9394 9381 9360 9332 9304 9281 9265
2832.9180 9257 9255 9257 9260 9264 9267 9270 9271 9270 9264 9255 9245 9237
2839.1855 9230 9227 9225 9224 9223 9221 9218 9214 9211 9210 9212 9220 9230
2845.4529 9241 9246 9244 9234 9218 9201 9188 9180 9180 9185 9193 9202 9211
2851.7205 9221 9233 9247 9261 9272 9274 9269 9259 9248 9243 9246 9255 9268
2857.9880 9279 9286 9288 9290 9294 9305 9321 9338 9350 9352 9345 9332 9320
2864.2556 9314 9316 9323 9331 9336 9335 9329 9320 9312 9308 9310 9316 9324
2870.5229 9331 9333 9332 9330 9329 9330 9334 9340 9348 9359 9373 9387 9397
2876.7905 9399 9393 9381 9369 9358 9351 9345 9340 9337 9336 9338 9341 9343
2883.0581 9341 9336 9330 9324 9320 9317 9316 9315 9313 9309 9302 9291 9276
2889.3257 9258 9243 9234 9234 9243 9257 9271 9280 9281 9274 9262 9249 9238
2895.5930 9229 9223 9220 9220 9223 9227 9227 9222 9212 9200 9189 9182 9179
2901.8606 9177 9173 9166 9156 9146 9140 9137 9136 9137 9138 9138 9136 9134
2908.1282 9132 9130 9131 9133 9137 9141 9140 9135 9128 9120 9113 9104 9090
2914.3958 9070 9044 9018 8999 8989 8988 8994 9002 9010 9017 9022 9023 9016
2920.6631 9004 8989 8976 8969 8969 8975 8985 8997 9010 9025 9037 9046 9049
2926.9307 9046 9038 9030 9023 9018 9015 9012 9011 9012 9017 9025 9033 9039
2933.1982 9043 9046 9051 9058 9069 9080 9089 9095 9095 9093 9090 9088 9088
2939.4658 9090 9094 9097 9103 9110 9122 9138 9156 9170 9175 9169 9154 9135
2945.7332 9119 9109 9105 9107 9112 9124 9143 9169 9201 9231 9252 9259 9251
2952.0007 9234 9215 9204 9204 9217 9237 9257 9269 9269 9259 9242 9225 9212
2958.2683 9204 9203 9210 9225 9247 9272 9295 9309 9311 9304 9290 9276 9267
2964.5359 9263 9263 9264 9266 9268 9272 9276 9282 9288 9293 9298 9301 9303
2970.8032 9303 9300 9296 9293 9294 9301 9311 9323 9334 9342 9347 9350 9353
2977.0708 9356 9359 9362 9367 9372 9380 9388 9398 9407 9414 9416 9412 9404
2983.3384 9395 9390 9391 9397 9403 9402 9394 9381 9370 9366 9373 9385 9398
2989.6060 9404 9403 9395 9385 9375 9367 9360 9355 9353 9357 9368 9387 9411
2995.8733 9435 9454 9467 9473 9471 9467 9462 9461 9465 9473 9484 9495 9503
3002.1409 9509 9514 9518 9521 9521 9517 9508 9495 9481 9472 9471 9480 9498
3008.4084 9521 9542 9556 9562 9559 9551 9544 9541 9542 9547 9553 9557 9556
3014.6760 9548 9536 9524 9514 9511 9512 9518 9524 9529 9534 9540 9549 9561
3020.9434 9575 9589 9598 9601 9593 9575 9553 9531 9518 9519 9530 9547 9560
3027.2109 9565 9560 9552 9548 9553 9568 9587 9604 9612 9606 9589 9565 9542
3033.4785 9528 9526 9537 9555 9572 9581 9580 9574 9570 9576 9593 9614 9632
3039.7461 9638 9630 9614 9598 9588 9585 9587 9586 9578 9562 9545 9531 9525
3046.0134 9529 9540 9550 9555 9553 9546 9538 9536 9541 9551 9562 9567 9566
3052.2810 9561 9556 9556 9562 9570 9576 9575 9567 9557 9550 9550 9555 9563
3058.5486 9567 9567 9563 9560 9561 9565 9570 9574 9574 9570 9560 9548 9534
3064.8162 9521 9512 9510 9515 9528 9547 9568 9588 9602 9607 9602 9590 9575
3071.0835 9562 9556 9557 9565 9574 9583 9587 9587 9583 9576 9565 9552 9537
3077.3511 9524 9519 9524 9543 9572 9605 9632 9647 9645 9629 9606 9580 9560
3083.6187 9547 9543 9547 9555 9564 9572 9575 9577 9578 9580 9582 9583 9580
3089.8862 9573 9563 9558 9559 9568 9583 9598 9609 9612 9609 9600 9587 9572
3096.1536 9559 9551 9551 9560 9576 9591 9601 9603 9598 9591 9588 9591 9598
3102.4211 9607 9613 9613 9607 9596 9584 9572 9565 9563 9566 9572 9578 9579
3108.6887 9575 9568 9560 9556 9556 9560 9564 9564 9555 9538 9518 9500 9491
3114.9563 9496 9513 9536 9556 9566 9565 9555 9540 9526 9520 9521 9529 9541
3121.2236 9552 9557 9555 9544 9527 9508 9494 9490 9497 9513 9531 9545 9548
3127.4912 9538 9519 9497 9479 9470 9470 9478 9489 9501 9511 9520 9529 9535
3133.7588 9537 9533 9523 9508 9492 9477 9467 9460 9457 9457 9459 9460 9459
3140.0264 9455 9448 9445 9451 9469 9497 9525 9544 9548 9536 9516 9498 9488
3146.2937 9485 9485 9483 9476 9468 9465 9470 9482 9494 9501 9498 9490 9480
3152.5613 9472 9467 9462 9457 9452 9449 9450 9453 9456 9455 9448 9440 9432
3158.8289 9428 9430 9436 9444 9454 9460 9460 9452 9437 9421 9410 9408 9415
3165.0964 9427 9435 9436 9427 9414 9400 9390 9386 9387 9392 9398 9406 9412
3171.3638 9415 9413 9405 9394 9382 9372 9366 9365 9367 9370 9375 9381 9388
3177.6313 9396 9400 9399 9391 9378 9364 9353 9346 9343 9342 9342 9344 9349
3183.8989 9361 9377 9393 9405 9409 9404 9393 9379 9365 9350 9337 9326 9317
3190.1665 9314 9315 9322 9333 9343 9351 9352 9345 9333 9317 9302 9294 9294
3196.4338 9301 9312 9324 9332 9335 9335 9333 9331 9331 9331 9331 9327 9320
3202.7014 9313 9307 9305 9308 9313 9320 9325 9327 9326 9323 9319 9316 9317
3208.9690 9321 9326 9330 9328 9318 9303 9286 9273 9265 9266 9272 9282 9295
3215.2366 9308 9322 9334 9344 9348 9346 9337 9325 9315 9309 9309 9314 9324
3221.5039 9337 9350 9360 9363 9357 9341 9317 9291 9268 9255 9253 9261 9273
3227.7715 9284 9289 9286 9276 9264 9255 9254 9261 9272 9281 9281 9271 9253
3234.0391 9233 9216 9205 9196 9190 9186 9186 9192 9205 9218 9228 9230 9226
3240.3066 9219 9214 9215 9220 9227 9235 9241 9246 9247 9244 9236 9221 9199
3246.5740 9171 9138 9105 9077 9059 9055 9062 9073 9084 9090 9090 9086 9080
3252.8416 9073 9061 9045 9025 9001 8977 8954 8936 8924 8920 8923 8931 8938
3259.1091 8939 8932 8918 8905 8895 8892 8892 8890 8885 8876 8870 8869 8871
3265.3767 8871 8860 8831 8787 8738 8698 8677 8678 8691 8705 8708 8695 8671
3271.6440 8643 8619 8601 8588 8575 8561 8546 8532 8519 8509 8500 8490 8476
3277.9116 8458 8435 8409 8383 8364 8357 8363 8380 8399 8414 8420 8415 8405
3284.1792 8393 8383 8375 8368 8362 8354 8347 8342 8340 8343 8348 8353 8357
3290.4468 8356 8354 8350 8348 8348 8346 8342 8335 8328 8323 8326 8338 8358
3296.7141 8381 8404 8422 8438 8453 8470 8490 8511 8530 8543 8552 8561 8572
3302.9817 8587 8604 8620 8634 8647 8660 8675 8690 8704 8717 8733 8754 8780
3309.2493 8809 8837 8862 8883 8904 8926 8951 8975 8995 9009 9015 9015 9008
3315.5168 8996 8980 8963 8950 8944 8950 8966 8987 9009 9024 9029 9026 9019
3321.7842 9016 9021 9035 9051 9066 9076 9080 9083 9088 9096 9106 9116 9122
3328.0518 9127 9132 9137 9143 9149 9155 9158 9159 9158 9153 9146 9137 9128
3334.3193 9121 9118 9119 9122 9127 9135 9147 9164 9186 9210 9229 9239 9237
3340.5869 9224 9208 9193 9182 9177 9173 9167 9158 9150 9147 9151 9162 9175
3346.8542 9183 9182 9167 9140 9105 9067 9035 9011 9000 9000 9007 9017 9021
3353.1218 9017 9006 8991 8979 8974 8973 8974 8970 8963 8952 8942 8931 8914
3359.3894 8889 8854 8817 8787 8772 8774 8787 8803 8815 8824 8833 8849 8874
3365.6570 8907 8942 8970 8989 8999 9008 9022 9047 9082 9121 9156 9181 9199
3371.9243 9214 9234 9258 9286 9313 9337 9357 9375 9392 9408 9425 9443 9460
3378.1919 9477 9491 9503 9515 9530 9553 9580 9610 9638 9661 9682 9702 9724
3384.4595 9745 9761 9769 9766 9756 9742 9729 9720 9719 9724 9734 9747 9760
3390.7271 9774 9792 9814 9836 9851 9854 9843 9825 9809 9802 9807 9824 9845
3396.9944 9863 9875 9876 9871 9864 9860 9866 9882 9904 9925 9938 9938 9928
3403.2620 9914 9905 9901 9901 9899 9891 9878 9867 9866 9879 9905 9936 9963
3409.5295 9980 9985 9979 9965 9947 9929 9917 9915 9923 9940 9958 9970 9971
3415.7971 9962 9946 9926 9909 9894 9883 9873 9866 9861 9858 9859 9866 9880
3422.0645 9899 9921 9940 9952 9955 9953 9948 9946 9947 9949 9945 9932 9911
3428.3320 9887 9869 9860 9861 9865 9866 9858 9844 9831 9824 9827 9834 9842
3434.5996 9847 9851 9859 9873 9891 9903 9900 9876 9836 9793 9761 9749 9756
3440.8672 9775 9796 9811 9816 9815 9812 9809 9804 9794 9773 9743 9710 9681
3447.1345 9662 9656 9657 9660 9660 9659 9657 9657 9659 9661 9661 9659 9657
3453.4021 9657 9660 9664 9665 9659 9644 9623 9601 9582 9566 9549 9529 9507
3459.6697 9493 9495 9520 9563 9613 9653 9671 9666 9643 9613 9586 9568 9560
3465.9373 9562 9573 9590 9609 9629 9648 9666 9683 9701 9717 9728 9733 9733
3472.2046 9732 9735 9743 9756 9767 9773 9770 9762 9756 9759 9777 9806 9839
3478.4722 9866 9877 9871 9852 9831 9820 9825 9843 9867 9885 9894 9896 9895
3484.7397 9898 9905 9913 9913 9901 9878 9850 9829 9824 9837 9864 9898 9930
3491.0073 9959 9983 10006 10028 10048 10063 10070 10066 10049 10020 9984 9949
3496.7927 9925 9920 9938 9972 10012 10045 10062 10062 10050 10037 10027 10023
3502.5781 10019 10009 9992 9974 9963 9964 9976 9992 10005 10010 10008 10002
3508.3635 9999 10003 10020 10045 10073 10093 10094 10072 10031 9985 9951 9942
3514.1489 9957 9987 10020 10043 10054 10056 10056 10062 10076 10097 10120
3519.4521 10138 10144 10134 10112 10084 10060 10044 10037 10031 10022 10007
3524.7554 9991 9983 9987 10006 10035 10066 10090 10104 10107 10102 10089 10070
3530.5408 10047 10023 10003 9996 10002 10020 10044 10067 10084 10096 10103
3535.8440 10107 10106 10092 10062 10015 9959 9908 9875 9874 9904 9955 10008
3541.6294 10044 10054 10040 10017 9998 9994 10001 10010 10011 10001 9986 9976
3547.4148 9977 9988 10000 10005 9999 9984 9967 9955 9952 9955 9960 9961 9958
3553.6824 9956 9960 9970 9984 9992 9991 9980 9965 9956 9958 9972 9990 10003
3559.9500 10006 10000 9989 9981 9976 9973 9970 9963 9952 9940 9927 9916 9911
3566.2175 9914 9930 9955 9981 9999 10004 9997 9986 9980 9982 9993 10009 10024
3572.4849 10036 10046 10056 10071 10089 10106 10116 10113 10093 10058 10015
3577.7883 9973 9944 9933 9939 9955 9974 9992 10011 10032 10056 10077 10087
3583.5737 10079 10058 10031 10008 9993 9985 9979 9969 9957 9952 9960 9980
3589.3591 10003 10020 10023 10011 9987 9962 9949 9960 9997 10050 10100 10129
3595.1445 10125 10093 10047 10008 9987 9987 10003 10024 10041 10053 10062
3600.4478 10072 10082 10084 10072 10046 10016 9998 10003 10032 10071 10099
3605.7510 10101 10072 10025 9984 9965 9975 10001 10027 10041 10042 10037 10035
3611.5364 10040 10053 10066 10073 10072 10067 10067 10075 10091 10110 10126
3616.8398 10135 10135 10127 10109 10081 10044 10006 9974 9957 9954 9963 9976
3622.6252 9992 10008 10026 10046 10065 10078 10080 10068 10045 10022 10013
3627.9285 10035 10092 10153 10179 10164 10130 10096 10072 10060 10062 10071
3633.2317 10077 10071 10055 10036 10023 10023 10036 10056 10081 10103 10120
3638.5349 10131 10136 10139 10144 10154 10169 10186 10195 10189 10168 10138
3643.8384 10112 10101 10109 10134 10166 10183 10164 10103 10021 9950 9913 9916
3649.6238 9946 9973 9978 9961 9939 9928 9935 9959 10000 10051 10107 10156
3655.4092 10180 10162 10108 10047 10009 10003 10025 10067 10118 10166 10200
3660.7124 10219 10222 10216 10203 10185 10159 10124 10084 10046 10020 10012
3666.0156 10022 10045 10072 10095 10108 10111 10106 10099 10094 10094 10104
3671.3188 10125 10153 10184 10210 10227 10234 10229 10205 10158 10106 10074
3676.6223 10063 10061 10062 10065 10069 10072 10068 10057 10044 10038 10046
3681.9255 10069 10102 10134 10152 10152 10135 10109 10084 10069 10065 10075
3687.2288 10094 10113 10117 10099 10068 10035 10005 9984 9978 9989 10016 10050
3693.0142 10082 10103 10110 10105 10097 10093 10098 10105 10105 10092 10069
3698.3174 10046 10033 10035 10049 10068 10082 10084 10077 10068 10068 10081
3703.6208 10104 10134 10162 10178 10171 10136 10079 10012 9946 9895 9867 9863
3709.4063 9874 9884 9884 9871 9856 9852 9868 9902 9940 9973 9998 10018 10037
3715.6736 10057 10076 10088 10088 10077 10061 10045 10034 10023 10004 9971
3720.9771 9926 9879 9847 9843 9867 9906 9947 9978 9995 9995 9977 9946 9914
3727.2444 9890 9880 9887 9908 9938 9973 10007 10035 10051 10050 10036 10021
3733.0298 10012 10009 10007 9996 9970 9936 9913 9916 9942 9978 10007 10020
3738.8152 10016 9998 9977 9961 9955 9959 9966 9972 9974 9972 9964 9931 9875
3745.0828 9843 9854 9887 9922 9948 9962 9963 9953 9937 9923 9916 9912 9903
3751.3503 9885 9859 9837 9831 9844 9868 9896 9928 9967 10012 10054 10083 10092
3757.6179 10081 10059 10036 10017 10005 9994 9979 9957 9934 9918 9918 9941
3763.4033 9983 10032 10072 10087 10073 10040 10008 9991 9991 10003 10021 10041
3769.1887 10059 10067 10065 10056 10042 10027 10013 10002 9998 10003 10014
3774.4919 10026 10033 10032 10024 10014 10002 9988 9971 9949 9924 9907 9908
3780.2773 9932 9974 10022 10065 10093 10101 10090 10066 10037 10010 9988 9970
3786.0627 9956 9950 9957 9980 10014 10048 10071 10074 10061 10041 10024 10014
3791.8481 10012 10012 10011 10009 10008 10011 10019 10037 10066 10102 10132
3797.1514 10142 10126 10088 10034 9974 9920 9880 9859 9855 9857 9866 9887 9918
3803.4189 9955 9989 10015 10032 10040 10041 10029 10000 9961 9928 9911 9911
3809.2043 9928 9958 9998 10039 10069 10084 10081 10065 10043 10017 9993 9974
3814.9897 9966 9968 9977 9985 9986 9978 9958 9924 9879 9828 9783 9761 9779
3821.2573 9837 9913 9985 10039 10069 10078 10069 10049 10026 10006 9996 9993
3827.0427 9990 9978 9955 9923 9889 9858 9838 9832 9838 9846 9851 9853 9853
3833.3101 9854 9856 9858 9861 9867 9880 9902 9932 9964 9986 9992 9990 9988
3839.5776 9990 9991 9986 9975 9963 9959 9967 9986 10004 10007 9989 9952 9909
3845.8452 9870 9842 9829 9833 9852 9881 9916 9950 9979 9999 10007 10006 10006
3852.1128 10019 10050 10076 10054 9979 9900 9850 9834 9844 9870 9903 9933 9952
3858.3801 9963 9969 9976 9988 10004 10020 10030 10028 10014 9989 9953 9907
3864.1655 9858 9818 9800 9808 9833 9863 9888 9905 9915 9917 9907 9885 9863
3870.4331 9861 9881 9912 9938 9954 9957 9951 9948 9956 9979 10012 10044 10064
3876.7007 10068 10053 10023 9982 9939 9899 9864 9838 9824 9824 9841 9871 9908
3882.9683 9949 9990 10031 10068 10095 10099 10076 10039 10008 9998 10011 10042
3888.7537 10082 10116 10124 10090 10014 9919 9847 9826 9853 9909 9973 10026
3894.5391 10056 10056 10033 9999 9967 9947 9944 9959 9985 10009 10021 10022
3900.3245 10019 10018 10023 10030 10035 10036 10036 10041 10051 10062 10060
3905.6277 10038 9999 9953 9916 9899 9906 9930 9959 9981 9992 9995 9998 10006
3911.8953 10021 10040 10059 10074 10081 10081 10074 10060 10041 10019 9994
3917.1985 9968 9943 9920 9900 9883 9868 9857 9852 9856 9867 9883 9896 9900
3923.4661 9893 9883 9883 9906 9948 9992 10023 10029 10015 9991 9966 9945 9927
3929.7334 9907 9883 9861 9847 9849 9863 9881 9896 9904 9905 9903 9902 9907
3936.0010 9918 9932 9942 9938 9915 9877 9836 9807 9794 9792 9793 9790 9786
3942.2686 9794 9825 9875 9928 9963 9968 9947 9914 9888 9881 9895 9920 9944
3948.5361 9956 9951 9932 9905 9879 9866 9871 9895 9931 9964 9979 9969 9941
3954.8035 9907 9883 9877 9887 9908 9934 9964 9997 10029 10051 10055 10039
3960.5889 10011 9984 9971 9970 9970 9959 9933 9902 9881 9879 9891 9904 9904
3966.8564 9889 9870 9865 9883 9919 9957 9978 9972 9948 9922 9912 9928 9968
3973.1240 10019 10065 10091 10089 10063 10022 9979 9947 9929 9921 9915 9904
3978.9094 9887 9872 9870 9887 9917 9950 9970 9969 9947 9911 9875 9848 9834
3985.1770 9836 9850 9873 9899 9923 9943 9961 9977 9996 10015 10030 10036 10031
3991.4443 10015 9993 9969 9945 9922 9901 9884 9875 9881 9903 9939 9981 10020
3997.7119 10046 10057 10058 10057 10060 10078
##END= 
