##TITLE=X8191
##JCAMP-DX=5.0
##DATA TYPE=LINK
##BLOCKS=1


$$ === CHEMSPECTRA SPECTRUM ORIG ===
##TITLE=X8191
##JCAMP-DX=5.00
##DATA TYPE=INFRARED SPECTRUM
##DATA CLASS=XYDATA
##ORIGIN=ComPlat
##OWNER=
##XUNITS=1/CM
##YUNITS=TRANSMITTANCE
##XFACTOR=1
##YFACTOR=8.6473201e-010
##FIRSTX=3997.453
##LASTX=373.96442
##MAXX=3997.453
##MAXY=0.9284989239591223
##MINX=373.96442
##MINY=0.3720424478515737
##NPOINTS=2559
##XYDATA= (X++(Y..Y))
2559I84889524I85837359I86415118I86286773I85847974I85429027I85007047I84761524
2551I85095965I85918488I86617423I86927532I87184911I87633566I88085944I88313270
2543I88291419I88102623I87894598I87830701I87894047I87889911I87750675I87634393
2535I87661068I87766047I87881640I88058096I88268466I88256955I87808300I87243569
2527I87391972I88682588I90274146I90685305I89548123I87856687I86503208I85506778
2519I84601955I84016614I84268203I85391668I86784298I87910590I88759857I89371390
2511I89556119I89441904I89455001I89582380I89328172I88589121I87869853I87474893
2503I87066147I86142299I84858920I83969260I83968778I84738226I85913663I87370190
2495I89259795I91577790I93715262I94743054I94341201I92837182I90632505I88344081
2487I86851779I86687385I87462348I88101659I88360692I89211270I90942890I92304434
2479I92188152I91434281I91058070I90756852I90359687I90604245I91668983I92668307
2471I92951328I93026942I93487660I94203965I95126710I96332200I97000323I95816132
2463I93113585I90873341I90581704I92459179I95866933I99208929I99770903I97405554
2455I95017941I93793565I93614006I94251043I95309508I96238112I96826279I97262114
2447I97510601I97322840I96946490I96757764I96435868I95493685I94339960I93987254
2439I94700318I95846047I97160030I99091406A001192759A001490185I99632288
2432I97606549I96338059I95320192I94245597I93438997I93321198I94167226I95765677
2424I97306503I98358903I99162058I99447766I98733736I97984622I98347737I99209618
2416I99090923I97603240I95637539I94130556I93591466I94114564I95178062I95804897
2408I95648567I95535800I96186761I97022587I96886453I95753270I94730992I94874914
2400I96495560I98758550I99993748I99461759I98160803I97278586I97255290I98076503
2392I99391520A000310957A000071569I99298674I99303981A000623617A002784524
2385A004390281A004293299A003432107A003081881A002856899A001382726I98882622
2378I97032168I96518651I97471105I99929921A002520872A002432851I99520899
2371I96776237I95973703I96686561I97860275I98687278I98746349I98108073I97303677
2363I96954899I97335936I98341326I99796062A001604744A003447822A004310393
2356A003261853A000942066I98729118I97504880I97511566I98271915I98636823
2349I97859241I96556355I95824817I96289119I98173761A001562560A005978048
2342A009332590A008729947A004675369A000582191I98134541I97196631I97442086
2335I98849260A001401750A004594172A006975512A007306162A006891419A007220622
2328A007407762A005978944A003732910A002137148A001120522A000081632I99007106
2321I98330987I98358903I99199693A000748377A002548513A004371670A006659889
2314A009614714A011282093A009021515A004774695A001972478A001193448A001164843
2307A000879617A000505749A000467769A000478729A000068605I99474786I99434463
2300A000200741A000895884A000348316I99116841I98513165I99088580A001037256
2293A004141449A007167960A008688040A008860154A008499244A007690162A006569937
2286A005898091A006062486A006347022A005733628A004252149A002885780A002390942
2279A002613650A002914799A003086637A003169972A002778458A001691525A000742794
2272A001100325A003002889A005259055A006044426A005265879A004296056A003603394
2265A002912800A002395354A002483927A002940509A003180931A003299282A003919431
2258A005380025A007652114A010347560A012111923A011482399A009181567A007138872
2251A006244250A006131897A006216058A006512795A007263840A008192375A008621386
2244A008343397A007977180A008190306A008822036A008946383A008094152A007140665
2237A007307196A008743665A010402911A011103086A010667665A009908211A009612301
2230A009936747A010550969A011003829A011151405A011279819A011625150A012035688
2223A012268115A012295273A012265220A012449190A013038666A013730018A013920054
2216A013546393A013279433A013671705A014574806A015550281A016292572A016552018
2209A016226814A015638234A015293592A015353973A015564756A015718191A015950618
2202A016432772A017066707A017679412A018297080A019071905A020012984A020832614
2195A021107707A020720329A020030217A019514839A019471897A019943643A020591502
2188A020913742A020807455A020488316A019915934A018950591A017921627A017303063
2181A016990403A016523827A015848190A015385749A015457090A015855841A016080617
2174A016052770A016262381A016793267A016537129A013975955A008452304I99790340
2167I86786160I66293315I33041675H81243730H09640640G26872036F50342009E97610290
2159E77067197E84951441F10185461F41653163F72170549F98602476G20316871G37776656
2151G51956481G64152269G75584054G86921614G98130346H08768627H18555296H27712442
2143H36736073H45839524H54676633H62676196H69609572H75666384H80983457H85454019
2135H89173812H92709359H96559634I00560173I04158376I07147321I09779837I12245614
2127I14441055I16348167I18366944I20996840I24180301I27210052I29471663I31120088
2119I32739148I34557826I36326323I37802495I39057751I40355260I41774084I43008386
2111I43852828I44834576I46654839I48939128I50460931I50833351I51004776I51777533
2103I52875150I53783903I54558728I55481680I56603421I57801467I58904943I59827619
2095I60733890I61770988I62669815I63116471I63413208I64216776I65721416I67510661
2087I69089605I70317565I71377065I72446352I73448089I74136960I74373798I74327547
2079I74415224I74935014I75791657I76724259I77579179I78119371I77954011I77042708
2071I75973145I75421925I75494713I75658832I75292753I74344848I73355656I72797129
2063I72688498I72862196I73156384I73318986I73143425I72702835I72159472I71469567
2055I70592245I69840856I69576722I69487460I68515500I65725276I60993682I54595880
2047I46315297I35224502I20121104H99804993H73138157H39598603H00354461G58860700
2039G20420538F91029031F75560037F75718778F89236822G11053989G35588936G58672525
2031G78236489G93894623H06170437H15955314H24351766H32646065H41872070H52021855
2023H61953205H70588149H78024427H84995024H91646827H97492167I02210389I05943899
2015I09056088I11946120I14857383I17677177I20167080I22434619I24842566I27401535
2007I29663905I31385600I32893961I34523154I36082316I37235283I38108330I39112136
1999I40304460I41281866I41776565I42148710I43073247I44788394I46842669I48527694
1991I49412942I49600221I49564240I49582851I49455747I49095596I49065129I49982912
1983I51657322I53301679I54394264I54954859I55181910I55224714I55256421I55446250
1975I55821635I56330396I56968191I57717098I58517358I59388682I60349063I61240721
1967I61876242I62197724I62120662I61619758I61075638I60968523I61119338I60667443
1959I58722282I54837750I49377168I43780522I39957750I39034453I40827903I44355523
1951I48419821I51929107I54279636I55610369I56510988I57444693I58518116I59631931
1943I60638631I61312338I61255127I59847126I56407182I50828457I44368068I39389228
1935I37709441I39244754I42449583I45799161I48656384I51027798I52961242I54328024
1927I55046190I55278341I55273240I55193765I55242636I55710040I56658978I57793609
1919I58826019I59749868I60671579I61617553I62545399I63312090I63627852I63244678
1911I62204686I60757740I59072301I57214610I55373531I53852349I52809116I52243145
1903I52213575I52814700I54036043I55831836I58067875I60248357I61730389I62323105
1895I62257278I61692823I60825289I60198592I60260972I60795719I61247132I61449092
1887I61720394I62306976I62976753I63327461I63400250I63673827I64451960I65625123
1879I66970537I68259637I69184657I69573000I69589267I69534331I69612565I69883247
1871I70263181I70673719I71181859I71731908I71925804I71545939I71067852I71158906
1863I71905815I72937743I73963536I74816250I75293028I75279863I74896276I74423703
1855I74122346I74017300I73887370I73618618I73401562I73422861I73635092I73956161
1847I74371868I74814802I75220653I75585836I75789106I75597899I74960655I74103737
1839I73407008I73282730I73875721I74743737I75140145I74687216I73514123I71736527
1831I69104907I65424679I61323849I58272386I57543261I59240211I62360671I65565017
1823I67945255I69414396I70410481I71207501I71764512I72151062I72585450I72995022
1815I72981099I72305186I71103212I69600847I67829524I65589418I62451932I57842066
1807I51474937I43881296I36337972I30217883I26388355I24939755I25339264I27018982
1799I29751927I33257352I36794623I39650743I41838394I43938368I46380159I49057892
1791I51514709I53452633I55094577I56929039I59109867I61334326I63243575I64662192
1783I65544545I66022771I66462259I67182217I68141080I69050591I69684182I69925707
1775I69702103I69025846I67899555I66086874I63210903I59209331I54576166I50184941
1767I46918973I45294122I45326725I46774085I49318717I52428011I55386558I57764590
1759I59683696I61516435I63496956I65590383I67530374I69030533I70095616I71063440
1751I72230537I73477453I74381518I74725885I74753663I74820455I74969754I75004563
1743I74814389I74526681I74428734I74736638I75343139I75896152I76192889I76317236
1735I76372103I76347289I76316547I76510512I77037332I77691600I78184439I78440715
1727I78542178I78571335I78685894I79109115I79859056I80717284I81556626I82434568
1719I83320712I83999313I84289709I84201341I83848980I83332223I82780658I82450146
1711I82582489I83118614I83715948I84076858I84171496I84205478I84431288I84883114
1703I85314813I85515946I85552616I85559784I85499886I85298201I85035377I84845341
1695I84738226I84679844I84756906I85072529I85566333I86176005I87012245I88039555
1687I88790599I88819756I88282390I87730204I87496536I87487920I87416855I87120256
1679I86728535I86490870I86448134I86453028I86498108I86727984I87080898I87229301
1671I87031062I86807527I86982881I87597861I88348630I88950858I89262139I89197139
1663I88801283I88328503I88007020I87802441I87614197I87551610I87778178I88198642
1655I88531980I88598496I88423210I88170588I88055615I88203673I88561963I88959336
1647I89207754I89181424I88899644I88471529I87925685I87248325I86615424I86340261
1639I86505621I86864462I87222959I87703804I88451333I89279509I89893868I90336733
1631I90895192I91597435I92119223I92206418I91926362I91451789I90847700I90174476
1623I89582932I89188316I88991526I88950237I88975190I88923217I88771713I88642541
1615I88522467I88242618I87856066I87710214I88060922I88861733I89846101I90623889
1607I90916491I90872514I90927726I91289876I91753558I91959654I91674221I90894020
1599I89779309I88466980I87039678I85706051I84784822I84382073I84309353I84458652
1591I85020281I86091636I87296437I88154872I88733182I89494772I90548068I91522234
1583I92180639I92636049I92950432I93070919I93160870I93470979I93905780I94181218
1575I94302394I94466582I94627530I94534201I94169156I93894545I94046463I94531444
1567I95038275I95507057I95991486I96206957I95766159I94811086I93961061I93726635
1559I94198175I95103136I96049042I96819593I97355925I97561470I97492059
1552I97485786I97608341I97430230I96940976I96980541I97999372I99080102
1545I99007451I97780731I96324686I95288761I94854511I95119266I95911323
1538I96643274I96843442I96481154I95647258I94493740I93507994I93174863
1531I93338361I93380614I92976969I92379635I92104611I92548509I93766682
1524I95466320I97189670I98490211I99032817I98754690I97960221I97040784
1517I96093225I95088592I94383799I94586862I95743757I97104819I97928652
1510I98171900I98260335I98504894I98841954I98965267I98667082I97988757
1503I96967789I95527942I93858357I92571118I92228061I92916518I94279097
1496I95681100I96519409I96759556I97033960I97947125I99458519A001038083
1489A002098479A002223033A001415674A000297309I99684053I99781035A000027110
1482I99867196I99482161I99552331A000301307A000979494A000587016I99092647
1475I97507154I96681529I96578757I96889073I97657143I98881794A000093281
1468A000837502A001230738A001666711A002275763A002931686A003503999A003885036
1461A003977744A003828101A003660742A003655296A003756346A003829341A003951896
1454A004349131A005020563A005658289A006007825A006110736A006101982A005950684
1447A005538560A004955081A004546956A004511388A004569013A004318389A003809076
1440A003445134A003485044A003931011A004666271A005428344A005908568A006001139
1433A005741003A005121612A004273310A003547631A003071611A002497850A001529405
1426A000462738I99945981A000300480A001122107A001432216A000360379I97852141
1419I94537716I90835844I86529746I81343913I75513324I69502073I63439401
1412I57086334I50285301I43332625I36710323I30485601I24592218I19808583
1405I17348250I17210118I18200275I19875099I23152854I28721446I36042338
1398I43910659I50911930I55615470I57074409I55183495I50851686I45911101
1391I42117554I40112977I39644884I40223745I41616581I43856550I46616653
1384I49143915I51131398I52899895I54523091I55669716I56407182I57320829
1377I58864757I61218595I64650819I69201476I73922524I77280443I78608143
1370I78739451I79064449I80288343I82279065I84744361I87571393I90538280
1363I93199263I95356242I97365093I99643868A002088898A004204795A005593496
1356A006220676A006474747A006910581A007660109A008322581A008641444A008839889
1349A009066181A009177225A009301847A009839076A010626997A010863697A010117960
1342A008823691A007671207A006991847A006724612A006639830A006692630A007253707
1335A008574376A010004711A010496447A010074535A009928063A010740178A011880254
1328A012623648A013046868A013305833A013398266A014039232A016143480A018899791
1321A020108520A019179502A018003376A018028328A018346502A017701056A016674298
1314A016600544A017625786A018920883A019739270A019622161A018584236A017390671
1307A016910240A017355311A018392063A019256633A018942595A017375507A015958476
1300A015971779A017138117A018359529A019111194A019743130A020752243A021788100
1293A021745847A020393264A019022138A018667088A018778132A018307764A017021559
1286A015289249A013468366A011898589A011051941A011149819A011618740A011622944
1279A011426705A012269562A014477341A016892525A018463405A019163166A019129598
1272A018052109A015980808A014158478A014200042A016413197A019457767A021706420
1265A022583603A022989661A024391114A026406376A026263211A023058589A019955430
1258A019678062A021844070A024718111A026647350A026621777A025064752A023272130
1251A021816154A020658914A019911798A019201146A017733314A016051046A016057043
1244A018420807A021552364A023718510A024678477A024937924A024708461A023900964
1237A022483175A020652986A018234355A013032049A000897125I80372504I57339026
1230I41790075I39118063I46540073I57941047I69430387I79759799I88442579
1223I95157107I99988165A003416873A005986113A007883713A009008695A009559571
1216A010147186A011169119A012512259A013907302A015128163A015867145A015900920
1209A015440478A014940816A014612578A014605823A015431380A017318572A019353547
1202A020339568A020337086A020209914A020086601A019567570A019029997A019517528
1195A021458002A024077352A025972333A026109639A024621956A022879306A022417348
1188A023277299A023397442A020254923A013580995A006262516A002266595A003468777
1181A008579891A015011192A021051806A025951861A028681911A028106772A024969975
1174A022253987A022132673A023718441A025316272A027044584A029158344A030251136
1167A029750578A029872030A032432515A035697105A036776318A035450685A033575349
1160A032407770A032255576A033021647A033814186A033707347A033399375A034249676
1153A035798843A036356888A035658436A035110455A035867427A037506546A038289091
1146A036976003A034614652A033796402A035799050A039141598A041305469A040864602
1139A037985461A034146077A031247979A030468192A032059199A035826277A040822211
1132A044882718A046088070A044573298A041690503A038184595A034455772A031813055
1125A031593104A033064520A034048336A033638074A033025093A033590237A034893261
1118A034936547A032267156A027816032A024554750A024956121A028686874A033032675
1111A035667052A036448563A036306157A035654714A034822678A034677929A035608532
1104A036803338A037215598A036647835A035534227A034394081A033806259A034175439
1097A035239558A036262456A036692845A036364884A035291599A033748980A032556516
1090A032549142A033458929A034247056A034533110A034845218A035454201A035757279
1083A035405606A035071855A035315379A035587646A035007751A033493255A031569462
1076A029606173A027741865A026259144A025623900A026049947A027154663A028447209
1069A030191444A032791357A035457716A036652729A035886796A034017663A031819327
1062A029070598A024914074A018929016A012060640A006353433A003577890A003780471
1055A005472044A007831121A011178218A015479009A019762361A022904879A024606309
1048A025504102A026474200A027878481A029484790A031024719A032593601A034481965
1041A036836698A039333770A040917057A040712546A039481897A038597959A038488707
1034A038620292A038310596A037647435A037386128A037929766A038835486A039631955
1027A040601916A041809543A042401225A041778525A040556561A039710120A039708603
1020A040414500A041317393A042130129A042971608A043673988A043521381A042345255
1013A041132665A040886039A041678441A042943416A044072188A044731144A045028088
1006A045388584A046178711A047478495A048843899A049204532A048094095A046630468
999A045913198A045870532A045879699A045865500A046189464A046560988A046301197
992A045664160A045672431A046851522A048644075A049631199A048977206A047442307
985A046032031A045184831A045119211A045836066A046745234A047024877A046693262
978A046243297A045738465A045274852A045395477A046358269A047362006A046952295
971A044723907A041400935A037483455A033356225A029906218A028167360A028400338
964A030060066A032897024A036958633A040831586A042121720A041309811A040082885
957A038933916A037863802A036688641A034948128A032525431A029932687A027361379
950A023686045A017055679A008235317A000693441I96848405I97380533A001655820
943A008377241A016306840A023951489A029946197A034669933A039472799A044002639
936A046161823A045528991A043068107A040103563A038041706A037274601A037340497
929A037829338A039085352A041826637A045406299A047201540A046795345A045881147
922A045368250A045489357A046064427A046574774A046858690A047113725A046767429
915A044637333A041083312A037454160A033844583A029315088A023687079A018567831
908A015687656A015752862A019198665A027015496A037792875A044756441A047728567
901A050838550A054653878A056694919A055961107A054497480A053745401A054161247
894A055902517A058243397A058191356A052506137A043185010A032698027A019090378
887I98406602I69894551I38708904I11002490H90538113H78979499H74097710
880H70984625H65885436H60046575H59830622H68103002H83098388I02463701
873I23478885I43256804I60115188I74022676I85714873I95644432A003799771
866A010308823A015587847A019677303A021668440A019666758A010859148I91829724
859I60461830I18936224H74330275H35232054H07622415G93563146G92148252
852H01347444H20585997H49660090H80833330I04033960I20774271I37274365
845I55319146I71098318I82282512I90489824I97061670A002619371A008755589
838A017353105A025246861A027508197A027484417A028282333A030341501A033191693
831A036053258A038505319A041163959A044991763A049983562A055133414A059446336
824A061530595A061001293A060059248A060239496A061577535A063126220A064225836
817A065488743A067503935A069807180A071542454A072766554A073741822A073630779
810A071634956A067672672A060950562A051364888A041126599A032348147A025332194
803A018015852A000857973I54890273H91355535H55346412H53820888H75837671
796I12677589I53394870I85178334A001365287A006093572A006154712A003229250
789I93028528I67847100I24162380H66674598H04355206G46858946G01287033
782F67725284F38982668F09035182E81636740E69815027E85298703F22912756
775F63730396F99129779G32133277G65445643G94515738H10233908H10370455
768G99257051G80661600G59174256G43138877G31848809G16051647F92865905
761F68003203F52521803F55897505F77844326G09616348G43435338G75129402
754H02453125H26208698H50031408H75103376H96882702I13104946I26625056
747I39515643I50775244I58538450I61994454I60207001I52151953I38089030
740I17713709H89145275H54876458H22576927G95584956G74611129G63264884
733G65485344G80487762H03284678H29253406H55367091H78566893H97215006
726I12634508I26404692I38022790I46329635I51410903I54084982I55326935
719I56136086I57103428I58214073I59039904I59418666I59810938I60692326
712I62100535I63801965I65481338I66374858I64495868I57128794I44026390
705I28894388I16215204I08757076I06974035I09549616I15349601I24350693
698I36456598I50512971I64991463I78605937I90345005I99518831A005602319
691A007584012A003111589I88448783I60754913I22656569H84574905H59742118
684H55867718H70862208H94503084I16545854I33783001I47368869I57026091
677I58199735I42046696I00658051H37698728G73568586G34002203G30535722
670G54389035G88563421H21246332H48841013H72164956H92524355I10163492
663I24760334I36399525I45575075I52764933I58349448I62499700I65075487
656I65883121I64939353I62429875I58390805I52246040I42480463I26217275
649H98828207H55997579G99476174G41288906F99382608F87059303G06266701
642G48586086H00093015H47077479H80234756H94233298H84599512H49239558
635G95160770G39030258F96271316F72729559F69350961F87587640G25052463
628G71688493H15598196H50549681H76276608H94183808I04202077I04241986
621H91977063H68308547H39836337H16873235H07175414H10980748H22365179
614H34793187H44790570H51699270H56046588H58594252H60144453H61542185
607H63441991H65933961H68310063H68963091H65403488H54469504H32910544
600G98641106G51932563F95578861F35552719E83061836E53233838E56623912
593E90680637F41671705F95374625G44565076G87713739H24649537H55021966
586H78979568H97525735I12095626I23979513I33944776I42253412I49017500
579I54459608I58854832I62361567I64940249I66430827I66819929I66499756
572I66204329I66723153I68763918I72892457I79172873I86737220I94057492
565I99862784A003590573A004923719A003243036I97552096I86596744I68982973
558I43117568I06558189H55570774G87155557G03645145F15379013E37370367
551D82642515D58049771D63594135D93164479E37060878E86247572F35018041
544F80613114G22093640G59754978G94464109H26854282H56674112H82380843
537H99951328H99802098H67836663G98885871G10737331F34300771E86933065
530E65319685E63571970E82998491F21535221F67478658G08836836G41562759
523G67113918G87526047H04049026H17654677H29462673H40527414H51356213
516H62096921H72963355H84039813H95056924I05471808I14196497I19050025
509I16713557I03861639H79547608H47348436H15253416G93055419G88299562
502H02390883H29742247H61489523H90621999I14228479I32351908I45759045
495I54690518I58443742I54091324I36192533I02652703H63398359H38186259
488H40527207H65828156H98071028I24747445I42763345I54162940I61391675
481I66302827I70418752I74747597I79560596I84433907I88553761I91177385
474I91872322I90333080I86056965I78169275I65263455I44797906I12088664
467H60569810G85810831F92347839E96531146E19462581D74545867D60712788
460D65556734D73945467D76730866D75127555D77113143D88531590E08118198
453E30552791E51655859E69920557E85373904E98676407F10720345F22163572
446F33224040F43910915F54251080F64286994F74045196F83544848F92727842
439G01458044G09765578G18005836G26581158G35578459G44831070G54249731
432G63914673G73831824G83717681G93114215H01724345H09599559H16993170
425H24093077H30948150H37570866H43989897H50257976H56535359H63056060
418H69891558H76890209H83896166H90826854H97589012I04169612I10698515
411I17199503I23419813I29106412I34369513I39532806I44167418I45487673
404I37047108I10047279H59797399G94683372G37395206G11654563G24509307
397G62608134H05664571H41311613H67980103H88655952I05382959I18313731
390I26790277I29514744I23074758I01377871H60742477H09161932G67558507
383G55734932G76269134H14827438H54730536H87852867I13560700I33044846
376I46497406I52417189I46674346I22970124H77025447H12385578G42558361
369F86722932F60798456F68826623G01296752G42998401G83054589H17729188
362H46865798H70867929H90250681I05726568I18124798I28291677I36846526
355I44182858I50697286I56618034I61782292I65917931I68913010I70659313
348I70464865I66030146I53935890I33915895I12569992H98437245H91616774
341H82953363H67047363H52025853H51507028H69273407H96443007I21866580
334I40443696I52179109I58275557I59680388I56716188I47749974I27389335
327H86651926H18555572G27774517F34450208E65008784E37436125E53560490
320F01352899F62950678G23636810G76675949H21355859H58043307H85544453
313I00698305H98204129H72974107H26429821G69299846G13921068F65046379
306F23476660E96435543E95071862F19997151F56364426F84590699F91691020
299F75041350F42786692F11670249E99194060F13527526F49679400F95111801
292G38769640G75636164H05536709H30311872H52013859H71937837H90388952
285I07201706I22172278I35039360I45485261I53165270I57422360I56818685
278I48326768I25685768H79717379H06619989G20961283F54176568F29375833
271F39123144F57235544F70394262F88065796G22586409G71466268H21951470
264H63170137H88421113H92797174H78039384H58576538H53560476H69331514
257H94489230I13062555I17116582I05610147H76542534H25084889G50481136
250F62978801E79975220E13748757D66412413D37464287D30240171D47482073
243D84928493E32939129E82221667F27187906F66017512F98527551G24122963
236G41835784G51128306G51396713G41206123G19037007F84988692F41914195
229E95384453E52494650E19746291E01060130D97053801E05439707E22223063
222E43428317E66326420E89627410F12945010F35962085F58004303F78302425
215F96438674G12586131G26959299G38778669G47015276G53145842G62651490
208G78394750G93311075H01921204H05054485H04462390H00247346G90693999
201G73378687G46451785G09287008F63094532F11678175E61150237E18250543
194D87894002D71393011D66725934D69974153D77116279D85821771D95955599
187E08845324E26147504E48136338E72694514E96886059F19158223F39410300
180F57872167F74607101F89538384G02402640G12903339G21382436G29081193
173G36692687G42217786G41202125G30112983G09570373F83987989F57570812
166F31505653F07111872E90487361E89821168F07240284F36049142F66489741
159F92328815G11934895G25394693G31890097G29176590G15300189F91047090
152F60915772F32723068F15579319F15232127F30645288F55512539F82549107
145G07068752G27653202G44770482G59617810G73205195G85354043G94976800
138H01953877H07937763H14422621H21029207H26664867H31438232H36137498
131H40463586H43471211H45572012H48515878H53077494H57785928H60582838
124H61407912H62051842H63474387H65034376H66552594H68902572H72075556
117H74731990H76074785H76493112H76373245H75810996H75368751H75897846
110H77461211H78915396H78751415H76309418H71583545H64033604H52647243
103H37106426H18284131G97172172G73413152G45629124G13385218F78060693
96F42082863F08881886E82284806E63233324E48281053E33353079E18457570
89E07007174E02107567E05150379E15987587E33204986E54449254E77291628
82F00268585F22163572F39442007F44773555F30571397E96859315E55016983
75E22461245E12020238E24430048E51668197E84506439F15328282F40469179
68F61504284F80949553F98881223G14429760G27369079G37532374G44896621
61G49533990G49335201G39834653G18802168F88801746F57177093F33524016
54F23275940F25905974F38470254F57758367F80434933G02985775G23421202
47G42869435G63182308G83366008G99317914H05911197G96699805G63520402
40G02451648F21519091E41381486D88576600D78602583E03222795E45817343
33E96935412F45713532F80731808G02824965G17005134G26104518G32612674
26G38559753G43952853G48584156G54313696G63359867G75023390G85025185
19G88212023G85565239G86698768G94289445H00438829H01850070H02973880
12H07033973H11059671H11372882H10120934H11908938H14795455H12048587
5H00039802G77960707G44193413G02585506F72532561
##END=


$$ === CHEMSPECTRA PEAK TABLE EDIT ===
##TITLE=X8191
##JCAMP-DX=5.00
##DATA TYPE=INFRAREDPEAKTABLE
##DATA CLASS=PEAKTABLE
##$CSTHRESHOLD=0.93
##MAXX=3997.453
##MAXY=0.9284989239591223
##MINX=373.96442
##MINY=0.3720424478515737
##$CSSOLVENTNAME=- - -
##$CSSOLVENTVALUE=0
##$CSSOLVENTX=0
##NPOINTS=49
##PEAKTABLE= (XY..XY)
423.54303622361203, 0.4138629735887818
449.0406102814695, 0.5389666563808394
477.37124812353386, 0.4427602895664184
497.2026946129786, 0.4341884856481197
583.6111400312743, 0.5320109137972853
603.442586520719, 0.5100372441451877
644.5220113917121, 0.40359285502694736
691.267563831118, 0.42981833241687
719.5982016731818, 0.3720424478515737
739.4296481626266, 0.7381010660680368
757.8445627599685, 0.5442414291155143
791.8413281704452, 0.5181422838838606
803.1735833072712, 0.5145776873217026
828.6711573651287, 0.46473822061786124
851.3356676387803, 0.7363253838515663
893.8316244018761, 0.5714135770617765
915.0796027834244, 0.6535081867755733
937.7441130570755, 0.6153904806886616
1019.9029627990617, 0.4108580056415356
1025.5690903674745, 0.39839309519994387
1065.231983346364, 0.7248064884994506
1085.063429835809, 0.6816678647303797
1121.8932590304921, 0.4873387223977597
1151.6404287646596, 0.3960902991568697
1215.3843639093038, 0.4783990087337544
1246.5480655355746, 0.6979904181708022
1266.3795120250193, 0.5788092027656936
1284.7944266223608, 0.594122172072389
1323.0407877091475, 0.6317176232618612
1341.455702306489, 0.7400962120802532
1366.953276364347, 0.7842894803033604
1412.2822969116496, 0.6600195773037368
1449.1121261063327, 0.5642564902770141
1474.6097001641906, 0.4927372936259143
1502.9403380062545, 0.7383262526602249
1580.849592071931, 0.6849959501699465
1614.8463574824077, 0.7435230620216102
1658.7588461376267, 0.8782976283050686
1711.170526145445, 0.8624668730359614
1866.9890342767962, 0.8694638616069285
2113.465583502736, 0.8120854502452967
2340.110686239249, 0.8125410092275369
2361.3586646207973, 0.7931409489304773
2875.5597414542704, 0.8188311468294258
2925.1383576778735, 0.7998250134700576
3113.5370993275997, 0.8108673697119064
3140.4512052775603, 0.8120131500019405
3258.023352322127, 0.5841783886706844
3430.840243158718, 0.49900847716687596
##END=


$$ === CHEMSPECTRA PEAK TABLE AUTO ===
##TITLE=X8191
##JCAMP-DX=5.00
##DATA TYPE=INFRAREDPEAKTABLE
##DATA CLASS=PEAKTABLE
##$CSTHRESHOLD=0.93
##MAXX=3997.453
##MAXY=0.9284989239591223
##MINX=373.96442
##MINY=0.3720424478515737
##NPOINTS=114
##PEAKTABLE= (XY..XY)
3987.5372767552776, 0.8515548120191833
3970.5388940500393, 0.854208827615439
3964.872766481626, 0.85403907380402
3953.5405113448005, 0.8537011157809438
3939.3751924237686, 0.8509106644976142
3928.042937286943, 0.855602086424147
3912.4610864738074, 0.8508692991771838
3894.046171876466, 0.8532201656726939
3878.4643210633308, 0.8563957227624809
3858.6328745738856, 0.8565877079691451
3847.30061943706, 0.8592098365725321
3828.8857048397185, 0.8595325960658006
3810.470790242377, 0.858956636122148
3799.138535105551, 0.8629892481311503
3789.2228118608286, 0.8591903455130266
3782.1401524003127, 0.860871673360958
3775.0574929397967, 0.860175730121454
3763.725237802971, 0.862358571404833
3739.6441956372164, 0.8617215760817185
3729.728472392494, 0.8612503421023331
3719.8127491477717, 0.862098813691617
3705.6474302267397, 0.8625743998672089
3697.1482388741206, 0.8611215956122922
3682.982919953088, 0.8623078470898583
3660.318409679437, 0.8632887610337939
3624.905112376857, 0.8634462961819117
3430.840243158718, 0.49900847716687596
3318.934223682564, 0.8425322181156795
3304.768904761532, 0.8434785618033193
3294.85318151681, 0.841114879979421
3258.023352322127, 0.5841783886706844
3190.0298215011726, 0.8211185938793224
3184.36369393276, 0.8206869966210794
3151.7834604143864, 0.8309802424405213
3140.4512052775603, 0.8120131500019405
3113.5370993275997, 0.8108673697119064
3097.955248514464, 0.8259866243479177
3068.208078780297, 0.8234095586590358
3052.626227967162, 0.8303144584593299
3027.128653909304, 0.8383873708096353
3014.379866880375, 0.8397134555063426
2994.5484203909305, 0.8417314892453996
2976.1335057935885, 0.8416287314111873
2960.5516549804533, 0.8280183087464846
2925.1383576778735, 0.7998250134700576
2874.1432095621576, 0.8174260861582453
2838.7299122595778, 0.8426197177535754
2827.397657122752, 0.8442521700835695
2797.6504873885847, 0.8495560894753735
2772.1529133307267, 0.8514841807086064
2748.0718711649724, 0.8530132776745694
2738.15614792025, 0.8533240563058393
2721.1577652150118, 0.8539674886940362
2711.2420419702894, 0.8544033179507362
2695.660191157154, 0.8529199964384546
2667.3295533150895, 0.8551769262309864
2655.997298178264, 0.8541046386497502
2647.4981068256448, 0.8568391806849732
2629.0831922283032, 0.8511638052814896
2596.5029587099298, 0.8594524276258855
2582.3376397888974, 0.8593072304740864
2571.005384652072, 0.8625578886742099
2566.7557889757622, 0.8620867740278418
2555.4235338389362, 0.8602825409545971
2542.6747468100075, 0.8588300955634647
2535.5920873494915, 0.8579046144002982
2518.593704644253, 0.859875501220706
2495.929194370602, 0.8580113655669327
2459.0993651759186, 0.8617735516639116
2361.3586646207973, 0.7931409489304773
2340.110686239249, 0.8125410092275369
2113.465583502736, 0.8120854502452967
1712.587058037529, 0.8620067249209441
1614.8463574824077, 0.7435230620216102
1580.849592071931, 0.6849959501699465
1502.9403380062545, 0.7383262526602249
1474.6097001641906, 0.4927372936259143
1449.1121261063327, 0.5642564902770141
1412.2822969116496, 0.6600195773037368
1366.953276364347, 0.7842894803033604
1341.455702306489, 0.7400962120802532
1323.0407877091475, 0.6317176232618612
1284.7944266223608, 0.594122172072389
1266.3795120250193, 0.5788092019009616
1246.5480655355746, 0.6979904181708022
1215.3843639093038, 0.4783990087337544
1182.8041303909304, 0.8355078114868714
1151.6404287646596, 0.3960902991568697
1121.8932590304921, 0.4873387223977597
1085.063429835809, 0.6816678647303797
1065.231983346364, 0.7248064884994506
1025.5690903674745, 0.39839309519994387
1019.9029627990617, 0.4108580056415356
937.7441130570755, 0.6153904806886616
915.0796027834244, 0.6535081867755733
893.8316244018761, 0.5714135770617765
851.3356676387803, 0.7363253838515663
828.6711573651287, 0.46473822061786124
803.1735833072712, 0.5145776873217026
791.8413281704452, 0.5181422838838606
757.8445627599685, 0.5442414291155143
739.4296481626266, 0.7381010660680368
719.5982016731818, 0.3720424478515737
691.267563831118, 0.42981833241687
644.5220113917121, 0.40359285502694736
603.442586520719, 0.5100372441451877
583.6111400312743, 0.5320109137972853
531.1994600234557, 0.7569593795434195
497.2026946129786, 0.4341884856481197
477.37124812353386, 0.4427602895664184
449.0406102814695, 0.5389666563808394
423.54303622361203, 0.4138629735887818
398.0454621657541, 0.6793034081066004
385.29667513682534, 0.7005375036008974
##END=

##END=

