##TITLE=X8405
##JCAMP-DX=4.24
##DATA TYPE=INFRARED SPECTRUM
##DATE=31/10/2018
##SAMPLING PROCEDURE=Diamant-ATR
##ORIGIN=ComPlat
##XUNITS=1/CM
##YUNITS=TRANSMITTANCE
##RESOLUTION=4
##FIRSTX=3997.453
##LASTX=373.96442
##DELTAX=-1.4165319
##MAXY=0.85493433
##MINY=0.26536518
##XFACTOR=1
##YFACTOR=7.9621965e-010
##NPOINTS=2559
##FIRSTY=0.84200573
##XYDATA=(X++(Y..Y))
3997+1057504337+1056657601+1056349180+1056892735+1057837238+1058361255
3989+1058058148+1057280956+1056646597+1056356815+1056186210+1055948382
3980+1055669380+1055346661+1054909481+1054485776+1054369369+1054611914
3972+1054981346+1055401083+1055998163+1056639260+1056887644+1056573758
3963+1056064713+1055842530+1056013210+1056270951+1056214657+1055691239
3955+1054972363+1054486524+1054298402+1054125028+1053938028+1054020748
3946+1054275495+1054294510+1054227885+1054688421+1055622293+1056179772
3938+1055865437+1055020423+1054295782+1054075321+1054311428+1054709681
3929+1055072375+1055375257+1055591826+1055686673+1055674396+1055548482
3921+1055277041+1054920261+1054605626+1054343243+1053980848+1053456607
3912+1053018004+1052997643+1053333463+1053566575+1053399264+1052883632
3904+1052057332+1050975387+1050277172+1050765705+1052133539+1053068535
3895+1052809895+1051922136+1051793153+1053082084+1054363605+1054128621
3887+1052994873+1052575510+1053028335+1053115996+1052894037+1053391928
3878+1054023518+1053316544+1051473128+1049964184+1049615264+1050178806
3870+1051438094+1052913650+1053633425+1053590680+1053735833+1054315695
3861+1054387635+1053425914+1051793901+1049827490+1047750587+1046709890
3853+1048638796+1052159066+1054004653+1053822445+1052540625+1051006978
3844+1049927203+1049620878+1049748439+1049921739+1050450771+1051653015
3836+1052780176+1053044130+1052784068+1052777930+1053143319+1053358541
3827+1053094960+1052353102+1051165156+1049964109+1049887827+1051194052
3819+1052044007+1051749659+1051905666+1053333163+1054585339+1054375508
3810+1052787138+1050610372+1049059656+1048752358+1048679594+1048197424
3802+1048437798+1049891570+1050752530+1050394926+1050345519+1051394151
3793+1052638392+1053347012+1053705889+1053850293+1053549657+1052847400
3785+1052206901+1051785741+1051192704+1050306367+1049714527+1049864696
3776+1050258083+1050187191+1049535763+1048788066+1048759844+1049811396
3768+1051171818+1052022822+1052468685+1052618255+1052070432+1050886529
3759+1050084483+1050371495+1050852842+1050305544+1048756999+1047546146
3751+1048386145+1050715400+1051895186+1051530845+1051397744+1052575959
3742+1053401585+1052278841+1049748514+1047046533+1045469093+1045917501
3734+1047909738+1050037846+1051438618+1051809846+1051110209+1049813641
3725+1048913306+1049025296+1049670136+1050054764+1050038370+1049939930
3717+1049835725+1049483661+1048844061+1048397448+1048750711+1049767079
3708+1050667265+1050844532+1050063298+1048674579+1047674230+1047896563
3700+1048968402+1049887902+1050201114+1049927054+1049147242+1047986395
3691+1046981630+1047358697+1049572669+1051516921+1051347139+1049716923
3683+1048011772+1046865298+1045995730+1044854571+1043772775+1044473535
3674+1047350313+1049470710+1049495413+1049237822+1050391707+1051906265
3666+1052272628+1051649048+1050840190+1050222150+1049465170+1048180281
3657+1046878249+1046598723+1046990463+1046518399+1044852998+1043553736
3649+1044774995+1048027642+1050540902+1051374688+1051290021+1051205954
3640+1051461525+1051654288+1051174363+1049909537+1048339208+1046946895
3632+1045752960+1044994034+1045954931+1048900879+1051160739+1051232829
3623+1049920391+1048263300+1046987544+1046735042+1047439471+1048086856
3615+1048215914+1048255515+1048372595+1048257835+1048138135+1048679819
3606+1049637197+1049996299+1049494141+1048779606+1048405683+1048115677
3598+1047357275+1046268443+1045550390+1045480621+1045636853+1045759772
3589+1046193059+1047249103+1048307392+1048338759+1047372996+1046219485
3581+1045583478+1045710440+1046371075+1047158373+1047789514+1048087530
3572+1047887954+1047216240+1046515180+1046523714+1047543900+1048706169
3564+1048972520+1048348041+1047461405+1046927581+1046962166+1047271187
3555+1047499583+1047720044+1048160892+1048526282+1048250724+1047454443
3547+1046924811+1047120195+1047674455+1048105945+1048340630+1048423574
3538+1048416088+1048475527+1048601291+1048537660+1048192633+1047785547
3530+1047506620+1047391112+1047467618+1047666520+1047705896+1047413719
3521+1047054318+1047081343+1047632683+1048410100+1049051496+1049527977
3513+1050018158+1050525705+1050861900+1050877321+1050500777+1049764084
3504+1048965258+1048539083+1048556226+1048631459+1048454192+1048053693
3496+1047569726+1047090251+1046799122+1047045784+1047980481+1049161615
3488+1049826667+1049632332+1048899906+1048195852+1047914904+1048061778
3479+1048283812+1048296987+1048213294+1048266369+1048385246+1048324236
3471+1048103026+1048005634+1048129002+1048237249+1048208204+1048314579
3462+1048754379+1049211247+1049327429+1049277273+1049415314+1049717971
3454+1049953928+1050025344+1049920915+1049741552+1049825993+1050342898
3445+1050860028+1050858606+1050438494+1050064121+1049896661+1049716623
3437+1049348015+1048893393+1048574641+1048475527+1048554130+1048866219
3428+1049545719+1050495986+1051332691+1051772342+1051931268+1052131967
3420+1052476246+1052747762+1052721785+1052399739+1051921986+1051426191
3411+1050995150+1050616211+1050238245+1049899805+1049648501+1049410523
3403+1049165208+1049106518+1049402588+1049964109+1050558344+1050946491
3394+1051005106+1050934513+1051099205+1051462947+1051553752+1051143297
3386+1050538132+1050110460+1049930497+1049915600+1049977509+1049964783
3377+1049717447+1049255713+1048824897+1048710436+1048990336+1049479768
3369+1049960666+1050396573+1050822748+1051144420+1051251169+1051211644
3360+1051126603+1050879567+1050275300+1049393979+1048618060+1048287854
3352+1048442364+1048901777+1049522213+1050299180+1051208949+1052010919
3343+1052331692+1051978205+1051118668+1050149686+1049414715+1049022675
3335+1048912557+1049047155+1049426468+1049939630+1050391931+1050684707
3326+1050819604+1050783597+1050558868+1050174315+1049734889+1049487628
3318+1049681664+1050192880+1050524732+1050351058+1049823223+1049282288
3309+1048935239+1048824148+1048909787+1049118720+1049343224+1049471458
3301+1049527379+1049655987+1049810198+1049700154+1049230336+1048664398
3292+1048246606+1048002939+1047906145+1047907268+1047885185+1047807855
3284+1047820132+1048029364+1048327080+1048472907+1048315702+1047964087
3275+1047677225+1047525634+1047335940+1047017263+1046683913+1046443464
3267+1046328705+1046387395+1046603664+1046813196+1046863501+1046761618
3258+1046605011+1046474307+1046391213+1046290002+1046063927+1045676154
3250+1045188968+1044708220+1044326736+1044054172+1043807809+1043542807
3241+1043373100+1043472139+1043828171+1044122968+1043992413+1043509494
3233+1043210655+1043430892+1043840673+1043904004+1043527610+1042954261
3224+1042309046+1041608735+1041013153+1040762223+1040900040+1041178667
3216+1041233689+1040887763+1040328562+1039908600+1039752443+1039675113
3207+1039471720+1039131932+1038769088+1038462089+1038194990+1037916662
3199+1037656600+1037549102+1037682277+1037941141+1038045196+1037764323
3190+1037149951+1036561031+1036370363+1036621068+1037045971+1037392496
3182+1037635415+1037885072+1038184210+1038406244+1038336999+1037890461
3173+1037266582+1036832771+1036779022+1036909502+1036873195+1036587681
3165+1036312198+1036264138+1036313919+1036157762+1035701793+1035151800
3156+1034779298+1034697327+1034801232+1034859398+1034761856+1034676891
3148+1034829679+1035190801+1035564949+1035872922+1036132085+1036270276
3139+1036138523+1035697675+1035181818+1035017801+1035400708+1036003626
3131+1036330987+1036215928+1035793196+1035278312+1034929991+1034897577
3122+1035013684+1034977676+1034717914+1034387783+1034131763+1033984365
3114+1033897303+1033837790+1033870653+1034040210+1034199811+1034137977
3105+1033845650+1033518664+1033327922+1033272451+1033224391+1033122657
3097+1033109332+1033362881+1033771090+1033926798+1033553773+1032814759
3088+1032059726+1031313975+1030244307+1028695762+1026980655+1025451499
3080+1024051925+1022500835+1020737818+1019036260+1017796137+1017274815
3071+1017458445+1018193866+1019342136+1020690432+1021894622+1022666499
3063+1022901334+1022672787+1022284191+1022164192+1022522020+1023259237
3054+1024174545+1024993658+1025392659+1025304400+1024983627+1024636204
3046+1024351288+1024379660+1024996278+1026081742+1027188540+1027957348
3037+1028277223+1028211346+1027964908+1027821178+1027967753+1028338532
3029+1028642013+1028609599+1028237098+1027750660+1027353156+1027077898
3020+1026856688+1026643188+1026457911+1026347942+1026311186+1026287456
3012+1026193582+1025864874+1024980408+1023241795+1020671417+1017580167
3003+1014182517+1010348585+1005720842+999955160+992831899+984178285+973726020
2993+961163914+946378030+929563003+911202425+892153739+873617915+856601741
2983+841246101+826794913+812250227+797035398+781259421+765692303+751658757
2973+740881976+735148708+735720410+742795761+755489171+772258683+791335292
2963+810978962+829699913+846476537+860841262+872800674+882721361+891198381
2953+898777312+905591702+911283423+915402420+917849429+918797451+918307719
2944+916343929+913073390+908812459+903734287+897947868+891787152+885742243
2934+880176435+875391712+871999826+870962797+872979289+877782202+884241833
2924+891198456+898021455+904451441+910324922+915552663+920126732+924074001
2914+927473822+930445672+933073392+935398005+937440174+939165387+940527531
2904+941657162+942898109+944475624+946165129+947501073+948334110+948987559
2894+949799560+950698324+951340844+951557936+951525597+951497599+951500669
2884+951371611+950972385+950190028+948824664+946687499+943796274+940399746
2874+936906425+933831719+931642227+930544711+930509152+931522002+933722648
2864+937247111+941983550+947500549+953202376+958587173+963429388+967748784
2854+971580246+974778171+977088711+978424954+979059014+979524042+980269419
2844+981317527+982277077+982806184+983015342+983301380+983890674+984735240
2834+985731396+986810347+987882710+988900051+989909008+990890117+991654209
2825+992066460+992278537+992564800+992964925+993255305+993277089+993126397
2815+992955792+992719909+992258250+991580472+990948957+990645701+990700199
2805+990849768+990764353+990335932+989806001+989614885+990058802+991033324
2795+992101869+992831001+993108206+993200283+993503464+994200781+995165496
2785+996139793+996889886+997259243+997290534+997244196+997308949+997403198
2775+997430896+997530234+997851906+998291481+998652529+998910045+999144506
2765+999374549+999594711+999828572+1000016769+999983082+999632964+999114262
2755+998712940+998624082+998809809+999044718+999148249+999163894+999235909
2745+999385329+999524642+999596433+999579739+999478753+999389671+999445142
2735+999646514+999861960+999983082+999999027+999939888+999809333+999571579
2725+999221087+998856221+998635535+998633140+998771780+998883470+998845966
2715+998670046+998439778+998194688+997979317+997949523+998255324+998810482
2706+999348198+999712166+999954261+1000148597+1000260736+1000225178+1000027699
2696+999677056+999225129+998828374+998613527+998467925+998178743+997794563
2686+997604270+997732355+997966141+998013827+997791794+997453279+997215225
2676+997171807+997265456+997415250+997596934+997812679+998059716+998308699
2666+998477806+998488661+998357657+998150820+997892180+997613777+997415624
2656+997371233+997460241+997636310+997835362+997915237+997771656+997507776
2646+997275188+997016997+996625482+996261515+996188901+996370735+996539917
2636+996556985+996405020+995999356+995347180+994764848+994595740+994755116
2626+994794193+994418323+993814431+993441780+993571661+994059745+994546482
2616+994831772+995024985+995327342+995748053+996148926+996502113+996898944
2606+997344732+997791569+998277333+998774026+999076084+999116059+999139265
2597+999311667+999465054+999431891+999301711+999215622+999218766+999324094
2587+999389371+999006989+997930284+996544484+995505957+994983737+994688042
2577+994527019+994714542+995249264+995779269+996066281+996280304+996731782
2567+997401326+997863434+997796210+997447140+997293903+997372131+997329611
2557+997025606+996711196+996707528+997110048+997691631+998041974+997926915
2547+997448787+996830073+996251409+995880779+995813031+995969937+996168539
2537+996249163+996237784+996448439+997119180+997851457+997924669+997304308
2527+996733354+996698694+996923498+996944907+996641801+996188452+995930186
2517+996203723+996939592+997587053+997654801+997121726+996307478+995676487
2507+995677535+996284047+996764870+996432119+995495252+994660793+994166795
2497+993809864+993560133+993498523+993486097+993414381+993423439+993548305
2487+993611861+993679160+994113345+994980593+995826805+996226630+996274765
2478+996370510+996677958+996984658+997024857+996755588+996342812+996055426
2468+996131633+996561552+997018644+997165069+997006143+996837259+996883972
2458+997099118+997295400+997356635+997315762+997299293+997384483+997448188
2448+997279305+996934352+996824533+997268900+998044444+998544581+998377944
2438+997746578+997241202+997283946+997735948+998060090+997903559+997396385
2428+996806492+996164422+995437311+994753095+994179596+993589852+992912747
2418+992245375+991705038+991424839+991527247+991903341+992239311+992354295
2408+992331463+992419198+992912747+993841605+994708254+994912171+994452833
2398+993851112+993450838+993172510+992846122+992383865+991703915+990863318
2388+990182320+989879364+989693263+989193426+988299228+987227464+986156972
2378+985189488+984393880+983681891+982838748+981786447+980682194+979710742
2368+978822533+977738642+976436086+975470921+975337072+975718407+975959380
2359+975921426+975830696+975767515+975944558+976891157+978586950+980039899
2349+980279300+979258889+977810881+976876260+976696372+977065580+977874811
2339+978912140+979882245+980651801+981010902+980606361+979518727+978498691
2329+978308847+979048834+980200248+981086286+981347246+981233310+981363715
2319+982095842+983282665+984576687+985685582+986369798+986531046+986424446
2309+986539954+987151032+988120089+989130693+989873525+990058053+989599838
2299+988878641+988519240+988838666+989687573+990750579+991726897+992322704
2289+992387458+992061145+991642381+991389056+991445500+991747484+991971913
2279+991792175+991244353+990798414+991022020+992006423+993082229+993397388
2269+992866784+992222093+992082256+992354595+992616079+992656728+992399211
2259+991667384+990503168+989535459+989504018+990453686+991754371+992699997
2249+992790277+991899449+990588733+989792901+989826962+990164204+990404503
2240+990769893+991268981+991286648+990700348+990487148+991330441+992438512
2230+992609192+991820097+991131090+991492287+992871275+994281105+994747405
2220+994223314+993257551+992143715+990960410+990099076+990145115+991154521
2210+992301220+992579024+991991451+991692237+992764975+995172832+997874813
2200+999665453+1000009433+999187250+997704358+996070174+995059195+995266257
2190+996375376+997615200+998690108+999635734+1000055172+999155510+996733354
2180+993917213+992352274+992567720+993605049+994116564+993547931+992588830
2170+992431176+993236216+994044324+994596938+995756587+997389873+997674713
2160+995415302+991642531+988143895+985683710+984589937+985479494+988021350
2150+990191453+990415657+989688771+989961634+991421096+992854282+993415354
2140+992938200+991815456+991111178+991625987+992789903+993340869+992778225
2130+991530017+990205976+989153750+988396770+987697956+986833703+985991383
2121+985716199+986302200+987480564+988794724+989926675+990623318+990748258
2111+990432576+989885577+989202334+988450594+987689871+986956098+986422574
2101+986319867+986593329+986973016+987357495+987788162+988207226+988568049
2091+988957319+989259452+988931193+987614114+985896611+984896338+985091122
2081+986089449+987339080+988444456+989113850+989433874+989766925+990035670
2071+989758016+988957169+988313002+988326402+988942197+989992776+991447447
2061+993079385+994358884+995013082+995250012+995023562+993696527+991074197
2051+988184244+986372793+985887852+985885457+985829462+985990260+986398769
2041+986646704+987184495+989207424+992488518+994917786+995063238+993786433
2031+992686746+992346210+992633297+993468130+994562802+994875789+993420595
2021+990964303+989560237+989849719+990246774+989363057+987776409+986721114
2011+986432006+986459704+986809972+987885479+989366651+990387810+991116418
2002+992691388+995307130+997590796+998145056+996912194+994955739+993338549
1992+992286248+991603080+991569692+992352274+993052510+992713396+991661919
1982+990688670+989910355+989368073+989459926+990013811+990311678+990135458
1972+989568622+988491168+987170720+986402287+986421975+986679417+987063222
1962+988094338+989749183+991221146+991930964+991896828+991372587+990759637
1952+990330617+989750156+988509434+986777633+985271908+984604835+985108040
1942+986623871+988214787+988835747+988237544+986962611+985891071+985703773
1932+986421302+987477046+988299902+988697631+988789933+988821523+988914349
1922+988886651+988584219+988358292+988683482+989222022+989022895+987849173
1912+986457234+985544921+984904123+983931548+982659909+981518375+980375420
1902+978688085+976542760+974734004+973651984+972825759+971764475+970657976
1892+970006698+970059699+970762780+971887395+973230824+974683549+976027727
1883+977030994+977803770+978590693+979327760+979909718+980544003+981302855
1873+981785624+981732623+981603940+982072336+982981954+983665048+983955877
1863+984033881+983920618+983557699+983078523+982742853+982728555+983037800
1853+983458585+983688254+983640793+983516302+983553657+983833107+984205908
1843+984385571+984347692+984352408+984502801+984591659+984344398+983705696
1833+982899609+982377688+982547470+983203613+983708841+983876751+983941804
1823+984020780+984115627+984347542+984784423+985192557+985255963+984971047
1813+984599220+984355927+984281741+984300605+984287056+984130524+983858784
1803+983671037+983764312+984145496+984661279+985114703+985282688+985029737
1793+984554379+984347168+984540680+984730524+984697211+984567554+984444860
1783+984227617+983806682+983239546+982624799+981943428+981168407+980509942
1773+980413598+980989792+981544576+981566136+981346273+981173048+981006710
1764+980951988+981332125+982082741+982735517+983127481+983294942+983098211
1754+982529129+981959897+981843116+982183652+982498137+982505024+982339210
1744+982207158+982203041+982332697+982390863+981944176+980915906+980078602
1734+980590791+982090826+983074930+983326084+983258411+983074780+982976639
1724+983111087+983187818+982786721+982039622+981714058+982453371+983606208
1714+984136064+983939707+983390463+982864051+982678474+983055392+983755328
1704+984057387+983726507+983356327+983399296+983304898+982853870+982704974
1694+982823177+982599347+982120396+981847009+981707321+981288332+980885138
1684+981553484+983151586+984156650+984188241+983626270+982951786+982742928
1674+983140956+983550138+983684287+983985821+984566282+984676026+983997274
1664+983031811+982427021+982367208+982415642+982078549+981127384+979629444
1655+978155759+977583009+977197632+975837059+974093506+973072721+973206570
1645+973493357+973274842+972876065+972548180+972335953+972728217+974731983
1635+977885965+980031665+980745900+981018763+981718400+982950064+984108441
1625+984919020+985776087+986690571+987079317+986932068+987017558+987888324
1615+988878042+989235122+989142820+989076195+989277493+989612340+989815059
1605+989825764+989750381+989656507+989508659+989227786+988815834+988438766
1595+988281037+988285753+988166128+987673028+986748438+985385994+983384549
1585+980399824+976416547+972099996+968446026+966157570+965823022+968263594
1575+972774256+976653328+979013350+980982156+983416215+985584896+986585019
1565+986788637+986699554+986259305+985720242+986851295+990978826+994548204
1555+995842151+996115089+996166892+996274166+996462438+996553916+996427628
1545+996146231+995760330+995393743+995814378+997693054+999394462+999588123
1536+999065304+999031393+999758653+1000211254+999833812+999153863+998749472
1526+998708449+998882871+999426801+1000672164+1002372749+1003952061+1005350662
1516+1006618259+1007514627+1007996273+1008303048+1008503896+1008716048
1507+1009792603+1011648596+1012373012+1011837841+1010861373+1009795522
1499+1008728849+1007765781+1006684809+1004983251+1002357777+998489335+992861993
1489+984664722+972506783+954897346+930188005+896100334+852636056+806032093
1479+765240450+734828384+714651714+702808783+696979919+695483626+697406918
1469+702125315+710277820+723790493+742642298+762079730+777826437+790507794
1459+803677236+820651490+837936784+848722848+854158699+857631733+860496084
1449+863082182+865518411+867578546+868646867+867945807+864796241+858961389
1439+849861087+835127006+812540457+784607589+754200987+718988253+676074791
1429+628386113+583163346+543599288+508643546+479076419+457954909+446961335
1419+446705016+456502933+471569915+487020777+500842881+511287660+515829951
1409+512820372+502687121+487271593+469759587+455067015+447492800+449318775
1400+461987181+484734229+513145038+539956585+554862993+550787377+532361260
1390+512856043+506967515+520797031+543459787+558995689+561651743+555767072
1380+550904307+555957814+573161362+596490704+614417433+617290019+604190720
1370+579967368+550783147+523694957+504841841+498283583+506259531+526316164
1360+551451680+576250254+598403029+616269122+628595944+636044994+641644862
1350+649294385+661565737+678535050+698326642+718509151+737543689+755429133
1340+772698857+788797254+802332609+812821555+820853910+827035587+831579562
1330+834594904+836380529+837433129+838260103+839201686+840409994+841906511
1320+843534183+845004499+846371210+848427003+852229494+858070859+864932186
1310+871007713+874589667+874230716+868360529+855070339+832524813+800686522
1300+764193989+733434873+720402948+730922961+760227181+796754899+830228571
1290+856250425+875097664+888270250+896530403+899872582+897924512+890274540
1281+877313132+861435197+847190173+839224518+839181923+844528916+850508548
1271+853190765+851102633+844960557+836691945+828681674+823161455+821574059
1261+824256576+830683493+839955148+851046863+862782594+873870417+883073500
1251+889342538+891893377+890252681+884159338+873361297+857579856+836722188
1241+811076878+781258598+747979036+711723957+672439836+629605800+582908749
1231+533035894+481993359+432976074+390009761+357242613+337862261+333281381
1221+343173023+365886159+398612022+437641957+479121522+519858031+557704886
1211+591570448+621163177+646573166+667961887+685400569+698516636+705940008
1201+705220533+693916666+671899799+643694367+618407485+605802858+610825560
1191+631139148+659647461+689240939+715663665+737440533+754570943+767461084
1181+776345490+781217350+782275939+780299123+776167025+769766010+759458898
1171+742775399+717573108+682612126+637871567+585817192+533178277+490354721
1162+466677357+464506580+477702297+496246954+512590067+524242143+532219775
1152+538733866+546028405+555784476+568538261+583447850+598658637+612085670
1142+622310549+629246998+634122451+638527187+643004387+646333241+646289224
1132+641419760+632571211+623003187+616772328+616533788+622599881+633707804
1122+648191929+664458310+680998977+696552995+710408225+722441898+732723857
1112+740993517+746508420+748286858+745296594+736455681+720952941+699335599
1102+674917986+653892484+642703077+643954130+654817897+670037967+686377486
1092+703769231+722860288+742749797+761330237+776979476+789421508+799266661
1082+807188299+813591860+818745565+822957463+826629624+830161198+833709316
1072+837097609+840098728+842751826+845291361+847818320+850003620+850842870
1062+848421763+839990930+823287594+799481433+775210844+759848242+758896403
1052+770034381+785869871+799753548+808797106+813099434+813896838+812413346
1043+809283019+804120255+795228363+779652112+753996097+716507183+669967449
1033+623266356+589181343+578438474+593809497+628836992+672145188+713628459
1023+747910090+773930596+792919245+806793190+817243883+825346980+831690279
1013+836639618+840296208+842138202+840318666+830639026+806817520+764947450
1003+711203533+664515503+646686129+665998171+710760365+759696277+797551030
993+821237790+835209651+844660295+852479300+859496410+865596565+870543209
983+874362918+877338435+879760141+881773639+883470780+884959661+886261394
973+887325448+888218447+889104560+889982063+890638357+890927614+890938768
963+890836660+890647041+890290709+889824484+889543087+889727616+890318632
953+890941239+891236560+891041326+890266679+888821141+886787881+884542170
943+882521411+880935886+879872206+879620903+880646329+883104043+886459547
933+889659044+891695224+892079778+890916685+888696425+886063166+883524155
924+881011718+877522889+871190969+859976259+843142293+823088617+805677483
914+797467637+801515367+815583573+834233557+852361771+867211136+878276799
904+886219922+891895623+895992836+899047780+901375912+903003882+903896358
894+904170119+903884230+902744494+900345994+896896017+893666650+892481175
884+894402220+898824773+904006850+908449241+911651807+913866452+915573175
874+917130703+918589566+919763139+920510761+920878172+920938209+920525733
864+918993658+915038603+906775681+892370832+871570207+847626530+827442673
854+818081337+821857851+835032009+851437330+866729714+879209475+888229901
844+893277381+894229145+891270995+884045027+871098143+850303208+819794647
834+778924177+729226943+675069277+623209463+581218570+555583291+549935849
824+563539664+591161678+625331057+659659139+690899302+718891235+744953587
815+770014394+793857160+815640391+834591161+850214200+862328721+871191118
805+877509564+882213588+886122829+889756811+893294299+896546722+899117623
795+900945245+902614163+904752152+907221394+909292384+910574054+911452756
785+912588375+914178916+915815420+917036305+917900034+918787719+919705123
775+920185796+919972820+919376564+918809503+918364688+917965611+917621183
765+917471613+917735643+918499884+919466021+920082714+919896464+918511936
755+915234735+909194542+900466293+891330658+885674046+886090565+891699341
745+899406506+906797614+913098318+918057838+921292519+922947290+924058655
735+925621273+927653261+929654631+931518409+933358681+934969135+936197730
725+937363443+938729929+940084887+941203438+942150112+942881864+943128377
715+942829612+942240318+941431385+939672635+934968311+924399490+906684951
705+885950053+871500214+870914737+883242458+900442787+914685416+923097832
696+926907959+928567445+929973907+931866730+934040128+936082221+937831914
686+939283066+940486284+941537985+942432333+943042887+943374515+943597821
676+943733242+943531196+942672407+940867319+937784303+933091657+926371890
666+916902755+904922532+893495072+888092459+891905505+902174139+913560351
656+922607053+928417427+931634741+933450908+934791718+936061785+937365389
646+938529081+939134620+939078700+939025849+939864051+941594055+943166555
636+943730996+943253317+941183900+936233363+929451911+925569919+928388905
626+936140163+943878993+949118114+952672221+955572280+957733175+959028994
616+960088706+961547644+962906719+963023275+961842066+960616166+960265300
606+960598275+961040021+961050202+960146647+958496219+957265528+957643943
596+959556006+961818037+963540405+964836673+965935387+966454238+966081662
586+964832930+962035878+955939690+944936908+929453857+913187476+902096809
577+900862600+909363426+922916897+936401797+947161585+954650759+959250129
567+961466571+961591362+960037802+957598353+954588101+949782567+940923389
557+926191703+904794672+877416439+847903735+823672746+811791338+813516027
547+823192298+832490602+835593531+831294946+821320734+807786127+792844610
537+779711775+772122064+772248352+779951999+793846456+812164588+833038050
527+854505224+874257740+890356361+902573215+912046092+919958822+926766998
517+931852956+934046491+932936174+929294032+924432054+919644187+915995757
507+914372802+915670268+920623275+928969816+938715107+947278590+953856798
497+959647858+965965630+972625959+978263632+982176016+984847529+986443834
487+986694090+986472880+987075948+987476297+984867666+978020937+967785540
477+955052829+939753034+922006156+904866013+894913287+896656840+908230651
467+924677444+941970524+958128209+972411412+984005284+992059199+996896623
458+1000268297+1003592735+1006718271+1009511805+1012818052+1016932183
449+1020541835+1022383006+1023050828+1024039124+1025380233+1025594705
441+1023986947+1021660986+1020449084+1021813025+1025859484+1031144867
432+1036003028+1039232918+1039616049+1036243327+1029540328+1021551466
424+1015027681+1011563031+1011138503+1013480184+1017896000+1022399251
415+1025918847+1029491744+1034912773+1042095098+1047880019+1049226368
407+1047204038+1046017963+1048106919+1051903570+1054244878+1053410119
398+1050806803+1050798718+1056161432+1064872463+1072069461+1073741823
390+1070412519+1066441370+1065116805+1065863679+1066257964+1065427697
381+1063604792+1060155114+1053927099+1045250952+1039304633+1042776694
##END=
