##TITLE=X7447
##JCAMP-DX=5.0
##DATA TYPE=LINK
##BLOCKS=1


$$ === CHEMSPECTRA SPECTRUM ORIG ===
##TITLE=X7447
##JCAMP-DX=5.00
##DATA TYPE=INFRARED SPECTRUM
##DATA CLASS=XYDATA
##ORIGIN=ComPlat
##OWNER=
##XUNITS=1/CM
##YUNITS=TRANSMITTANCE
##XFACTOR=1
##YFACTOR=9.2344105e-010
##FIRSTX=3997.453
##LASTX=373.96442
##MAXX=3997.453
##MAXY=0.9915372764600341
##MINX=373.96442
##MINY=0.18708767091335055
##NPOINTS=2559
##XYDATA= (X++(Y..Y))
2559A067089817A067127125A067350326A067547902A067725404A067739475A067429459
2552A067146100A067478450A068433218A069506493A070483142A071451916A072108868
2545A071853652A070666711A069273932A068356343A068024511A068086992A068352793
2538A068625953A068767115A068822625A068964175A069327699A069881893A070353985
2531A070362698A069742345A068732583A067819835A067390473A067530087A068078213
2524A068732648A069140386A069200285A069321309A069931336A070652705A070805873
2517A070536909A070403492A070355469A070029640A069638102A069643137A069881764
2510A069964706A069981811A070209723A070577702A070685946A070219018A069186924
2503A067979006A067273128A067538607A068618788A070044873A071467859A072531000
2496A072680812A071585398A069752026A068381581A068160187A068636989A069283743
2489A070045647A070844794A071401957A071464890A071072513A070689431A070652640
2482A070596549A070056426A069125541A068244614A067532604A067013717A067200643
2475A068320068A069619448A070170996A069519015A067947185A066492183A066348632
2468A067656468A069159750A069812377A069546511A068843925A068232737A068016055
2461A068257136A068777249A069227911A069317630A069281291A069742603A070564534
2454A071373299A071984939A072111127A071398795A069919847A068374868A067509819
2447A067686999A068904083A070575056A071780134A071951956A071189407A070187714
2440A069665470A069801792A070245805A070501989A070321776A069807665A069371720
2433A069304140A069500490A069908422A070560662A071204446A071381754A070770179
2426A069491324A068448902A068675395A069559033A069422905A067854367A066532977
2419A067151588A069256699A071458887A072612909A072501567A071874371A071468634
2412A071392211A071388661A071305332A071143837A070890945A070451449A069753317
2405A069015102A068704247A068960238A069509591A070088829A070526259A070657481
2398A070466941A070209207A070191845A070563760A071172044A071514139A071093491
2391A069931530A068738521A068198269A068187490A068101966A067476836A066492700
2384A065939538A065907975A065686582A064884853A063938799A063683196A063977978
2377A063983400A063180187A061868349A061111544A061558269A062881725A064786743
2370A067018364A068948039A069901903A069680703A068765954A067905423A067499169
2363A067495684A067731600A068106807A068349501A067992690A066933421A066059594
2356A066512580A067993206A069329894A069801856A069355067A068453614A067790014
2349A067764454A068291539A069094171A069932885A070813683A071941628A073184402
2342A073741823A072986826A071588367A070413174A069452532A068419147A067279712
2335A066284861A065679094A065508563A065917141A066923223A067668345A067319795
2328A066143827A065694973A066874684A068602329A069599891A069502943A068757369
2321A067958287A067287845A066820982A066902246A067439528A067472770A066267821
2314A064271793A063000425A063086014A063720051A064682307A065978008A067139259
2307A067775362A068001532A067907360A067246342A066072697A064938233A064026904
2300A062866944A061581183A061578149A062965183A064220285A064710255A064885692
2293A065339775A066064694A066470173A066074827A064866651A063359625A062488057
2286A062796330A064146121A066195012A068178841A069026269A068459423A067164303
2279A065935859A065034407A064306777A063527639A062581133A061704143A061231600
2272A060989681A060552122A060066670A060371135A061731576A063273585A064062534
2265A063917950A063497819A063496657A063783371A063897102A063911108A064048656
2258A064045365A063578114A062893860A062575130A062676726A062727653A062517232
2251A062136861A061818648A061871576A062302358A062541566A061998410A060962314
2244A060402827A060621445A060968123A060898606A060510877A060219838A060437036
2237A061361726A062583328A063177734A062645938A061523156A060683280A060422383
2230A060548637A060789781A060820828A060342024A059460516A058775293A058828673
2223A059457353A059912598A059719669A059200201A058946728A058906129A058413383
2216A057219858A056055896A055826305A056498296A057254326A057494051A057267429
2209A056934176A056666116A056393924A056089589A055882008A055907762A056136450
2202A056370365A056426262A056322472A056224168A056167690A055989220A055612915
2195A055224476A054983718A054678156A053974022A053048041A052634171A053168872
2188A054152234A054697133A054348196A053161836A051545340A050202520A049676404
2181A049786907A049926779A049840480A049730623A049787230A049960666A050089694
2174A050090145A050023017A049941818A049693961A049002541A047807274A046475104
2167A045601858A045433393A045432682A044843569A043716204A042825208A042550628
2160A042447806A041983654A041139841A040213409A039456088A038938556A038466659
2153A037709983A036613472A035511732A034717620A034230618A033868256A033394099
2146A032601730A031542010A030535669A029777509A029081184A028127836A026811545
2139A025206667A023260405A020709731A017451695A013869508A010498452A007473040
2132A004603767A001786517I98960812I95860269I92059528I87124839I80757547
2125I73109786I64796295I56169432I46781505I35896234I23148094I08227263H90313035
2117H68318195H41850817H12461947G84463532G63725730G54338641G56173304G65668313
2109G78024593G88489023G93310562G91043053G82849424G71236846G58765803G47553347
2101G38869232G32850037G29039098G27276921G27805942G30706263G35680454G42330847
2093G50327415G59457416G69761707G81411850G94315031H08002318H21818957H35089469
2085H47414509H58992038H70295053H81289923H91336351I00004266I07610265I14732813
2077I21577684I28115895I34347059I39995888I44503152I47831478I50793182I54189024
2069I58037465I61758168I64788162I67010295I68772924I70501214I72385964I74487073
2061I76851660I79375031I81766081I83784894I85417656I86788682I88050109I89482713
2053I91496749I94159153I96778439I98428434I98948290I99068604I99541470A000497012
2045A001649808A002749095A003674817A004403221A005143567A006224329A007549140
2038A008528436A008846262A008855104A008947276A008999172A008707035A008172722
2031A007965464A008616090A010012031A011388028A012109332A012391141A012945400
2024A013934248A014696862A014735589A014519489A014781934A015453021A015866310
2017A015623100A014835120A013967360A013688779A014380521A015652469A016725163
2010A017264446A017551032A017917783A018371156A018803293A019257634A019779749
2003A020224601A020467231A020642474A020946357A021323501A021536891A021525983
1996A021592659A022106253A023054244A024056453A024758523A025011867A024873480
1989A024599029A024329226A023827056A023010417A022484688A022851956A023777936
1982A024436179A024614520A024766010A025111591A025298000A025013609A024507890
1975A024333809A024809256A025771899A026694974A027148734A027242262A027363544
1968A027578096A027709835A027753662A027718678A027498446A027280021A027496122
1961A028156301A028832100A029252748A029360476A029092932A028589536A028233563
1954A028256606A028674285A029509190A030607122A031436476A031535942A031069402
1947A030690838A030934242A031797161A032787687A033373251A033390678A033010501
1940A032473670A031974921A031612236A031377417A031285761A031391230A031530520
1933A031325909A030675799A030018202A029865744A030207839A030571621A030645204
1926A030614609A030748736A030968774A031140080A031422664A031889591A032160879
1919A031874487A031236383A030788884A030849170A031270593A031532909A031086894
1912A029873618A028552292A027979896A028336966A028975458A029241711A029075117
1905A028594699A027651291A026189513A024603418A023412217A022821361A022623656
1898A022358435A021704840A020730257A019549512A018006341A016089059A014363029
1891A013576016A013919338A014833635A015572109A015919367A016148765A016432833
1884A016829857A017630811A018960592A020279788A021040659A021499841A022214497
1877A023176494A023929104A024141590A023798204A023120146A022341202A021465761
1870A020420564A019224393A017569169A014648000A010062765A004473125I98749423
1863I92985379I86777839I79748624I71478057I61958132I52634816I45979324I43245404
1855I43156136I43206289I41897807I39572787I37495173I36435582I35947806I34538568
1847I30415032I22748359I12695734I02520665H93241240H83962331H73993294H64531267
1839H57352241H52492103H48083272H42447353H36113108H31718736H31707698H36078576
1831H42752980H50136617H58642069H69378819H82005354H94484013I04713301I12043172
1823I17407351I22245221I27187010I31687948I34909967I36641872I37104281I36248591
1815I33772662I29686886I24437534I18524647I12375972I06576105I01726230H97861653
1807H94405396H90978184H87886742H85515959H83532582H80866887H76348522H69482545
1799H61012207H52912106H47591043H46520027H49162615H53485922H58005643H63118738
1791H70066624H79039002H88862940H98167472I06232913I12950627I18507348I23157195
1783I27129499I30700455I34225841I37920984I41678802I45243626I48492754I51433158
1775I54073487I56431748I58506393I60120888I60955923I60764349I59356661I56427036
1767I51654745I44935740I36292934I25589555I12421671H96245932H76787307H55003145
1759H34237266H20093313H17924947H29354472H50989467H76672608I01095162I21711940
1751I38210216I51087384I60871690I68107581I73435421I77477500I80719400I83454353
1743I85785247I87836461I89934279I92340304I94909244I97311785I99428837A001242715
1735A002629491A003586841A004408321A005365412A006357552A007052844A007321486
1728A007390679A007523193A007724125A007951522A008389662A009227343A010377234
1721A011662543A013061260A014564606A015986754A017038728A017478740A017191703
1714A016244164A014917545A013683098A013045769A013265549A014197532A015468125
1707A016838958A018380774A020279143A022485140A024629301A026330998A027502383
1700A028272936A028731666A028896195A028891418A028972617A029281600A029720386
1693A030171435A030687611A031358956A032184051A033139529A034147806A034973094
1686A035403940A035514960A035538325A035552009A035447767A035125423A034636098
1679A034169170A033884328A033757753A033696757A033794221A034250111A034982518
1672A035567758A035729253A035687814A035803223A036034105A036019195A035598482
1665A034941595A034223260A033534810A033096154A033149340A033575087A033974628
1658A034191374A034448139A034935205A035524577A035929927A036023455A035984662
1651A036150998A036686280A037437082A038108040A038447295A038265339A037469097
1644A036165005A034628417A033110999A031755593A030711622A030160075A030145487
1637A030563295A031356633A032447981A033500278A034167750A034594401A035223856
1630A036124663A036932137A037420945A037713921A037913175A037920727A037726378
1623A037575856A037708305A038118174A038638739A039094758A039373469A039500496
1616A039595185A039674448A039647145A039521603A039458928A039633784A040095096
1609A040641673A040891209A040691955A040360768A040300740A040543563A040834409
1602A040955497A040847318A040560539A040179845A039735509A039242957A038896924
1595A039058419A039837750A040824468A041489488A041734829A041752643A041554615
1588A041073036A040596168A040621406A041238403A042010183A042553920A042932032
1581A043321440A043657145A043874343A044159895A044653416A045220777A045723980
1574A046144498A046311738A045936853A045105369A044427246A044466942A045176305
1567A046066333A046761883A047134186A047116952A046756784A046279658A045817765
1560A045288422A044650898A044032933A043635134A043683996A044251551A045061413
1553A045816926A046586769A047464727A048198231A048684199A049402147A050728830
1546A052115154A052566914A051856840A050698945A049806013A049377749A049440423
1539A049974220A050620457A050819195A050322641A049310427A048179835A047429485
1532A047433164A048105865A048952582A049476311A049507938A049304230A049347025
1525A049860813A050604708A051270890A051828375A052327705A052707495A052920950
1518A052916431A052532510A051840446A051430254A051830764A052791728A053611143
1511A053995322A054247052A054801827A055784285A056834001A057366701A057150084
1504A056423809A055378031A053975828A052414004A051262499A050948417A051382426
1497A052096888A052576918A052594668A052372500A052327770A052694263A053496250
1490A054633684A055715866A056094624A055465233A054301723A053365544A052882545
1483A052485973A051926615A051531398A051795134A052636107A053332948A053337854
1476A052938313A052802120A053031776A053117816A052789211A052368692A052198806
1469A052263353A052508435A052976266A053479081A053664006A053513678A053334691
1462A053278665A053258591A053189268A052992080A052536577A051829215A051179105
1455A051026969A051550956A052431883A053127756A053363285A053202888A052767846
1448A052111153A051257077A050301147A049575260A049453655A049786003A049934783
1441A049605597A049201408A049272796A049965958A050940865A051644096A051872009
1434A051975799A052223269A052295368A051795586A050842432A049847968A049134345
1427A048978465A049587717A050828296A052232822A053317651A053744043A053384714
1420A052526572A051816305A051707997A052087787A052584406A053001762A053324751
1413A053609271A053974215A054465347A054963774A055235965A054852496A053504835
1406A052007427A052049317A054020688A056169820A056787786A056107791A055323812
1399A054838425A054231819A053344760A052630556A052549163A053105100A053897792
1392A054519631A054988495A055560568A056175823A056534248A056698389A057160347
1385A058115889A059061104A059389903A058960025A057860221A056257667A054687516
1378A053796778A053646127A053772444A053950979A054311017A054796728A055140114
1371A055227639A055145213A055024512A055015798A055285537A055905632A056688836
1364A057188682A057080761A056583755A056318986A056726209A057678395A058521175
1357A058460501A057212952A055392877A054026756A053624245A053894049A054270418
1350A054433268A054328445A054021334A053620695A053208439A052883319A052867957
1343A053241680A053578224A053379034A052821936A052481390A052517342A052820258
1336A053623406A055145858A056836453A057695177A057329070A056255796A055202788
1329A054516081A054306047A054649046A055392361A056297428A057575185A059565404
1322A061701691A062713711A062212703A061227921A060737757A060396695A059319095
1315A057621336A056371204A056191507A056693548A057223860A057535167A057786703
1308A058247176A058907549A059446316A059650282A059412107A058396665A056586982
1301A054993013A054800278A056005033A057573894A058745150A059751813A061223145
1294A062888696A063381894A061933218A059493887A057433764A056181116A055682948
1287A055869809A056139677A055472979A053562281A051328981A049930264A049363032
1280A048642696A047691607A047969608A050339229A053674333A056512625A058438620
1273A059065364A057495600A053827889A049878563A047534114A047245657A048446088
1266A050321285A051811787A052513598A053837248A056863886A059121713A057439767
1259A053359670A051109008A052722922A056973033A060769966A061755716A060444975
1252A058860172A057463843A055388423A052633267A049968863A047923715A047312979
1245A049230260A053360251A057629985A060278833A061154209A060835609A059712505
1238A058101882A056478609A055360604A055099902A055494344A055689660A055212987
1231A054891482A055695986A057036870A057487209A056864531A056295491A056482095
1224A056987685A057123491A056894222A056845619A057100060A057020539A056257216
1217A055615174A056072678A057332750A058337218A058874307A059610199A060744470
1210A061743904A062263953A062227742A061354303A059862446A059081953A059953198
1203A061495207A062053919A061448088A060650297A060074803A059534422A059383190
1196A060326146A062122403A063511180A063536482A062175073A059889942A057537619
1189A056410319A057236576A058879084A058865529A055971986A052010460A050310313
1182A052230821A056066546A059533131A061891779A063220786A062886695A060119469
1175A056184472A054249053A055740846A058421774A059783570A060184919A060944499
1168A062164100A063868960A066569574A069507977A070459001A068285213A064309810
1161A060683409A058781619A059367376A062261952A065479324A066989706A067473609
1154A068778411A070277756A069869888A067689000A066045394A066590874A068819785
1147A070572086A069992461A067546869A065625779A065925338A067943312A070136980
1140A071230845A070369153A067617870A064387201A062398984A062522009A064881561
1133A068818171A072213304A072839789A070803033A067807958A064693344A061556268
1126A059364278A059277915A060699352A061919921A062394982A063015142A064313231
1119A065363205A064672754A061687555A057543170A054590244A054710171A057660322
1112A061263164A063499820A064105199A063914594A063473549A063039411A063182446
1105A064198016A065338742A065560910A064776544A063619682A062534143A061777274
1098A061532838A061470938A060970640A060063636A059472457A059517511A059832819
1091A060248303A060937657A061494820A061033573A059556238A058288098A058201671
1084A058858429A059354854A059525643A059598516A059510217A059039610A058241044
1077A057447061A056932176A056726467A056693677A056662114A056487065A056160783
1070A055973535A056406188A057563954A058705583A058756317A057615397A056249212
1063A055311420A054631231A054026110A053636057A053521230A053547629A053497928
1056A053270661A053270080A054048831A055526746A057068626A057971886A057931997
1049A057374705A057105934A057474170A058224649A059019278A059595353A059743487
1042A059553850A059367828A059400165A059694044A060194342A060712584A061112835
1035A061324741A061137040A060296842A058831384A057014666A055195817A053856676
1028A053407370A053735523A054378856A054900518A055053816A054832357A054358459
1021A053916317A053871522A054175599A054363042A054177084A053651355A052885901
1014A052248120A052193707A052587633A052838653A052644627A052223140A051995550
1007A052187575A052648048A053079217A053268144A053043910A052470159A052051318
1000A052030922A052073458A051820178A051139280A050117448A049013837A047995426
993A047020133A046173802A045655819A045321921A044759078A043855108A042957141
986A042414759A042271724A042146827A041571204A040542401A039374373A038248557
979A037187288A036183142A035246964A034521593A034011549A033220599A031639603
972A029710510A028382019A027815884A027621729A027410147A026944317A026215848
965A025327240A024422430A023584427A022503084A020811972A019238012A018519032
958A018181778A017718336A016862388A015213296A012686505A009746423A006452952
951A002195546I96619203I90132242I83437764I76779626I69714654I61664834
944I52612418I42718900I32004418I21609698I12915514I03307226H85688233
937H55405462H17555484G75417441G28623808F85788343F51612272F17342932
930E74477131E25582259D76587566D23773511C65128607C22041638C07173283
923C06548282C09582988C17868498C39216908C74148202D12761859D51854965
916D96756232E44683943E84135055F13659343F40602621F70507344G01571447
909G28047151G48528125G64604010G77414825G88654971H00025823H08721557
902H14059337H19697645H27497025H36117433H44138852H52805992H63006363
895H73849098H83812842H92499410I00861311I08339315I12879626I14914059
888I15843138I16232545I16373901I16686241I17239531I17970130I18886235
881I19524855I19459212I19065092I19066383I19445463I19716622I19737664
874I19719591I20131912I21049760I21813729I21977483I21693157I21090166
867I20179418I19039790I17706200I16358023I15316053I14430543I13211136
860I11607743I09958199I08610538I07833789I07518997I07223956I06760449
853I06116278I04993561I02988884H99970314H96432406H93014876H89272421
846H84158229H77857742H72357628H68374544H64879688H61446022H58015841
839H53782899H47766544H41234336H35834527H29655386H21117016H09422852
832G93276030G71655364G45313657G14644642F77424571F32447720E81580573
825E21977480D53408722C96621039C58254691C24065937B83302923B40814539
818B12284489B02598391B08480425B29028639B61112104B98718243C43079451
811C96974914D50214103D94900140E36721229E77959852F13686452F42808746
804F67730113F89548419G11461673G40923222G73456075G94934545H07345948
797H16849155H25965665H35451316H45252726H53961821H60012514H63517181
790H65725889H68035676H70887264H73195180H73712711H71467987H65506948
783H55942551H45077290H36462303H32745731H34646424H41370012H51521328
776H62254528H69771066H72951389H72332906H67503105H57846149H44847376
769H30451629H14178167G94051036G71291904G55166253G49785873G48943867
762G49433321G51831795G55576380G56244434G49654650G38959855G33453738
755G40859128G61458930G90515000H24491752H58649233H84068381H98134038
748I05803422I11338585I16108939I19980164I22960587I25538822I28007392
741I30063126I31310869I31911407I32443784I32746764I31528325I26782563
734I15119574H91728405H53621404H03292509G48906365G04050023F83051647
727F89445404G15859273G51229707G81292053G92755529G81727417G56365006
720G31639021G18148986G19717782G38071440G70929606H08684959H42031030
713H68198333H87671674I01140150I09284014I12252689I08035238H91469575
706H56988265H04265027G41361362F83186871F40055914F06945502E76976748
699E61652374E77629892F13788113F42280758F52420972F56879245F74502046
692G11538935G59501372H05881587H42723030H68612268H86090614H98062069
685I06404154I12321818I16664037I19907421I22136654I23318237I23692412
678I23659364I23389496I22922504I22468422I22222178I22149111I22157567
671I22158535I21988004I21528435I20800418I19890768I18891915I17822383
664I16614013I15254282I13723762I11747292I08855556I04678252H99176202
657H92879975H86761443H81247323H75215993H66388714H53244777H37025598
650H21498614H09617459G99910673G86537984G63209424G27248263F80675119
643F28770133E78066031E34322271E00730021D77329686D61618003D49231935
636D34619377D12901149C83232439C51127786C26524148C18176803C28437654
629C51806361C77631504C94758751C96080174C81458612C57218305C32539922
622C15230558C09008656C13478095C26220232C44962911C68423080C95957568
615D26851205D59904784D93530372E26044991E55714250E80629355E99033682
608F10336115F16021413F19373944F24086917F32994749F47601885F67844424
601F91857174G16530683G38971344G57643150G72368664G83657801G92106194
594G98075107H01615791H02668798H01395107G98254352G93748766G88207278
587G81831078G74877706G67754577G60623121G52452665G40995127G25273664
580G08516622F96874611F93756060F96093602F96957166F90889819F76149718
573F53335269F23552087E87872863E47670820E04953443D62142118D21479957
566C84672337C52779137C26070162C04062477B85918788B70869349B58364323
559B48036424B39692823B33449814B29837613B29657012B33751455B42956280
552B58030247B79187132C05205753C32554510C55264329C66309610C60720003
545C39187636C09237730B81825847B65454823B62758372B71683277B88785416
538C11441403C38114135C67642264C98756906D30169236D60785421D89783689
531E16732163E41694549E65064482E87225722F08352351F28447660F47512166
524F65632425F82882536F99201245G14458620G28650788G41968871G54629422
517G66650191G77840507G88030357G97277380H05850992H14030679H21918939
510H29471752H36682600H43645009H50435144H57056103H63500593H69769388
503H75817693H81513318H86628994H90922481H94329102H97079224H99512811
496I01713902I03431090I04482290I05186812I06241820I08148581I10881339
489I14156738I17865178I22003366I26260449I29999418I32626708I33648927
482I32497229I28589212I21157617I08400505H86624734H50454766G95746085
475G25881174F56075193F07239445E91584078F04514303F31038546F57842598
468F79368187F97046756G15690097G38783644G65243147G90685596H11377957
461H26304339H36503807H43708780H49231163H53328106H55474075H55111067
454H51862455H45118728H33621882H15302304G87180800G45467729F86854389
447F11819001E28206676D51011475C96493238C74282232C83575599D15817510
440D60554797E09649020E58229487F03898661F45727979F83458159G17075905
433G46760332G72783826G95281804H14284604H29977214H42799582H53320812
426H62031069H69188343H74893262H79262461H82389339H84282803H85116547
419H85391449H85620266H85979272H86363709H86613051H86647519H86506357
412H86256240H85905689H85518347H85299600H85416816H85877999H86654555
405H87671352H88583067H88779481H87666511H84719071H79284343H70872677
398H60137540H49369614H41334899H37231307H35825878H34656622H31944260
391H27358057H21296907H13889581H05035644G95581880G88356122G87406195
384G95275995H10714293H29401978H46958683H61069330H71417060H78744801
377H84099363H88256915H91541028H94108161H96104188H97479475H98025536
370H97735401H96883197H95631129H93788592H91159172H87890938H84144868
363H79520582H72946935H62763604H46505052H20799578G82484867G31679749
356F74852080F22994665E84217545E59121194E45303910E43996074E58784327
349E89056512F28129899F67796079G02823579G31630113G54751544G73333953
342G88335532H00451570H10339021H18627533H25745046H31883652H37145267
335H41598699H45116017H47215384H47117596H43908357H37038895H27549114
328H18786123H14526394H15473933H18271818H18823818H16410111H14169518
321H15900002H22774241H32890831H43317630H52119607H58800788H63644983
314H67091817H69618608H71777680H73991551H76427333H79272660H82816184
307H86964441H91006262H94141595H96103737H97261761H98234472H99272440
300I00011172H99964570H98991793H97023779H93658596H88261433H80168755
293H68557403H52229206H29667715G99455816G61303245G17972646F77126883
286F50201550F46695398F67708103G05145243G47393337G85688232H16296445
279H39005361H54993593H65503592H70979566H70493661H61696203H42009730
272H12256561G80691127G60927198G61938573G80150940H03597425H22453769
265H33450705H36948788H33844566H25095001H12022258G96691300G82198992
258G71861267G67755351G70180160G78186088G90287087H04795726H19843067
251H33629240H45063219H54055542H61007107H66149442H69446851H70967689
244H71228069H71015647H70780311H70437442H69839292H69010712H67862821
237H66288474H64585422H63127903H61618167H59243446H55596261H51113654
230H46618202H42568313H38779384H34805466H30425358H25726521H20898721
223H16008763H10944917H05534458G99566190G92757336G84977772G76429075
216G67433717G58145578G48449184G38287089G28169531G18566278G08524626
209F96196488F82762480F71698674F62653358F53603136F44142336F35122968
202F26993240F19455143F12328722F05838275F00096823E94711666E89049476
195E82599629E74978526E66304286E57867512E51546499E48015433E45888763
188E42738132E36874494E28351389E18352951E07701241D96274491D83799963
181D70704822D58202829D47703641D39835100D34065893D29627629D26587953
174D25788903D27869583D32427257D38318522D44710406D51300158D57785021
167D64007085D70442861D77752367D85994857D94766046E03810361E13063290
160E22306634E31210110E39622905E47521847E54896320E62036553E69656882
153E78218811E87272260E95785844F03100934F09537937F15920979F22519863
146F28809313F34328855F39276131F44082115F48872607F53679817F58728495
139F64022965F69057313F73562640F78060803F82992587F88025064F92918185
132F98087112G03466266G08053955G11577598G15341225G20398874G25977025
125G30608734G34169169G37863602G42431797G47359644G52015235G56573684
118G61345394G66100902G70564726G74699365G78186991G80558807G82063122
111G83718023G86264630G89157851G90683466G89838233G87961034G87596542
104G90522165G96958909H05294539H12273795H15136098H14479017H14157706
97H17620289H24831330H33415269H41728373H49225031H54596504H56365136
90H55748396H55850508H57918505H60707355H62936523H64839992H67136934
83H69806373H72326516H74043059H74057388H71744697H67581464H62609210
76H57188810H51232290H45632839H42566053H43569102H46958877H47553929
69H40864680H26837362H08864462G91566200G78069840G68243321G60981676
62G58144610G64808428G83258196H06920007H27236645H42590388H54673508
55H63551004H68755754H71752829H75273698H80512464H85810096H88815305
48H89266612H88343923H86562318H83861187H80425585H75810400H67806795
41H53936906H34412121H12253334G90906667G74108508G66124268G68990960
34G82332473H04788561H29697148H48191000H59122228H65019043H67577269
27H67815315H66245615H63186769H59817778H58172172H59641244H63508726
20H66539946H64804362H59678423H59307282H65197191H71041853H74857439
13H78644689H81105515H77856773H68647058H60643131H61957228H71839967
6H82406509H87204747H83749845H73105073H61324352H55330137
##END=


$$ === CHEMSPECTRA PEAK TABLE EDIT ===
##TITLE=X7447
##JCAMP-DX=5.00
##DATA TYPE=INFRAREDPEAKTABLE
##DATA CLASS=PEAKTABLE
##$CSTHRESHOLD=0.93
##MAXX=3997.453
##MAXY=0.9915372764600341
##MINX=373.96442
##MINY=0.18708767091335055
##$CSSOLVENTNAME=- - -
##$CSSOLVENTVALUE=0
##$CSSOLVENTX=0
##NPOINTS=31
##PEAKTABLE= (XY..XY)
423.54303622361203, 0.7074705984724013
460.3728654182951, 0.7001018547102404
619.0244373338542, 0.39319095166466816
736.5965843784202, 0.7089768074705586
755.0114989757622, 0.7026714106946779
776.2594773573101, 0.5971850773592879
828.6711573651287, 0.7518375545799139
835.7538168256447, 0.7521671085280737
869.7505822361218, 0.5023483057704377
917.9126665676308, 0.7271232034873047
1000.0715163096165, 0.3456275773144236
1041.1509411806096, 0.5462930221516019
1138.891641735731, 0.2426418669359706
1158.7230882251756, 0.2120747123011426
1191.3033217435495, 0.640642824490263
1252.2141931039873, 0.28535127775572877
1266.3795120250193, 0.29381752104796316
1362.7036806880374, 0.5186528579815527
1391.0343185301012, 0.6631682536882753
1403.7831055590304, 0.6307579301099093
1443.4459985379199, 0.6773012899451449
1453.3617217826427, 0.6916055109335404
1477.442763948397, 0.7689915922176576
1529.8544439562156, 0.18708767091335055
1680.0068245191555, 0.2830792674057761
2861.394422533229, 0.7553054718788743
2916.6391663252543, 0.7817113425789084
2969.0508463330725, 0.7680330299342029
3000.2145479593432, 0.8709490925417828
3344.431797740422, 0.671597363569007
3364.2632442298673, 0.696587266700613
##END=


$$ === CHEMSPECTRA PEAK TABLE AUTO ===
##TITLE=X7447
##JCAMP-DX=5.00
##DATA TYPE=INFRAREDPEAKTABLE
##DATA CLASS=PEAKTABLE
##$CSTHRESHOLD=0.93
##MAXX=3997.453
##MAXY=0.9915372764600341
##MINX=373.96442
##MINY=0.18708767091335055
##NPOINTS=42
##PEAKTABLE= (XY..XY)
3364.2632442298673, 0.696587266700613
3344.431797740422, 0.671597363569007
3000.2145479593432, 0.8709490925417828
2969.0508463330725, 0.7680330299342029
2916.6391663252543, 0.7817113425789084
2861.394422533229, 0.7553054718788743
1680.0068245191555, 0.2830792674057761
1617.6794212666146, 0.8487024335748266
1610.5967618060981, 0.8493068248186105
1529.8544439562156, 0.18708767091335055
1477.442763948397, 0.7689915922176576
1453.3617217826427, 0.6916055109335404
1443.4459985379199, 0.6773012899451449
1403.7831055590304, 0.6307579301099093
1391.0343185301012, 0.6631682536882753
1362.7036806880374, 0.5186528579815527
1325.8738514933539, 0.8515503433184065
1266.3795120250193, 0.29381752104796316
1252.2141931039873, 0.28535127775572877
1191.3033217435495, 0.640642824490263
1158.7230882251756, 0.2120747123011426
1138.891641735731, 0.2426418669359706
1041.1509411806096, 0.5462930221516019
1000.0715163096165, 0.3456275773144236
951.9094319781075, 0.81752199218858
917.9126665676308, 0.7271232034873047
869.7505822361218, 0.5023483057704377
835.7538168256447, 0.7521671085280737
828.6711573651287, 0.7518375545799139
776.2594773573101, 0.5971850773592879
755.0114989757622, 0.7026714106946779
736.5965843784202, 0.7089768074705586
619.0244373338542, 0.39319095166466816
521.2837367787329, 0.7272989777208491
511.3680135340105, 0.7518266468942313
500.03575839718496, 0.7902331973380557
475.95471623143067, 0.7780600806766756
460.3728654182951, 0.7001018547102404
423.54303622361203, 0.7074705984724013
405.12812162627006, 0.7924714115924606
396.6289302736509, 0.7935196187627261
385.29667513682534, 0.7947531965659276
##END=

##END=

