##TITLE=CML-R82
##JCAMP-DX=4.24
##DATA TYPE=INFRARED SPECTRUM
##DATE=4/3/2021
##SAMPLING PROCEDURE=Diamant-ATR
##ORIGIN=Angelika Moesle
##XUNITS=1/CM
##YUNITS=TRANSMITTANCE
##RESOLUTION=4
##FIRSTX=3997.453
##LASTX=373.96442
##DELTAX=-1.4165319
##MAXY=0.9107821
##MINY=0.46656397
##XFACTOR=1
##YFACTOR=8.4823193e-010
##NPOINTS=2559
##FIRSTY=0.81293374
##XYDATA=(X++(Y..Y))
3997+958386161+958204304+958183083+958398037+958833776+959331072+959656138
3988+959691764+959595566+959571463+959493113+959071778+958378150+957851974
3978+957839185+958331140+958994482+959339645+959090821+958494235+958113376
3968+958210488+958406820+958124549+957341819+956645872+956525150+956957516
3958+957666182+958346108+958704340+958658665+958442658+958416798+958789718
3948+959357282+959633370+959533588+959559236+960029689+960617211+960951622
3938+961027583+960896672+960645389+960619038+961080215+961603089+961373238
3928+960254621+959080070+958775593+959265581+959656840+959635900+959840735
3918+960811365+962116827+962795910+962550951+962000742+961713271+961391648
3908+960413430+959017039+958357983+959234592+961003340+962440488+963252238
3898+963731686+963782912+963171920+962278587+962003905+962543502+962641528
3888+961494452+960137974+959858443+960248156+960407457+961050772+962647149
3878+963491084+962489044+961005097+960510401+960925060+961885571+963496424
3869+964736606+964301991+962965610+962459531+963128705+963782701+963425101
3859+961760140+959075151+956930674+958396420+964320191+968928169+968678010
3849+965891412+962950080+960920001+960056602+959842070+959524945+959438092
3839+960833991+963545050+965322231+964979879+963683340+962870044+962683338
3829+962590442+962521930+962408937+961681439+960587627+960791759+962729786
3819+964146204+964390530+965208113+966668871+966800485+965165179+963074879
3809+961990483+962754029+964338461+964426157+963026182+962697041+964516804
3799+966204953+966466706+966335092+966265736+965695852+964725504+964003628
3789+963554466+963054290+962778553+963139175+963700626+963845803+963925277
3779+964651510+965759657+966277471+965760851+964441265+962972777+962235723
3769+962551583+963252309+963773215+964092167+963891478+962878476+961835539
3759+962104530+963692124+964931604+964694656+963484548+962882481+964218652
3750+966072777+965783127+964092237+964227084+967318370+969441837+967819390
3740+964244792+961402540+961017183+963191947+966140727+967807093+967655311
3730+966365378+964976927+964383433+964713628+965206919+965303820+965189703
3720+965032862+964660575+963881500+962668511+961465291+961468734+963650314
3710+966910105+969085783+969319217+967959999+966112268+965235799+965796900
3700+966616450+966695644+966303892+965863726+965255686+964262781+963212185
3690+963129056+964595576+966291033+966746027+966298341+966025556+966297920
3680+966410842+965606048+964596771+965170027+966826204+966857404+965669150
3670+966072636+968440922+969917420+969489831+968692205+968590384+968744344
3660+968243676+967113535+966409999+966649758+966581948+965115007+963335437
3650+963707091+967325748+971252466+972310440+971013761+969242905+968174671
3640+967878978+967780250+967601134+967577734+967618279+966907576+965195113
3631+964211203+966439934+970594113+972252046+970902033+968748350+967140518
3621+966455252+966792545+967624112+968056900+968172634+968618914+969210159
3611+969234613+968976865+969460599+970649415+971424555+971329059+970904633
3601+970640210+970378878+969917139+969667121+970202572+971241785+971656655
3591+970893109+969777373+969623273+970419915+970743013+970118179+969308045
3581+968868159+968783625+968923180+969203414+969487583+969639013+969526512
3571+969054443+968542109+968878980+970485828+972113405+972363282+971477890
3561+970397008+969585116+969049805+968787490+968836046+969131669+969535366
3551+969842653+969780184+969225759+968465446+968069338+968330318+968967590
3541+969579565+970074401+970552865+971006242+971233563+971012707+970332641
3531+969470437+968777301+968359971+968105878+968010312+968210860+968714269
3521+969355476+969941241+970273334+970233280+969942927+969595095+969142771
3512+968450197+967647722+967018109+966663039+966597548+966914181+967513648
3502+967969063+968038138+967996750+968168839+968463689+968523488+968127169
3492+967379996+966666693+966377535+966504581+966638515+966557986+966574780
3482+967084865+968007079+968903012+969431227+969448934+968987968+968384214
3472+968106370+968228919+968366436+968277054+968245784+968670281+969480907
3462+970181702+970399889+970228783+969971246+969746103+969506836+969242624
3452+968934353+968545693+968272838+968475705+969059924+969334185+968858462
3442+967991409+967318300+966960418+966767107+966850166+967441622+968307761
3432+968768095+968450478+967776455+967486524+967816228+968337907+968559115
3422+968445981+968259908+968117683+967982907+967935475+968088240+968300172
3412+968279162+967962037+967556302+967246274+967090908+967157453+967478724
3403+967881086+968172985+968482310+969048962+969709704+969994927+969738303
3393+969206997+968670491+968191817+967846233+967840049+968247541+968747507
3383+968903504+968720734+968597692+968722701+968916785+969043200+969123096
3373+969096464+968888186+968640627+968557428+968634373+968775193+969018184
3363+969428135+969833870+969884815+969446545+968832884+968558342+968869986
3353+969566917+970246420+970666420+970835909+970851861+970817077+970876806
3343+971098787+971314022+971317465+971157532+970972935+970702819+970281415
3333+969953327+970048612+970527568+971009123+971235952+971339389+971552656
3323+971753415+971538532+970851088+970229556+970188097+970621518+971118954
3313+971573386+972092465+972534107+972583858+972252327+971937661+971921500
3303+972006947+971757772+971050793+970314792+970168141+970792624+971725237
3293+972352250+972522723+972505929+972487308+972467422+972569382+972961274
3284+973476207+973714771+973532915+973140320+972808368+972685256+972767682
3274+972894167+972877091+972693759+972506280+972517664+972821860+973336653
3264+973869504+974233991+974304612+974091134+973823619+973816521+974166533
3254+974675493+975068298+975219166+975206659+975218956+975360689+975521043
3244+975492373+975241863+975019531+975148335+975686176+976296746+976500808
3234+976119316+975442061+974918695+974770989+974987278+975486541+976037171
3224+976268779+976127889+976085165+976530602+977226057+977697072+977861783
3214+977914345+977892842+977728834+977546415+977555409+977671424+977552879
3204+977102453+976690535+976738458+977222052+977678732+977656808+977185863
3194+976766636+976769869+976971401+976904505+976471014+975909773+975348602
3184+974677180+973736906+972480281+970998653+969342477+967247468+964244089
3174+960175849+955392338+950412495+945706492+941817087+939317749+938485550
3165+939151563+940875268+943193311+945797771+948575797+951461335+954317851
3155+957009656+959458681+961548770+963141143+964279364+965226102+966185418
3145+967100465+967824941+968409792+969084448+969977570+970970475+971849052
3135+972499675+972890864+972987344+972866481+972860367+973328993+974251558
3125+975244955+975978707+976366593+976463635+976411004+976376642+976408966
3115+976476354+976613871+976809149+976848008+976551823+976097041+975895438
3105+976182207+976781112+977245662+977241587+976780480+976070971+975292879
3095+974626305+974266245+974184100+974088674+973881310+973922487+974527576
3085+975435807+976150445+976566580+976893613+977213479+977434476+977443470
3075+977078421+976136602+974519214+972243473+969321958+965745392+961657055
3065+957502595+953870236+951177447+949700457+949806634+951674321+954773547
3055+958065593+960792251+962826266+964392006+965725717+966912635+967856141
3046+968381263+968424619+968188655+968124148+968631562+969697126+970913135
3036+971885662+972528626+972951226+973168287+973030208+972451962+971626017
3026+970936746+970687712+970922411+971483019+972212625+973077499+974121139
3016+975421401+977080810+979069782+981091219+982803048+984132684+985179274
3006+985916188+986203519+986037824+985637430+985295992+985213706+985434633
2996+985840297+986176255+986201060+985855195+985110902+983675442+981112932
2986+977260419+972252046+966208186+959211403+951508134+943486193+935520749
2976+927957245+921153563+915432871+910919756+907292807+903776884+899607105
2966+894439011+888147170+880519440+871555750+861982685+853197269+846697923
2956+843542059+844054885+847760605+853493243+859696896+864959784+868537052
2946+870326740+870382605+868772314+865909051+862506964+858955344+854968617
2936+849953499+843584432+836089440+828226027+821070015+815721047+812975135
2927+812966632+814998890+817924200+820860261+823570898+826318497+829533106
2917+833518288+838275939+843591107+849299573+855355941+861598593+867590455
2907+872826992+877072521+880442425+883211596+885617195+887816061+889979722
2897+892409634+895449412+899168695+903191892+906953055+910072660+912413330
2887+913899665+914447274+914019966+912617954+910204485+906730513+902282889
2877+897238609+892361007+888695973+887057504+887358046+888501959+888998623
2867+887558173+883228601+875532710+864873985+852791604+841671843+833959438
2857+831183029+833415062+839560181+848056720+857380540+866371704+874492725
2847+881741212+888259882+894067146+899040594+903058802+906267016+909144403
2837+912100210+915110475+917962143+920672499+923408715+926139449+928600209
2827+930561635+932075868+933483010+935118176+936969561+938704861+940022199
2817+940889111+941509870+942167801+943007940+943917506+944698619+945318816
2808+945853846+946296332+946618446+946925101+947343344+947837337+948321563
2798+948866852+949606577+950472013+951222349+951769817+952316863+953104511
2788+954151313+955287778+956311390+957049148+957418131+957515384+957565556
2778+957729354+958023782+958413144+958831176+959113308+959100519+958852679
2768+958596547+958476387+958531197+958807847+959231641+959500983+959434719
2758+959312872+959566052+960216605+960863856+961143246+961047961+960858586
2748+960859780+961091528+961358341+961491571+961527549+961565424+961602597
2738+961674763+961961181+962482298+962869341+962754521+962230734+961644829
2728+961165452+960829002+960740322+960952044+961353562+961856198+962499443
2718+963297843+964158501+964955425+965551590+965837234+965874758+965887547
2708+966036658+966329330+966711735+967074395+967281479+967368753+967528967
2698+967770272+967872232+967766056+967643436+967633668+967681381+967747504
2689+967887902+968137991+968461019+968785382+969046994+969248245+969498193
2679+969933020+970529606+971055641+971343394+971510003+971694178+971745756
2669+971477608+971025988+970653209+970437131+970419353+970771191+971547948
2659+972482178+973209887+973622719+973901617+974217900+974451053+974315574
2649+973788484+973250432+973101672+973344944+973657432+973809354+973899439
2639+974145382+974561938+974951862+975139130+975095282+974893890+974652866
2629+974457026+974247553+973872737+973315150+972712380+972107362+971411626
2619+970701063+970255345+970170740+970197021+970068991+969776670+969480345
2609+969403892+969784962+970649696+971643725+972364618+972859946+973468478
2599+974154446+974441004+974143203+973721869+973715896+974210170+974975824
2589+975720608+976162813+976261892+976381350+976869792+977508961+977698126
2580+977210879+976534888+976365048+976883143+977670721+978246156+978456964
2570+978390700+978210038+978126628+978290777+978669037+979171181+979807399
2560+980539183+981130850+981399490+981482337+981644730+981967617+982412984
2550+983020672+983823921+984666238+985231695+985243571+984704535+983996713
2540+983605524+983679587+983981464+984231061+984336886+984343773+984304633
2530+984207169+984018848+983802418+983660826+983550433+983299431+982837270
2520+982317909+982032195+982169501+982625337+983117925+983487893+983747749
2510+983951108+984209699+984658860+985254884+985856038+986525845+987408075
2500+988340549+988982740+989234936+989203034+988910222+988374278+987822453
2490+987521630+987466047+987449464+987378703+987344482+987458529+987744735
2480+988128546+988468228+988697095+988906919+989177104+989416371+989503856
2470+989468862+989430776+989430636+989379058+989206407+989068398+989243228
2461+989723799+990118221+990082875+989663860+989185466+989000869+989296141
2451+989935240+990512291+990661754+990346245+989899894+989765258+990046827
2441+990401406+990552836+990750012+991400776+992351941+992884090+992536889
2431+991707852+991235081+991507093+992167765+992620580+992627326+992428112
2421+992401270+992663936+993047606+993381737+993598447+993598166+993326013
2411+993004321+992999753+993391575+993840455+993917189+993498032+992830264
2401+992235504+991827170+991569773+991486293+991645242+992011345+992444766
2391+992805669+992972629+992847690+992461912+992021816+991729987+991581438
2381+991412300+991125250+990839394+990834265+991287993+991983659+992409491
2371+992291650+991845159+991404359+991146612+991281037+992041561+993304370
2361+994605898+995645532+996363965+996585805+996237269+995835399+995917685
2351+996166227+995967998+995378579+994951412+995041005+995558117+996440840
2342+997895203+999777365+1001392575+1002167786+1002111008+1001599588+1001023380
2332+1000651445+1000638656+1000956203+1001268690+1001074888+1000150284
2323+998850795+997860068+997581591+997892673+998471551+999123018+999774344
2313+1000277612+1000352801+999878061+999188157+998781509+998721218+998621014
2303+998192372+997516381+996843342+996405775+996351879+996673571+997208180
2293+997721216+997979385+997876933+997578148+997395307+997485322+997783967
2283+998230879+998891621+999731058+1000362919+1000301223+999600006+998992879
2274+999181201+1000133068+1001274312+1002210158+1002928310+1003337418
2265+1003094848+1002190553+1001262788+1000839767+1000599446+999923385+998900826
2255+998131940+997714400+997213310+996621291+996483774+996928789+997386594
2245+997484549+997591710+998320754+999814186+1001428272+1002043269+1001124076
2235+999527769+998831190+999839835+1001863731+1003320905+1003251338+1002398409
2225+1002388993+1003786368+1005566289+1006552237+1006591518+1006069417
2217+1005108555+1003884815+1003217890+1003981928+1005990083+1008049254
2208+1008949966+1008153534+1006141232+1004310226+1003785103+1004342550
2200+1005089442+1005692212+1006273057+1006777942+1007113478+1007442198
2191+1007883840+1008054735+1007100759+1004500304+1000953884+998121821+997376264
2181+998856065+1001430801+1003696213+1005151279+1005871117+1005458847
2173+1003902734+1002982207+1004495526+1007351339+1008574236+1007033933
2164+1004399960+1002775264+1003052195+1005088528+1007895926+1009970908
2156+1010612466+1010429485+1010268287+1010362729+1010691449+1011567566
2147+1013208565+1014955600+1015692865+1015032615+1013603338+1012341512
2139+1011840422+1012134429+1012893337+1013806064+1014594556+1014709306
2130+1013685834+1011974215+1010776615+1010763334+1011382969+1011705856
2122+1011537772+1011379315+1011584782+1011929664+1011898605+1011246225
2113+1010332584+1009868385+1010162532+1010720259+1010791934+1010160565
2105+1009181362+1008250224+1007547180+1007251908+1007727421+1009274328
2096+1011669035+1014123049+1015855749+1016655484+1016893486+1017091223
2088+1017356841+1017286642+1016722731+1016333931+1016825816+1017851748
2079+1018421772+1018139711+1017488807+1017240897+1017924758+1019428169
2071+1020973320+1021841778+1021992787+1021701731+1021097275+1020388750
2062+1019989620+1020128894+1020728783+1021541096+1021933620+1020962428
2054+1018403010+1015404269+1013587808+1013836632+1015979142+1018858917
2045+1020646568+1020145829+1018251088+1017323885+1018624921+1021132129
2037+1023249131+1024525643+1025271902+1025832862+1026764844+1028330513
2028+1029576528+1029413574+1028450885+1028041285+1027901027+1026476599
2020+1023486009+1020658514+1019819920+1020927645+1022427121+1023404848
2011+1024596966+1026939182+1029825492+1031602462+1031638369+1031081837
2003+1031366497+1032698241+1034162301+1034721153+1033935894+1032228491
1994+1030711658+1030314004+1030722620+1030447727+1028145565+1023700190
1986+1018372654+1014113844+1012260211+1012846467+1015316151+1019445455
1977+1024920345+1030268189+1033527980+1034252667+1033773431+1033322232
1969+1032755721+1031348719+1029162712+1027406613+1027570200+1029804060
1960+1032123016+1032240085+1030163277+1027646934+1025728301+1024154270
1952+1022557119+1021105567+1020229660+1020172531+1020812544+1021936852
1943+1023477647+1025158909+1026328261+1026612500+1026300434+1026009730
1935+1026297483+1027314349+1028564791+1029225674+1028852473+1027732030
1926+1026677147+1026487631+1027285047+1028295098+1028684600+1028467257
1918+1028103965+1027522698+1026169171+1023941002+1021497458+1019773683
1909+1019421353+1020543975+1022678615+1024968269+1026621775+1027471682
1901+1028012826+1028711584+1029481454+1030047262+1030448359+1030810949
1892+1030996881+1030873348+1030617778+1030518558+1030680388+1031005032
1884+1031258634+1031253153+1031116409+1031156322+1031438172+1031717352
1875+1031688331+1031127933+1030001798+1028605969+1027471612+1026889290
1867+1026597532+1026329174+1026295164+1026806724+1027847763+1029174377
1858+1030582644+1031914106+1033004053+1033793739+1034408033+1034997873
1850+1035430170+1035323852+1034672175+1034126885+1034132366+1034068492
1841+1033293422+1032248728+1031672169+1031686293+1031761200+1031368043
1833+1030554887+1029754239+1029175291+1028758805+1028832166+1029925766
1824+1031722411+1033165883+1033900408+1034520253+1035467061+1036549840
1816+1037385412+1037847011+1038056835+1038175590+1038271297+1038329480
1807+1038284367+1038059435+1037732753+1037637960+1038101878+1039007298
1799+1039797827+1040062391+1039919112+1039854183+1040310020+1041135965
1790+1041577748+1041325551+1040777240+1040223237+1039504172+1038530872
1782+1037800493+1037893670+1038639227+1039300039+1039537760+1039724747
1773+1040394624+1041439739+1042086497+1042073216+1041795864+1041422593
1765+1040932114+1040668604+1041086003+1041922489+1042431801+1042375304
1756+1041895997+1041104344+1040275377+1039884820+1040050796+1040087336
1748+1039365179+1038255276+1037399396+1036902592+1036510209+1036000194
1740+1035113326+1033682081+1032227788+1032014872+1033836041+1036191045
1731+1037352175+1037537405+1037116913+1035952973+1034248030+1032761553
1723+1032109033+1032389196+1033686508+1036247191+1039490118+1041839431
1714+1042758974+1042875129+1042715829+1042525540+1042580771+1043152061
1706+1043975195+1044331249+1044148901+1044166046+1044776124+1045458720
1697+1046180385+1047247424+1047928966+1047615635+1046876965+1046352967
1689+1045962480+1045571572+1045888206+1047664964+1049652250+1050255793
1680+1049868960+1049310882+1049060372+1049339481+1049874090+1050152075
1672+1050272657+1050716267+1051275540+1051203936+1050607771+1050296760
1663+1050764261+1051604822+1052029389+1051742620+1050847390+1049703968
1655+1049256704+1050429358+1051559288+1051021095+1049800940+1048960449
1646+1048320507+1047029449+1045470104+1044771767+1045443893+1047233581
1638+1049959397+1053740306+1057547565+1059682276+1060210209+1060094686
1629+1059883808+1059462754+1058437245+1056760901+1054747756+1052607143
1621+1050163529+1046711129+1040246496+1027368738+1007205882+983859407+963866532
1611+954898627+961518906+979632499+999837586+1015720340+1026062502+1032178740
1601+1035766760+1038215433+1040414580+1042690673+1044827913+1046111592
1592+1045399483+1041202088+1031660855+1014667425+989056874+956978738+925157506
1582+902424692+894193911+899820653+916053770+938002660+954889702+958551013
1572+952505958+943723493+937959163+937905618+941677884+946278624+949704392
1562+951061573+950872689+950665394+951718801+954066849+958289892+965143184
1553+974135895+984167889+994183439+1002744767+1008920874+1013406373+1017608757
1543+1022681847+1030211973+1040592362+1049601726+1054836998+1058388689
1534+1062411183+1066938000+1070364119+1072154651+1073069487+1073633538
1526+1073741823+1073213960+1072108273+1070523771+1068343737+1064997584
1517+1059739686+1052400130+1043573817+1034163496+1025488332+1019468433
1509+1018696103+1025829700+1036850593+1042536572+1042006812+1038554342
1500+1034872653+1033117889+1034120842+1036231169+1037114173+1036085712
1492+1033289205+1028658530+1022218843+1014406024+1005667125+996177330+985827790
1482+974478388+962143319+948546987+932925845+914041117+888540256+850980765
1472+803140036+757696051+722444414+696326237+677552535+665850100+659869271
1462+657234805+657224968+661749396+673868808+690713619+704426176+714677129
1452+725078598+737237994+750733349+763494461+772153955+775197598+775167171
1442+776317058+781435683+791683684+808054809+829127512+848931362+864305015
1432+877624978+890099602+897599933+893361853+873520760+840022061+802977714
1422+776558995+768291182+774584709+783080827+784260016+780119891+776323944
1412+775690678+778347559+783892718+792785014+805931623+822922735+840646263
1402+855502734+866174388+871897961+869747370+855305558+826852403+790823096
1392+759983316+742223037+737048970+740530250+747949140+754824426+758427273
1383+757930750+754245900+750068110+748301400+750091229+755052450+762573722
1373+772228791+783857514+797565714+812738468+827610187+841074624+853831028
1363+866683278+878885538+889256159+897577377+903812300+907227668+907003017
1353+903482385+898308318+893315194+889605538+887263604+885149412+880603833
1343+869196389+845054325+804404391+752620431+703982707+669288235+648731450
1333+637500030+632885376+635340585+645389232+661562479+681006199+700950939
1323+719764414+737319998+754440897+771723134+788775731+804608593+818491905
1313+830145924+839348248+845671921+848535324+847331400+841469467+830413158
1303+814241879+794908341+776875207+765620106+764803367+774457452+791468028
1293+811671780+831769426+849887235+865171224+877335398+886469561+892963637
1283+897499800+901071376+904781173+909362378+914791945+920397114+925405416
1273+929480472+932841873+935968786+939160979+942262946+944721808+945897694
1264+945509667+944083693+942912936+943132950+944672760+946345591+946844292
1254+945280589+940871052+932725016+920644884+906168007+891990969+879845628
1244+869387943+859250054+848345527+836203909+823306545+811212641+800890997
1234+790392064+775490691+754127426+730401074+713143994+709511986+719696744
1224+737563692+755371965+767551247+771630519+767898447+758944455+748522537
1214+739438055+731941025+724591000+717051528+711630112+711796299+719495915
1204+733743573+750995735+766546115+776246789+778027272+772566646+762548425
1194+750905720+739852362+731806460+730435858+739277419+758680875+784690837
1184+811461534+834493836+851564633+861619182+863541961+855593311+835932810
1174+804612809+765289630+724092509+686894484+658472950+643168161+643837054
1164+659450536+684957300+714208503+742816812+768718279+791290668+810615633
1154+827256030+842186495+856530422+870876527+884093546+892119211+888277379
1145+867000193+830038553+789389392+761388982+755501330+768837245+791291652
1135+814145610+833598254+849126710+861248934+870655530+878004010+883804247
1125+888328816+891676374+894178733+896751081+900492990+905777872+911874153
1115+917481431+921476731+923153075+922192143+919002269+915101129+912587176
1105+912862210+915960312+921078937+927404437+934329544+941264841+947642059
1095+953180262+958022447+962488763+966701546+970527568+973866764+976828122
1085+979574667+982179549+984754215+987576230+990923155+994800895+998935118
1075+1003055497+1007092959+1011000282+1014475239+1017022360+1018221083
1067+1017851186+1016042595+1013597857+1011953696+1012359290+1014998885
1058+1019127908+1024016190+1029338034+1034515053+1038105883+1037989517
1050+1031473588+1014519438+981313761+926736035+852241888+770471357+701589827
1040+661538377+652595206+665161039+687294175+711787516+736378882+760626701
1030+783838541+804961415+823123072+837598754+847132538+849632087+843409180
1020+829765276+814372228+804611545+804118957+809911043+815147369+814221009
1010+805134489+788700402+767655245+746717179+731586306+726067498+729592978
1000+737523849+744015325+745208357+740140607+728810248+710653440+686591974
990+661879324+644383679+639200547+645778875+659886838+676996564+693764781
980+707266250+714113710+712360491+704963877+698730149+697619473+699144386
970+699561505+700117545+705004282+714861094+725914873+735191120+743423025
960+752238447+761200099+769203277+776950746+786070223+796640619+807149390
950+816410318+824411319+831634298+838359700+844529694+849875008+854159677
941+857398247+859806165+861523968+862575477+863276413+864428899+866653765
931+869621167+872296459+873840626+873960365+872204476+867124218+857410334
921+845200836+837015379+838769581+849908386+864253156+876056357+883478619
911+887125806+887626123+885133391+880275113+874991075+871980879+872945185
901+877472634+883769605+890210838+896050355+901066317+905120152+908220221
891+910651890+912755681+914656325+916295567+917628996+918711776+919590493
881+920215327+920492048+920143582+918557675+915601587+912814497+912631375
871+915876832+920953928+925758941+929396852+931920011+933523485+934445980
861+935098009+935891279+936982701+938243613+939412753+940218039+940492090
851+940347616+940142711+940137722+940306438+940526803+940833809+941463492
841+942591033+943956295+944962902+945271876+944953345+943931981+941638392
832+937275935+930111139+919280254+903361030+881078432+854208444+829988873
822+818119548+823317578+841418592+863267137+880849776+889109437+884798276
812+867446051+842576700+821822177+816397248+828750798+851617967+875488932
802+895404721+910988690+923041066+931633312+936212058+935947143+929155196
792+913589356+890914163+871283878+867771468+882909298+904326530+915310391
782+905638177+872020160+815942676+747070071+684844167+647286573+633650187
772+623334517+598681103+566448410+550042923+562947875+597375008+636901617
762+671376076+698965691+721185469+739742953+756052171+771249378+785974235
752+800092036+812307928+819851686+819512356+810570731+797094629+786517908
742+785122361+794250902+810191417+827198198+840506567+847244337+846558087
732+840475930+834034486+832860216+839593910+852425501+866936529+878920533
722+885092705+882282144+868563473+846384100+823258341+808328298+807652939
713+820939876+842003303+863163490+879496319+889657678+894592619+896594099
703+898527488+902326386+907975684+914210466+919898483+924487559+927300508
693+926766111+921371889+912526744+905527854+905406639+911950887+920646359
683+927770750+932722416+936353299+939141655+941192604+942877802+944678874
673+946511426+947898893+948919906+950131207+950293951+946422044+937944969
663+927527127+920395287+921019067+928311191+936681668+941071671+939529892
653+932864008+924023290+917408281+916746485+922522549+931756775+940564607
643+946745844+950524715+953592250+957155254+960026878+957932573+944676484
633+915695959+873343471+829481247+800102084+794821348+811361752+839312060
623+868284856+893156596+913350581+929527763+942096197+951754498+959494237
613+965303820+966572462+957238453+930671326+887608977+841484364+811677542
603+809146724+829579413+859684388+887436255+906853765+916739739+918087644
594+913381359+906806122+903117337+905144324+912359574+922038885+931648420
584+940120225+947164509+952356635+955555293+957413423+958840241+960360798
574+962030115+963538586+964534301+965196168+966047972+966182186+962194545
564+951582900+938173274+930929003+935009610+946472427+957479477+963920007
554+966493619+967569231+969065194+971591374+974425124+976823344+978938308
544+980964664+982460837+983019408+982765454+982086091+981526677+981785339
534+983143503+984939024+986039932+985900870+984945418+983971556+983441023
524+983365414+983555070+983679025+983185946+981394290+977795379+972443671
514+965974189+958829139+950195223+937459338+916844440+886052161+847822653
504+809909708+780015962+760293695+747375251+739007655+738238628+749054546
494+769692141+792442241+810649784+825017813+841105753+860947549+879368078
484+887678403+879613388+855123139+820963697+788085194+765966042+757323343
475+758973687+767228430+780599057+798389341+818997914+839720184+858057303
465+873875550+888869538+903265605+914922083+922038604+925328471+927173180
455+929324193+932304384+935869706+939109190+941239895+942542688+943980889
445+946251781+949616415+954179139+959764985+965755933+971172640+975194502
435+977834378+979178419+978124590+973779138+967989793+964163560+963495581
425+964358698+965197784+966455534+969326033+973435451+976083479+975674582
415+973553644+971242979+968982487+966263347+963605904+963085208+965698523
405+968961476+968677308+962325808+949656468+932482235+917028054+911777533
395+917544041+928146621+938341639+945941542+951147582+954877757+956099037
385+951271748+939172784+924892451+913731441+905649279+898282810+891497679
375+887478909+885596184
##END=
