##TITLE=X9331
##JCAMP-DX=4.24
##DATA TYPE=INFRARED SPECTRUM
##DATE=5/11/2018
##SAMPLING PROCEDURE=ATR platinum Diamond 1 Refl
##ORIGIN=ComPlat
##XUNITS=1/CM
##YUNITS=TRANSMITTANCE
##RESOLUTION=4
##FIRSTX=3997.453
##LASTX=373.96442
##DELTAX=-1.4165319
##MAXY=0.88566613
##MINY=0.44193897
##XFACTOR=1
##YFACTOR=8.2484086e-010
##NPOINTS=2559
##FIRSTY=0.88466442
##XYDATA=(X++(Y..Y))
3997+1072527388+1072043449+1071580539+1071398005+1071523813+1071834106
3989+1072297595+1072919192+1073510585+1073741823+1073451041+1072802778
3980+1072095984+1071434498+1070693812+1069812216+1068975350+1068510922
3972+1068708414+1069629465+1070927580+1071951749+1072186673+1071639722
3963+1070883572+1070603918+1070859726+1071089663+1071015306+1070890003
3955+1070682033+1069731644+1067571227+1064871374+1063325329+1063933414
3946+1065436680+1065930085+1065584456+1066135092+1067942726+1069488410
3938+1069662417+1068531300+1066489537+1064060089+1062310987+1062319153
3929+1063714604+1064825271+1064637607+1063874809+1063845037+1064323267
3921+1063846410+1062100127+1060886776+1062363883+1066204102+1069878841
3912+1071674552+1071622523+1069973938+1066254902+1060262215+1053308805
3904+1047982229+1046180304+1047869428+1052175592+1057652473+1061901984
3895+1062997982+1061000372+1058295894+1058080553+1060209898+1061292960
3887+1059841651+1057499712+1055938708+1054671666+1054044504+1056313242
3878+1060718983+1063011712+1061081016+1056228117+1050970335+1047499519
3870+1047728951+1051114497+1053598287+1052813449+1050850886+1051388370
3861+1054736124+1057760216+1057829443+1054205215+1047517295+1040496320
3853+1039362024+1045904046+1053634201+1058931800+1061480769+1061239920
3844+1058191909+1052850809+1046413132+1040762100+1038493651+1041075789
3836+1046226335+1050666473+1053798958+1056307678+1057904740+1057853579
3827+1056564714+1054945539+1052506769+1048166569+1043448150+1042263993
3819+1044525143+1047049833+1050266792+1055645613+1061009115+1063505695
3810+1062634360+1059547761+1056564569+1055302441+1053837112+1049909818
3802+1045805120+1046088170+1050068433+1054099640+1057887253+1061962974
3793+1065087365+1066414746+1066679297+1066549731+1065789246+1064442427
3785+1063368758+1062692603+1061322299+1059269625+1058807654+1061500786
3776+1065330672+1067240267+1066090579+1062680680+1059055801+1057246650
3768+1057393414+1058425026+1059890211+1061005719+1060181065+1057197873
3759+1054429010+1054247777+1055120124+1053226210+1046582803+1036996094
3751+1030873696+1032639490+1036660653+1037628820+1037738152+1041584875
3742+1047712114+1050959857+1049843264+1044939566+1037687641+1032187853
3734+1033656867+1041597810+1050070239+1054616819+1054629104+1052125948
3725+1050092207+1050275969+1052237593+1054992943+1057948170+1060243210
3717+1060600185+1057979459+1052327993+1045655032+1042737887+1046881534
3708+1054813155+1061387551+1064158221+1063186152+1060649106+1059837965
3700+1061844175+1064522710+1065857461+1065332623+1062569252+1056809537
3691+1048670886+1042509178+1044038531+1051707479+1058666815+1061901479
3683+1061839261+1059310886+1054687275+1048013880+1040130024+1034940674
3674+1036325069+1040045405+1040937841+1041201597+1045917198+1053981203
3666+1060488973+1063910507+1065281317+1065525056+1064452255+1061731013
3657+1058474598+1056612334+1055433380+1051487080+1042936752+1032435712
3649+1028065740+1034542221+1044815998+1052174725+1055943839+1057777198
3640+1059078347+1059987114+1059822935+1058350308+1056102960+1053325353
3632+1049258159+1043852456+1040946368+1045417651+1053563601+1058728599
3623+1058991271+1054936940+1048613004+1043961355+1043519328+1044815419
3615+1044963123+1044568139+1045124267+1046085785+1046645960+1048218959
3606+1052071174+1056198923+1057730950+1056380157+1054357038+1053543078
3598+1053492495+1053245865+1053442634+1054939252+1056336366+1055029291
3589+1050378292+1045480736+1045106708+1049180477+1053344213+1055406860
3581+1055962627+1056159613+1056517382+1056997129+1057484248+1057802345
3572+1057165789+1054140324+1047894720+1040274476+1036456802+1039518037
3564+1045732063+1050637207+1053486570+1055439378+1057019603+1057549934
3555+1056462174+1054455025+1053080385+1052945616+1052779197+1051218410
3547+1048939773+1048267592+1050398453+1053883432+1056420117+1056863662
3538+1055749165+1054671594+1054738147+1055420806+1055380773+1054066328
3530+1052118867+1050576435+1049856994+1049671353+1049912997+1050901397
3521+1052572022+1054265482+1055493502+1056238884+1056518683+1056113076
3513+1054825295+1053001186+1051683199+1051621993+1052077533+1051665206
3504+1050319471+1049455145+1050133685+1051817751+1053274986+1053870281
3496+1053951070+1054367732+1055354470+1056064155+1055630005+1054339911
3488+1053310612+1053152647+1053435914+1053542573+1053623361+1054316715
3479+1055597342+1056608143+1056779549+1056414626+1056033443+1055741722
3471+1055479628+1055319206+1055275993+1055198239+1054975167+1054667041
3462+1054420194+1054372502+1054644568+1055278595+1056075644+1056610600
3454+1056561173+1055853005+1054512473+1052829274+1051583333+1051416263
3445+1052038873+1052777174+1053466264+1054183898+1054781649+1055144549
3437+1055361841+1055479411+1055541123+1055784862+1056376543+1057081965
3428+1057531146+1057635781+1057481791+1056975884+1056018052+1055013971
3420+1054661911+1055058629+1055559116+1055594307+1055199540+1054824500
3411+1054905217+1055528043+1056405087+1057164344+1057557304+1057457511
3403+1056979714+1056492235+1056235633+1056111848+1055964072+1055768386
3394+1055536642+1055314003+1055224976+1055287338+1055280474+1055011225
3386+1054702378+1054851743+1055561284+1056338606+1056791110+1057059636
3377+1057307350+1057349045+1057078858+1056722028+1056441941+1056127312
3369+1055696269+1055325710+1055301140+1055728931+1056394464+1056904056
3360+1057017001+1056896252+1057006596+1057606948+1058326822+1058512030
3352+1058039147+1057426366+1057108413+1056999659+1056873561+1056769071
3343+1056763073+1056613707+1056032865+1055233431+1054833678+1055143609
3335+1055821571+1056302981+1056334993+1056003816+1055497259+1055023149
3326+1054799064+1054882744+1055076984+1055199251+1055350929+1055693306
3318+1056074994+1056153832+1055809070+1055192820+1054434430+1053551894
3309+1052631060+1051872164+1051442856+1051439749+1051863132+1052399243
3301+1052494990+1051974054+1051302812+1050980451+1051055893+1051471038
3292+1052375830+1053743750+1055032181+1055606158+1055405776+1054932749
3284+1054613206+1054441801+1054274370+1054118645+1054003387+1053861754
3275+1053657108+1053496831+1053596046+1054072614+1054675641+1054929208
3267+1054735907+1054515291+1054589504+1054831221+1055008841+1055039986
3258+1054864028+1054452857+1053990452+1053809581+1054085983+1054613712
3250+1054915912+1054687853+1054138084+1053761671+1053814856+1054193509
3241+1054708375+1055162542+1055226566+1054653528+1053691360+1052968812
3233+1052877907+1053283297+1053817096+1054223208+1054388761+1054285281
3224+1054006784+1053751554+1053626975+1053488954+1053134148+1052684172
3216+1052521800+1052763950+1053099101+1053309817+1053591205+1054108890
3207+1054608582+1054748553+1054506909+1054053971+1053516197+1053017083
3199+1052715895+1052691615+1052866345+1053044977+1053044832+1052852615
3190+1052609959+1052434218+1052364630+1052414274+1052522450+1052568409
3182+1052536686+1052523245+1052625351+1052976328+1053669681+1054482990
3173+1054978996+1054969097+1054596152+1054037784+1053465614+1053142169
3165+1053219923+1053528265+1053760153+1053811098+1053816301+1053878302
3156+1053875122+1053657252+1053365531+1053328460+1053606163+1053862187
3148+1053792960+1053514318+1053358521+1053375575+1053269422+1052858252
3139+1052358849+1052100585+1052123419+1052180434+1052040463+1051685728
3131+1051284169+1051100695+1051400727+1052193730+1052977845+1053005521
3122+1052024493+1050571448+1049373056+1048701814+1048498396+1048724793
3114+1049203890+1049431516+1049078949+1048502154+1048284573+1048460820
3105+1048626517+1048618568+1048629913+1048717639+1048559169+1047806199
3097+1046489152+1044904952+1043222187+1041417010+1039483496+1037454162
3088+1035377136+1033493266+1032193345+1031631725+1031650874+1032110171
3080+1032947760+1033931246+1034645700+1034741809+1034086320+1032727650
3071+1030706482+1027869548+1024048407+1019556529+1015289386+1012118168
3063+1010304826+1009648326+1009960859+1011159107+1013072027+1015394527
3054+1017785532+1019975937+1021900202+1023668453+1025279245+1026482841
3046+1027022132+1026865179+1026224143+1025456359+1024730921+1023630443
3037+1021422984+1017925142+1013821239+1010084065+1007396281+1006082847
3029+1006227154+1007763155+1010546614+1014302287+1018480186+1022363257
3020+1025473196+1027766720+1029359085+1030287796+1030706482+1031057675
3012+1031778200+1032923335+1034161978+1035045453+1035324746+1035149511
3003+1034876433+1034665428+1034479714+1034348848+1034203312+1033636634
2995+1032380648+1030858521+1029693586+1028814663+1027506215+1025222592
2986+1022034176+1018361388+1014473837+1010273898+1005501138+1000000771
2978+993686952+986402726+978002703+968465565+957861046+946337715+934091619
2968+921159252+907341241+892570528+877350057+862688026+849566983+838547390
2958+829893655+823972796+821339641+822347913+826686523+833263087+840476207
2948+846685391+850655899+851781885+850004818+845582601+838941724+830571039
2938+820871817+810226325+799369250+789457361+781535496+776117436+773390991
2928+773479223+776285445+781310038+787823373+795166420+802888770+810756439
2918+818709088+826748452+834801473+842697541+850309330+857694795+865064723
2908+872598542+880255423+887705345+894513147+900464356+905646553+910223483
2898+914329265+918213853+922230536+926539085+930947933+935122870+938820083
2888+941874597+944142467+945545362+945994759+945190844+942666805+938035534
2878+931015282+921465498+909935374+898162234+888500371+882563471+880362515
2868+880539484+881213255+880756126+878316272+874140613+869497491+866013668
2859+864782612+865963373+869180116+874175443+880935408+889281740+898706366
2849+908709450+919006856+929305201+939142371+948054804+955742613+962121324
2839+967385538+971915570+975978356+979599621+982727698+985375378+987631252
2829+989646206+991541204+993265954+994684601+995834867+996930215+998077229
2819+999161882+1000037191+1000692463+1001255240+1001912535+1002776066
2810+1003778845+1004765221+1005643710+1006354624+1006830686+1007161574
2802+1007643489+1008449644+1009381462+1010137395+1010694824+1011238162
2793+1011822906+1012302870+1012553330+1012625375+1012682751+1012885518
2785+1013343298+1014071410+1014921283+1015641374+1016103851+1016445289
2776+1016895120+1017500458+1018082818+1018433650+1018532938+1018582148
2768+1018795032+1019150561+1019438380+1019529647+1019474150+1019385123
2759+1019365468+1019463022+1019574811+1019508547+1019227520+1018894681
2751+1018651158+1018521809+1018534094+1018729346+1019035231+1019281427
2742+1019375079+1019359254+1019298626+1019205191+1019076781+1018929728
2734+1018786649+1018653976+1018505984+1018303578+1018086069+1017989816
2725+1018099004+1018339203+1018589952+1018829934+1019107204+1019453339
2717+1019856850+1020245113+1020489720+1020526501+1020473389+1020527441
2708+1020736639+1020956533+1021039923+1020990351+1020912019+1020879285
2700+1020872636+1020818295+1020698919+1020638580+1020801892+1021161973
2691+1021465185+1021495318+1021300933+1021086604+1020955160+1020843804
2683+1020675506+1020483650+1020383061+1020452650+1020644722+1020811358
2674+1020840913+1020758535+1020656067+1020571232+1020479459+1020376919
2666+1020324023+1020407992+1020641615+1020909490+1021099395+1021290817
2657+1021648008+1022115037+1022428004+1022478009+1022448165+1022521222
2649+1022640454+1022639659+1022485018+1022329438+1022359571+1022617619
2640+1022984276+1023315814+1023538454+1023660938+1023774461+1023988935
2632+1024279284+1024469766+1024466803+1024421929+1024553735+1024856585
2623+1025096856+1025066795+1024764740+1024418027+1024407115+1024974155
2615+1025846429+1026385143+1026280290+1025846935+1025522912+1025378894
2606+1025219773+1024940192+1024714084+1024876963+1025565547+1026497655
2598+1027192454+1027327728+1026894156+1026182881+1025593874+1025301863
2589+1025213487+1025277655+1025574219+1026032287+1026347639+1026282458
2581+1025895423+1025450000+1025191302+1025225193+1025518143+1025921293
2572+1026241703+1026377772+1026375098+1026339473+1026400462+1026722606
2564+1027373470+1028179408+1028849638+1029242093+1029411908+1029425349
2555+1029244116+1028903329+1028709161+1028974651+1029512425+1029693513
2547+1029150320+1028185117+1027412058+1027219118+1027615692+1028350452
2538+1029039904+1029304888+1028966630+1028214166+1027552246+1027434170
2530+1027862467+1028428495+1028756492+1028750783+1028455232+1027992249
2521+1027630650+1027594447+1027804802+1028013783+1028069714+1027943617
2513+1027761950+1027815135+1028189163+1028494326+1028343587+1027967969
2504+1027972594+1028546788+1029196640+1029361036+1029134567+1029065773
2496+1029307923+1029513581+1029584615+1029802990+1030095290+1029965724
2487+1029319702+1028660095+1028347056+1028265833+1028298568+1028585376
2479+1029138325+1029589167+1029557011+1029067869+1028406889+1027774018
2470+1027328884+1027349407+1027983578+1028898559+1029435755+1029186234
2462+1028374082+1027647632+1027477310+1027800466+1028246684+1028510946
2453+1028454726+1028100281+1027655653+1027358367+1027231692+1027117662
2445+1026917280+1026667253+1026442663+1026295899+1026283398+1026443313
2436+1026679899+1026753173+1026538266+1026212364+1026008513+1025904095
2428+1025744540+1025541917+1025440606+1025505281+1025734207+1026163732
2419+1026735324+1027132187+1027034633+1026522729+1025931988+1025359022
2411+1024697319+1024085910+1023888852+1024207889+1024753250+1025219195
2402+1025564680+1025896507+1026214821+1026364837+1026242859+1025967974
2394+1025761522+1025688609+1025609338+1025389661+1025089702+1024886429
2385+1024853116+1024906734+1024986150+1025220207+1025879525+1027099308
2377+1028665876+1030276379+1032060527+1034462010+1037463556+1040427527
2368+1042875040+1044918754+1046821629+1048578390+1049939590+1050584889
2360+1050379521+1049492721+1048082240+1046021761+1043144505+1039665596
2351+1036251651+1033648557+1032382960+1032765371+1034716950+1037399027
2343+1039650132+1041008513+1041548021+1041257239+1040366465+1039573318
2334+1039322352+1039283258+1038856334+1037847774+1036482528+1035061134
2326+1033780507+1032674682+1031711430+1031016631+1030764797+1030789005
2317+1030693619+1030248486+1029279380+1027583030+1025488877+1023982937
2309+1023678136+1024148995+1024643701+1024879058+1024896546+1024704690
2300+1024302046+1023736596+1023106688+1022657797+1022669503+1023051914
2292+1023293269+1023008556+1022355091+1021768830+1021472700+1021387720
2283+1021414096+1021644900+1022242218+1023099534+1023734139+1023714195
2275+1023232858+1023045266+1023660938+1024717119+1025410979+1025499644
2266+1025503546+1025897157+1026553585+1027057613+1027098224+1026587910
2258+1025850043+1025495019+1025694607+1025897157+1025657031+1025304464
2249+1025361046+1025658910+1025515903+1024751082+1024079190+1024236577
2241+1025094038+1026088074+1027100464+1028183238+1028834463+1028505815
2232+1027598566+1026935924+1026416649+1025360684+1024127967+1023983226
2224+1025141008+1026420406+1027123010+1027633179+1027906185+1027263632
2215+1026045439+1025628054+1026463764+1027599939+1028251236+1028491724
2207+1028366061+1027577321+1026312303+1025501957+1025858136+1027041281
2198+1028137640+1028752951+1029220270+1029797282+1030122316+1029639750
2190+1028329352+1026872333+1026129769+1026341858+1026932021+1027427088
2181+1028233171+1029768016+1031438352+1032554944+1033421871+1034420243
2173+1035137515+1035374462+1035527296+1035320266+1034014853+1032327752
2164+1032052506+1033244323+1033674427+1031798288+1029195556+1028862428
2156+1031390225+1034643171+1036618886+1036871948+1035724355+1033730646
2147+1031786799+1030434849+1029324977+1028211564+1027535626+1027321730
2139+1026685969+1025143320+1023535708+1023098523+1024089813+1025695763
2130+1026927758+1027167162+1026228840+1024584880+1023346670+1023279900
2122+1023938424+1024391145+1024486386+1024695368+1025048729+1025026689
2113+1024421423+1023673584+1023195498+1022787507+1022056577+1021167249
2105+1020708529+1020887450+1021307654+1021547347+1021567002+1021542722
2096+1021642299+1021971669+1022497303+1023102063+1023808858+1024634451
2088+1025162542+1024843505+1023824322+1022819375+1022199367+1021940958
2079+1022218299+1023160018+1024230940+1024648831+1024333841+1023983588
2071+1024248428+1024979575+1025294709+1024467165+1022862587+1021837406
2062+1022356970+1023782266+1024570788+1024246115+1023957212+1024749926
2054+1026058374+1026464631+1025453613+1024033304+1023870208+1025728787
2045+1028615003+1030622730+1030713347+1029735642+1029441319+1030377256
2037+1031485755+1031875464+1031874669+1031986748+1031993757+1031669662
2028+1031560330+1032410348+1033786505+1033838245+1031293900+1027401580
2020+1024787213+1024655841+1025828581+1026342725+1025714624+1025277511
2011+1026359417+1028757865+1031127480+1032255635+1031856243+1030760968
2003+1030175862+1030414905+1030922040+1031462415+1032263222+1033071689
1994+1033283562+1033015397+1032986203+1033228931+1033053407+1032560508
1986+1032787266+1033853347+1034233590+1032752942+1030209609+1028188657
1977+1027374987+1027714836+1029044312+1030610012+1030863869+1028731056
1969+1025075033+1022383924+1022327848+1023928813+1025138695+1025280690
1960+1025052848+1025090714+1025294854+1025215510+1024535236+1023167533
1952+1021191818+1019043758+1017681691+1017782930+1018574488+1018395062
1943+1016769456+1015044634+1014429902+1014555927+1014682168+1014914418
1935+1015743769+1017083145+1018316585+1019228965+1020145825+1020780141
1926+1019883297+1016959288+1013605970+1011907235+1011856580+1012097212
1918+1012433014+1013737993+1015802301+1017141605+1016806237+1015391347
1909+1014410897+1014788610+1016195045+1017743981+1018677173+1018513066
1901+1017280493+1015595126+1014168964+1013477200+1013755625+1014570234
1892+1014801112+1014028559+1013418523+1014208419+1015879116+1017113134
1884+1017362149+1016799878+1015905564+1015327974+1015498078+1016214050
1875+1016733325+1016152844+1013848048+1009976684+1006051196+1004746650
1867+1007295692+1011717837+1015433910+1017457535+1018089104+1018077543
1858+1018107748+1018453305+1018895187+1019107420+1018852408+1017808078
1850+1015828894+1013295822+1010732400+1008679798+1008293196+1010268623
1841+1013112349+1014967170+1015524888+1015614203+1015947042+1015990255
1833+1014423759+1011135766+1008310756+1008031897+1009218150+1009991787
1824+1010572195+1011841188+1013289391+1013892417+1013673174+1013452992
1816+1013404432+1012672562+1010721055+1008371312+1007177760+1007779125
1807+1009246982+1010015561+1008980191+1006221373+1003229582+1001881173
1799+1002435639+1003326485+1003043146+1001145618+998582991+998013061+1001054207
1789+1005350905+1007964838+1008355559+1007526930+1006245725+1004734727
1781+1003535250+1003072123+1002573009+1000671869+996830349+992282179+990000723
1771+991680309+995709348+999976130+1002958672+1003425845+1001437195+998823190
1761+997507371+997311903+997293620+997422391+997245494+995116583+989970518
1751+983396772+979317727+979363180+981275160+982775391+983224210+982998970
1741+982882267+983241264+983148046+981203331+977581633+975608447+978397976
1731+983710172+988939122+993377960+996168284+996789954+996040453+994621083
1721+991579865+985659945+978260968+974939662+979119946+986779645+993345803
1711+997101476+997838548+995851199+992165331+988900173+986989566+984540679
1701+979699776+973670958+969409162+967615475+967551307+967222659+963462506
1691+954044890+938820010+920272236+899565056+871889290+834010782+798319572
1681+773591157+752778474+730438318+704825054+675307258+645273440+619772327
1672+597783147+576078173+557582969+546586175+540614733+536591185+535786945
1662+540984245+551409194+563665948+574956125+584910395+599916104+631650753
1652+668117551+690346930+704995303+723887551+750872781+776976775+796082052
1642+809935543+820088353+826516563+830785946+838262316+851826760+865002144
1632+873166521+877319201+879522614+880955714+880947476+877564025+869576834
1622+857541961+842247638+823280454+802494436+789315439+792140449+806128781
1612+823780146+841482022+857064598+868902630+876571073+881206607+885109983
1602+890494441+898038376+906609661+914585072+921302619+927096947+932286804
1592+936780632+940366995+942639346+943080072+941877921+940337512+939922150
1582+940587756+940336356+937079147+931137910+926956181+929566429+935899181
1572+940217413+941941006+944117898+948504129+952992900+955636605+955957087
1562+952936463+944796222+933130824+929785238+938208818+947327921+953528506
1553+957100416+958804570+959906710+960453517+958592771+952958792+944533477
1543+935911537+930924521+935326143+946341689+954262326+956693725+956661280
1533+958156453+961034214+961695050+958692998+953577571+948513306+943666695
1523+938816036+936101586+936529377+937398762+937650811+938363676+938060537
1513+932940991+920706313+900712793+870047766+825234852+780466307+750697256
1503+727127923+701264055+671759267+640576772+612184312+594180995+590982499
1493+601677707+627413960+671508229+728095078+780577229+819823007+847111520
1483+866112739+879936747+890038974+896274967+898277997+896132250+890329250
1473+882123684+873345803+864216512+853389136+840921919+830028351+825342522
1463+826176137+826138344+820335706+805836048+782227187+760372704+752249155
1453+754843505+761523259+766665784+765170828+754871470+738107989+718767355
1443+699496310+682721050+670891906+665590983+669246790+684761584+708308227
1434+732137197+754442306+776904803+799060546+817835296+831603590+841482311
1424+848775569+852913435+852367352+847381491+841544817+837751569+834777988
1414+831193937+827740609+826026193+826489537+828208216+830592428+834120548
1404+838573910+841754233+841311628+836516828+828125043+816876741+802894551
1394+787294271+771912438+756952110+741710032+727331558+717317057+713609078
1384+714014973+715472787+716831095+718503382+721049389+724583290+729220486
1374+734816383+739907890+742594519+742532518+740837469+738480788+735370994
1364+731299030+727117734+723877362+721047944+717266329+712116000+706436135
1354+701557800+698378056+697221141+698258607+701494571+706569531+712891877
1344+719701992+726371413+733364206+742514236+755092664+769723189+783826128
1334+796146220+806879077+816563846+825300466+832686509+838212745+841545468
1324+842502433+841005960+837198981+831678960+825546807+819860583+814958835
1315+810678252+806981762+803922044+801381529+799386520+798437576+799170168
1305+801804045+806026097+811207354+816666603+821887098+826561510+830484324
1295+833523592+835735820+837421476+838995197+840742854+842626652+844251607
1285+845025172+844444041+842384574+839213140+835561163+831896396+828294136
1275+824615133+820857582+817326644+814483424+812622966+811712971+811563678
1265+812071318+813204242+814821682+816589427+818001860+818510801+817881905
1255+816513913+815226710+814637920+814777169+815198673+815323975+814782516
1245+813617219+812213674+811019689+810279510+809946816+809843336+809933447
1235+810358059+811164647+812186865+813270506+814428938+815648359+816650633
1225+816914389+815881838+813284308+809644182+806642202+806637578+811244424
1215+820131421+831240257+842097622+850888004+856617513+858831476+857546513
1205+853339637+847136956+839742892+831641817+823250610+815228083+808500275
1196+804035640+802567638+804383365+809209237+816196394+824027354+831205788
1186+836525283+839491276+840362467+839760958+838147058+835534426+831664363
1176+826509192+820603653+814821971+809875565+806086363+803489050+801891410
1166+800790932+799361951+796760808+792750268+788167629+784682433+784075577
1156+787729649+796368643+809638980+825810563+842307470+856887412+868370059
1146+876375532+880671290+880850572+876391502+866898516+852533988+834517122
1136+815296082+798130029+786168790+781347687+783619242+791064396+800963638
1126+811176643+820834819+829876384+838061789+844631994+848955718+851327140
1116+853019372+855563355+859870025+865821668+872507998+878814663+884010662
1106+888016794+891084894+893189019+893961427+893269446+891596364+889849864
1096+889031280+889957968+892885735+897253756+901935683+905870131+908471563
1086+909466033+908575042+905578915+900500126+893483920+884838495+875619743
1077+867921529+863992138+864772134+869251872+875226783+880705687+884772881
1067+887492823+889403863+891127023+893111843+895493598+898178131+901085231
1057+904281018+907811956+911421225+914600970+917027455+918782555+920054799
1047+920829809+920992977+920573929+919788297+918906267+918023659+916728002
1037+913844820+907869187+898520292+888286693+881640324+881698422+887664806
1027+895948198+903391979+908974362+913092862+916273763+918620760+919924294
1017+920031820+919019213+916805466+912672080+905514024+894804146+881546311
1007+868611920+859965267+858684495+864959654+875866374+887275964+896267813
997+902082230+905325493+906831144+907308000+907445370+907786303+908500251
987+909435972+910382315+911269692+912153673+913026381+913773642+914382233
977+914979406+915575856+916020412+916284674+916588608+917267510+918638247
967+920822294+923593397+926559173+929501971+932392523+935193759+937815569
958+940125712+941921134+943030428+943427291+943143951+942227597+940855558
948+939258063+937452524+935263709+932602299+929558624+926269114+922784207
938+919020802+914917188+910726354+906981810+904037856+901804599+900013369
928+898587712+897722808+897715293+898747628+900788451+903654145+907148157
918+911130226+915407630+919592973+923260052+926265067+928687867+930567185
908+932055421+933588459+935405993+937148518+938367650+939133483+939824886
898+940654381+941603253+942576478+943563071+944754743+946353034+948182202
888+949760187+950852644+951696303+952574503+953453642+954204011+954903434
878+955704675+956612792+957536300+958328797+958752108+958718073+958553605
868+958729562+959364023+960158905+960699786+960741553+960360443+959867689
858+959458831+958943097+957857143+955825859+952861021+949417376+946148822
849+943492399+941410097+939563803+937797937+936454442+936151014+937186456
839+939150031+941238908+943064824+944997182+947572311+950803289+954250692
829+957494605+960371644+962986516+965585780+968224138+970588045+972304195
819+973283923+973681436+973725444+973631142+973458363+973065547+972334111
809+971320926+970101794+968622374+966804190+964648470+962207460+959642015
799+957336496+955711396+954828788+954339719+953813218+953000343+951913522
789+950809214+949952982+949247994+948188272+946183652+942756121+937327294
779+928862091+916006466+898214985+877137318+856381433+839260038+827040535
769+819900038+818964679+825865627+839790224+856072368+868620013+873456292
759+869645339+857758963+838617701+813332507+783559482+751265091+718477223
749+687427690+660682515+640925363+630604255+631480938+643987682+666568977
739+695335609+724566380+748374178+762857866+767417959+764147815+755867168
730+744961172+733823937+725175766+721003069+721458320+725213270+730543965
720+735982836+740656163+744572113+748518557+753417270+759567488+766434546
710+773068341+778635550+782835344+786021809+788599033+790080621+788959187
700+783587158+773526554+761141427+752242651+753669392+768644823+794339670
690+824014058+851290865+872854494+888497915+899806122+908715230+916484912
680+923377333+929009216+932970113+935298105+936652223+938186417+940982017
670+945151462+948769403+949230507+947939329+947575707+948308516+949200301
660+949722611+949987885+950230107+950543796+950901204+951200802+951368161
650+951332897+951033010+950643807+950549577+950910598+951574830+952418489
640+953363026+954118308+954365661+954127991+953594264+952775319+951739515
630+950890581+950456720+949985934+948915950+947362173+945881741+944868917
620+944527046+944767823+944778012+943374395+940205056+936185338+932766551
611+931059578+931213424+932303857+933163558+933381211+933220139+932949591
601+932836717+933413729+935044466+937410396+939868676+942041595+943932113
591+945844960+948213925+951130130+953998136+955773397+955593826+953320246
581+949612484+945256964+940286712+934332685+927968644+922890721+920602617
571+921594341+925332960+930323734+934864895+938339396+941267524+944099761
561+946674311+948798235+950515036+951646803+951735469+950608687+948692805
551+946741731+945293457+944275719+943273517+942261921+941749512+942181566
541+943507646+945105142+946038550+945960073+945665461+946083714+946982870
531+947302123+946436424+944802798+943492977+943362399+944065725+944472922
521+944092896+943549775+943994403+946188999+949958908+954544798+959220800
511+963580293+967901705+972905198+978057984+981083015+980874467+979765824
501+981212653+985850717+991450660+995669243+997415526+997009848+995756391
492+994703389+993765356+992243302+989633994+985630751+980176199+974172312
482+969472970+967355766+967291814+967360679+965835662+962842932+960726306
472+961768468+965177645+968734741+971978871+975245980+977934921+979513629
462+980203659+979832449+978387860+977884844+980119329+983490857+986134996
452+988614160+991652921+994353858+996029469+997470662+999338273+1000883018
442+1001070682+999828137+997213482+992284491+983928476+972728662+961462583
432+953923273+953234761+959598079+969969265+981386010+992811281+1002715871
422+1007927117+1006792315+1003182901+1005316147+1013937870+1022446719
414+1026536387+1026257745+1025516553+1028189091+1033565239+1037780498
405+1038730887+1036895794+1032945809+1028093633+1026211208+1031534315
397+1040618298+1045838649+1047556245+1050419987+1055433308+1058997630
388+1057678994+1052268666+1046601664+1044123005+1046297946+1052672683
380+1060560007+1066319071+1068287994+1068700610+1072312553
##END=
