##TITLE=X8219
##JCAMP-DX=5.0
##DATA TYPE=LINK
##BLOCKS=1


$$ === CHEMSPECTRA SPECTRUM ORIG ===
##TITLE=X8219
##JCAMP-DX=5.00
##DATA TYPE=INFRARED SPECTRUM
##DATA CLASS=XYDATA
##ORIGIN=ComPlat
##OWNER=
##XUNITS=1/CM
##YUNITS=TRANSMITTANCE
##XFACTOR=1
##YFACTOR=8.9293589e-010
##FIRSTX=3997.453
##LASTX=373.96442
##MAXX=3997.453
##MAXY=0.9587826103507275
##MINX=373.96442
##MINY=0.36447423548351815
##NPOINTS=2559
##XYDATA= (X++(Y..Y))
2559A065494097A066354655A067132108A067155337A066541359A065802422A065321812
2552A065231297A065467396A065813035A066055943A066187710A066327220A066469935
2545A066495100A066378152A066220418A066126900A066140450A066219684A066250523
2538A066193050A066173692A066308196A066525405A066695020A066867105A067189314
2531A067534752A067402784A066437360A065060815A064326483A064954279A066521200
2524A067761306A067925848A067512590A067420206A067774789A067847882A067237575
2517A066481550A066222688A066450577A066889467A067497104A068024306A067892672
2510A067175229A066637481A066536686A066263139A065496901A064822980A064843539
2503A065437825A065930717A065841338A065402982A065232098A065675194A066532014
2496A067363935A068000476A068666387A069624535A070652038A071091329A070532687
2489A069203601A067839338A067182972A067495368A068307865A068597900A067929252
2482A067090789A066958688A067459323A067614052A066939263A065985120A065282696
2475A064889130A064942464A065642152A066605573A067168220A067457987A068053476
2468A068820916A069396179A069821250A069721191A068338371A066082710A064385825
2461A064038251A064952410A066930786A069637218A071205607A069813441A067095929
2454A065037852A064199522A064373076A065048065A065809698A066662646A067782266
2447A068939667A069581414A069559786A069042063A067928585A066259802A064777055
2440A064346642A065024836A066077437A066985255A068169757A070029649A071404057
2433A071023042A069796887A068890538A068108546A066890001A065418468A064204395
2426A063755559A064496098A066081843A067330359A067644424A067258535A066655370
2419A066500040A067162279A068098667A068205269A067183974A065883858A065139314
2412A065133240A065649895A066348514A066771517A066651365A066222354A065741144
2405A065013221A063815836A062440425A061385888A061023094A061600293A062990322
2398A064430549A065271815A065773986A066330692A066849216A067316809A068012357
2391A068788341A068900350A068247189A067774723A068412064A070414270A072818586
2384A073741823A073071106A072425420A072589028A072449117A070671463A067976377
2377A065531478A064110610A064520396A066439763A067210274A065312667A062763568
2370A061563847A061803818A062729124A063618986A064104869A064366534A064645821
2363A064663310A064144119A063494228A063459117A064605504A067048135A069619462
2356A070080647A068013959A065011352A062436620A060913689A060531337A060709296
2349A060672516A060453772A060543686A061217608A062805354A065804224A070035857
2342A073562329A073498781A069881995A065657371A062697885A061387556A061659702
2335A063221883A065663312A068715583A071645698A072734946A071882065A070872317
2328A070250596A069059752A067046933A065031043A063341167A061819771A060498429
2321A059680792A059713367A060889992A062900008A064528339A065228761A066099865
2314A068657576A071985529A072191590A069023039A065797682A064143251A063633004
2307A063441227A063261600A062974168A062295107A061212534A060226618A059950801
2300A060783057A062417930A063187773A062139643A060524595A059758958A060636604
2293A063224085A066306728A067981518A067974176A067445906A066991396A066530879
2286A066216947A066412595A066841740A066548701A065205598A063631535A062741140
2279A062633536A062808091A062959216A062918832A062268073A060973565A059925569
2272A060063411A061516987A063418332A064300317A063817705A062940593A062137107
2265A061303717A060691474A060700552A061022493A061035642A060840796A061070888
2258A062120886A064166414A067085182A069452651A069236310A066822382A064339033
2251A062945532A062426541A062236500A062265403A062510047A062656299A062461251
2244A062208064A062368333A063055338A063891331A064055540A062962487A061280354
2237A060471061A061166476A062474335A062948536A062061077A060529335A059400303
2230A059219540A059805751A060479270A060717573A060643079A060678524A060919162
2223A060969760A060351643A059138304A058115674A058018551A058663702A059236896
2216A059307252A059170345A059321603A059913354A060700352A061260729A061236765
2209A060589678A059637938A058756019A058118811A057698078A057428202A057352239
2202A057567846A058079295A058751080A059379343A059814762A060050661A060160400
2195A060127559A059818901A059192172A058494955A058184695A058524860A059174283
2188A059452636A059140173A058603159A058096984A057533870A057000727A056824770
2181A056985507A057082297A056977965A056985975A057396362A058058401A058450699
2174A058264863A057940519A058195842A058901804A059068482A058269401A057297236
2167A057035371A057420326A057675649A057205453A056164733A055262722A055040374
2160A055410109A055910478A056220537A056360582A056519517A056702081A056605292
2153A056049320A055415784A055245501A055540674A055884712A055981301A055718167
2146A055070412A054295496A053914346A054251841A055179150A056341691A057379741
2139A057927769A057732922A056888985A055786454A054768763A053945586A053338015
2132A052997717A052885375A052818557A052684921A052522114A052326266A052069473
2125A052037166A052700273A053946787A054921423A055025889A054628986A054387279
2118A054394088A054342356A054072280A053731448A053664630A054055325A054537270
2111A054608226A054509968A054981833A056027159A056727313A056470855A055643806
2104A054874364A054294495A053817223A053539604A053542475A053671504A053697137
2097A053456232A052907002A052292690A051981762A051930497A051731511A051356302
2090A051312580A051901127A052819892A053606623A054094842A054363850A054519781
2083A054580591A054411844A053803739A052829704A052055923A052073946A052891382
2076A054011403A054863483A054951528A054094174A052838449A052143033A052424924
2069A053266458A053955932A054002458A053359242A052436472A051734649A051408969
2062A051320257A051351163A051481594A051684118A051889178A051991975A051887242
2055A051586795A051336611A051520577A052268125A053112596A053324932A052781510
2048A052162391A052037767A052207582A052259781A052200506A052160188A052103517
2041A052189559A052727775A053474589A053717230A053261919A052628783A052176609
2034A051701941A050954793A050083488A049546941A049746728A050609489A051498149
2027A051822293A051810545A052215792A053081423A053422256A052603217A051408035
2020A051010531A051490740A052066002A052177944A051767624A051074478A050623773
2013A050885439A051643200A052158186A052087563A051804270A051716826A051771429
2006A051804137A051903730A052142232A052287216A052072878A051585927A051161322
1999A050933700A050660420A050146568A049743324A050025081A050989103A052032894
1992A052682985A052880235A052719564A052349295A051930030A051498683A051124141
1985A051103982A051590266A052213189A052494346A052419851A052267725A052101514
1978A051809477A051469913A051292154A051289351A051336878A051413308A051489204
1971A051406566A051150108A050955060A050970480A051088363A051096171A050748865
1964A049961000A049142428A048926688A049405095A050032290A050247964A049835774
1957A048908999A047889840A047229669A046993770A047020804A047370648A048147567
1950A049019539A049433130A049298226A049068535A049133751A049475651A049907198
1943A050300564A050477722A050233745A049682647A049260712A049144231A048987098
1936A048451018A047653073A046847118A046014729A045085217A044352087A044282999
1929A044841040A045291478A044949978A043941700A042901381A042183403A041772215
1922A041682168A041930015A042249354A042252291A041882956A041507012A041477442
1915A041658605A041480646A040445066A038445797A035665004A032392254A028986001
1908A025894681A023644828A022635481A022803027A023630410A024592696A025476017
1901A026383568A027601245A029218763A030776672A031645640A031690831A031120908
1894A029952627A028267957A026687019A025901423A025864776A025862373A025301128
1887A024180307A022742417A020928984A018534347A015806822A013371266A011525526
1880A010139969A009219602A008927231A009015676A008725508A007344090A004652477
1873A000892575I96449541I91695846I87255148I84069776I82686421I82724136
1866I83471884I84570944I85688829I86176714I85645641I84362480I82619136I80130180
1858I76318546I70866499I63780380I55052178I44423900I31582883I16493748H99302415
1850H80003475H58514091H35035717H10129867G84565783G59246208G35184829G13518420
1842F95510851F82292756F74451212F71995898F74611548F81593669F91535810G02449984
1834G12426302G20261037G25721695G29608090G33732454G40514320G51860709G67921543
1826G87001405H06814196H25688597H42752370H57621759H70292560H81098330H90498784
1818H98821805I06142021I12356368I17425864I21582935I25242710I28675997I31839809
1810I34558523I36673138I37862713I37582491I35506258I31948480I27642153I23118015
1802I18328475I12913141I06860866I00590982H94011105H85771990H74044251H58209104
1794H39922982H22920821H11653333H09253556H16080413H29920631H47413480H65409435
1786H81712575H95326706I06286537I15175410I22624389I29009954I34384636I38607124
1778I41519951I42969256I42649183I39991479I34183448I24146119I08539328H86257939
1770H57632306H25709758G96430428G76785850G71554283G80947528H01020315H26109665
1762H51181058H73000928H90392583I03864667I14712556I24040852I32281302I39347329
1754I45153292I50044094I54718622I59627647I64517314I68793537I72292841I75382426
1746I78381696I81292454I84018511I86460674I88536039I90366561I92198484I93999100
1738I95528974I96857992I98353088A000113988A001829630A003226468A004366514
1731A005460034A006580655A007611495A008351501A008656287A008617705A008611964
1724A008992514A009752678A010658426A011576524A012454170A013177087A013684397
1717A014063811A014374272A014522793A014425603A014188036A014050061A014202854
1710A014687869A015379947A015966157A016122355A015932114A015928910A016450104
1703A017172687A017539819A017402645A017035113A016747681A016662440A016718044
1696A016766639A016704827A016569455A016516054A016651560A016925907A017289235
1689A017859091A018708702A019586748A020114217A020181569A019947272A019569126
1682A019122894A018684604A018334227A018092720A017932451A017856354A017925842
1675A018171153A018464792A018515924A018065286A017148590A016124558A015336559
1668A014795072A014312927A013886053A013719708A013881981A014183363A014438019
1661A014646083A014874506A015163606A015563313A016073627A016565317A016935052
1654A017260532A017628866A017943198A018112479A018312466A018790472A019435957
1647A019802489A019619790A019079905A018512519A017989590A017423272A016912824
1640A016748282A017016689A017373609A017409454A017170751A017029973A017075697
1633A017031842A016823110A016777920A017105335A017532944A017658904A017424739
1626A017064216A016757961A016533143A016392765A016356385A016402911A016485416
1619A016577733A016666178A016721448A016658568A016366331A015880048A015451972
1612A015328081A015571590A016142247A016878714A017395303A017363262A016925173
1605A016517456A016351112A016346172A016429478A016623057A016885990A017040119
1598A016870704A016330953A015705760A015484012A015912556A016729992A017480477
1591A017988789A018285298A018229761A017658837A016855084A016349243A016240505
1584A016217342A016225486A016515988A017042923A017458783A017726790A018107740
1577A018532144A018627999A018389497A018206732A018168683A017890063A017195182
1570A016542888A016467126A016842602A017052468A016766906A016211869A015718376
1563A015339696A014970494A014622920A014442091A014451303A014443893A014311459
1556A014306586A014650622A015098857A015319671A015442026A015744543A016131700
1549A016484281A017128831A018271414A019287836A019311932A018351315A017165545
1542A016288966A015800347A015727988A016031106A016407450A016556572A016422402
1535A016014084A015395834A014960615A015211333A016118217A017046327A017380484
1528A017018225A016319138A015743875A015513583A015611374A016015820A016637141
1521A017085977A016989588A016474535A015843468A015052599A014101926A013537010
1514A013874972A014810892A015507042A015501968A015104131A015018489A015620252
1507A016550565A017168215A017322878A017305055A017104868A016326280A015005472
1500A013921164A013724848A014173284A014552231A014490486A014076427A013575793
1493A013332350A013643078A014491621A015494693A016101529A015883719A014927573
1486A013987715A013854012A014439555A014843600A014449968A013624788A013157128
1479A013302713A013665440A013884384A014082902A014481675A014830851A014638073
1472A013898602A013111270A012555832A012146246A012023758A012533671A013452169
1465A013940989A013530135A012618512A011854677A011466851A011314658A011204853
1458A010963413A010473458A009853873A009433606A009426064A009800405A010471923
1451A011329611A012102324A012502231A012484676A012211129A011936514A011988646
1444A012498426A013093514A013219741A012835721A012496424A012722711A013449099
1437A014093916A014158531A013783790A013549826A013653892A013607967A012911150
1430A011640538A010196040A008882574A007952061A007634658A007900596A008425995
1423A008760286A008298634A006389947A002876959I98298686I93251686I87823135
1416I81866715I75498707I68978305I62272334I55081682I47352080I39532698
1409I32073639I24951340I18314724I13334142I11303834I11936436I13685921
1402I15790590I18821167I23313463I29287372I36640029I44313293I49858325
1395I51035618I47346740I40516879I33868715I29891271I28512590I28444303
1388I28839805I29648897I31159613I33190121I35077114I36676876I38572213
1381I40931538I43113238I44713868I46093351I47773214I50053639I53229867
1374I57386405I61854137I65588673I68170080I69998932I71629533I73374346
1367I75475944I78113956I81058357I83677345I85562535I86968118I88451732
1360I90288462I92352145I94235534I95368971I95451275I94935221I94709468
1353I95255093I96435190I97921875I99355893A000267182A000393609A000042698
1346I99769885I99773890I99810403I99556081I98947242I98266846I97817609
1339I97479981I96943234I96421639I96614884I97789040I99363370A000502414
1332A000739448I99970139I98298019I96289672I95100430I95526571I96872144
1325I97738843I98005715I98751060A000137218A000990566A000816279A000628374
1318A001208843A001758407A000972210I98856327I96888097I96545263I97905654
1311I99568830A000021538I99316243I98999909A000061255A001782103A002985963
1304A003203506A002260710A000256903I98304961I97932755I99542597A002119398
1297A004200971A004861008A004212118A003113592A002192224A001364708A000339474
1290I99226262I98520434I98420240I98391070I97981818I97667219I97969268
1283I98411162I98255632I97417702I96147224I95061581I95559746I98531715
1276A002733777A005864547A006745664A005297561A001584920I96507682I92492390
1269I91743507I94070658I97328923I99465165I99584984I98402217I98224859
1262A000567897A003442943A003732977A001715018I99916471I99928620A001788178
1255A004133419A004971348A003669497A001512495I99661281I97935626I95862597
1248I93574095I91665207I91036610I92468426I95658004I99107245A001324723
1241A001794586A000939168I99611618I98421108I97400681I96576168I96407154
1234I96979480I97372044I96815005I95868471I95396072I95060980I93988554
1227I92367298I91238600I90997094I91026664I90712065I90215502I90143344
1220I90703722I91387923I91520891I90992087I90234994I89574089I88969189
1213I88364355I87842960I87369961I86793964I86157957I85658857I85387246
1206I85512071I86420757I88066911I89539579I90086272I90184730I90651923
1199I91253953I91288463I90941089I90989818I91641511I92386255I92540317
1192I91583103I89522624I87207354I85891753I86262757I87662999I88240465
1185I86583630I83625479I82237185I84244864I88614939I93186336I96847646
1178I99164718I99272321I96748253I93157099I91051029I91104296I91740503
1171I91995226I92577431I93439724I93034611I91039681I89328577I89122516
1164I89240800I88134797I86017312I84266892I84019512I85587634I88007436
1157I89329979I88731020I87809718I88290728I89324239I88771538I86297200
1150I83670469I82714457I83674074I85063903I85053757I83173305I80452322
1143I78218489I77311672I78007021I79724532I81032991I80942076I79992138
1136I79456793I80257875I83034730I87584433I91589511I92377444I90323306
1129I87836486I85747570I83364948I81228973I80965773I82483030I83859909
1122I84044410I83935739I84790022I86403602I87148146I85542176I81916979
1115I78678806I78466871I81607053I85596578I87587436I87035069I85355005
1108I83864115I83036532I83062098I83826334I84532229I84259082I82924523
1101I81307005I80331769I80465138I81406398I82335910I82731678I82718262
1094I82477824I81858839I80905630I80128044I79702971I78932995I77229968
1087I75080243I73467798I72458251I70990256I68477870I65727516I63810685
1080I62861014I62344092I61982633I62002726I62682788I63910678I65235158
1073I66367661I67284824I67835856I68037245I68724983I70662640I73132239
1066I74524738I74383626I73764441I73610579I73914097I74358995I74962427
1059I76078976I78017234I80280036I81225769I79880463I77562991I76018164
1052I75627470I75768248I75855559I75805696I75769583I75803293I75836468
1045I75845346I75975844I76361267I76936597I77678604I78698431I79603312
1038I79466271I78327227I77242251I76797554I76586686I75878789I74691683
1031I73876249I74150797I75293313I76410062I77096533I77435162I77191986
1024I76186045I74899747I73982450I73684206I73848280I74170289I74566925
1017I75162614I75751694I75676532I74682138I73352251I72333893I71810429
1010I71701091I71777588I71654165I71159671I70578534I70248048I70255992
1003I70408118I70113010I68933515I67473330I66662168I66724580I67203654
996I67735462I68392562I69033975I69226286I69118015I69485481I70858823
989I72891667I74242046I73884460I72460587I70939992I69585274I68550429
982I68153993I68252184I68057070I67234760I66177953I65083098I64023488
975I63540008I64242633I65827042I66865025I66506103I65398365I64322601
968I63561569I63234287I63285753I63259453I62933706I63042443I64544015
961I66824840I67488949I66145112I64258052I62634994I61488874I60863881
954I60606422I60538469I60916682I62463310I65577325I68730924I69315799
947I67552029I65451432I64260589I64205519I65023089I66333484I67541082
940I68177956I68717574I70094053I71989990I72597227I71398173I69175955
933I66734259I64887250I64103923I64184492I64456037I64731119I65601222
926I66861887I66572320I64399832I61838651I59865749I58966408I59216058
919I59969414I60594740I61385276I62598347I63243766I62464044I61114533
912I60329938I60217328I59781843I58386940I56668361I55579380I55860804
905I57878295I59650209I57929227I54875486I52941368I51848449I50015992
898I47120386I44494056I43005502I42944024I44446729I47453475I50834563
891I52077072I50898845I49443866I49009515I49677696I50808730I51901316
884I53044032I53996106I53963664I53107245I52604274I53121997I53756335
877I53106377I51574835I50337199I49914663I50032145I49926411I49058978
870I47419966I44981407I41353140I36518142I31705305I28841206I28999140
863I31499244I34541168I36732814I37854703I38439845I39093674I40103421
856I41388785I42672546I43703186I44471294I45334121I46776884I48584443
849I49324315I48471633I47216175I46371170I45515618I43830681I41746438
842I40370226I40123046I40970254I43642910I49550535I55765082I56679108
835I54623368I52723692I51809599I51641987I51482919I51012923I50866070
828I51769749I53589523I55593398I57206110I57340880I55399352I53012325
821I51563020I51226393I51111982I50444535I49853919I50159574I51127668
814I51807397I51904587I51853455I51727295I51295147I50702729I50008716
807I48863931I47288666I46033608I45807522I46577832I47153428I44260693
800I35845422I26502574I19058734I12359039I03789304H87995476H56374310
793H07031138G52114631G03743291F68486715F55514331F72466495G09289257
786G47819384G80049789H06010110H27208258H43987603H56410423H65488201
779H72432274H77863494H81812702H83664117H83399515H82362333H81698558
772H81411594H80500305H78292372H75499830H73038175H70814956H67308576
765H61210844H53995427H46824133H39390707H31530472H23951261H18582652
758H17557086H21043507H27366926H34546564H41189655H47238725H53677424
751H60395143H65425054H68426394H71108795H74508974H78068287H80868372
744H83055812H85168958H87058087H88388975H89623007H91361478H92878802
737H93061167H92289188H91432234H90801234H90204210H89277035H87809908
730H85679071H82495034H77903812H72199912H66047177H60406958H57058445
723H57844975H62889639H69982567H76384419H81312134H85485093H89220496
716H91683486H91919052H90031658H86654776H82415534H78373541H76157464
709H77081770H81115218H86535825H91108624H94152551H96334918H98084203
702H99485847I00978607I02933686I04743248I05413965I05088152I04633909
695I04454949I04520432I04774888I05189280I05684641I06129538I06413699
688I06579910I06848384I07480318I08661348I10389207I12260647I13543674
681I13883372I13708083I13695200I14153047I14868888I15429732I15683855
674I15783448I15887313I16066006I16375599I16765693I17005397I16870960
667I16376934I15730180I15114066I14616902I14294159I14126013I13874093
660I13070007I11033958I06799054H99718943H91130518H84877455H84597767
653H90271629H98352744I05223256I09694059I12448085I14354502I15689328
646I16342423I16322732I15972821I15705482I15687526I15863883I16138698
639I16431937I16652083I16735588I16751075I16897193I17285286I17731919
632I17933307I17854474I17774306I17915418I18188030I18365122I18413850
625I18561904I19033769I19769102I20413853I20571119I20087439I19162533
618I18188965I17454300I17039307I16973624I17331010I18125217I19237561
611I20440086I21440021I22011746I22147451I21968024I21532738I20858617
604I19992986I18906074I17384545I15069943I11479990I05974275H97676219
597H85208943H66298629H37642757G95515868G37548626F65311155E85736979
590E09741675D49118131D13581701D08175144D31204415D74163024E24551289
583E70389317F04280161F25491726F38903934F50884260F65208892F82490206
576G02079915G22880692G42756764G58764130G68538124G71843182G71732842
569G73772629G82246575G96566734H12248220H25295833H34771182H41648637
562H46888815H51018652H54444997H57437125H60014527H62102241H63677772
555H64728638H65252369H65378796H65312311H65015001H64024946H61665220
548H57326384H50343129H39383497H21853401G94294920G54610863G05432032
541F55683879F17010838E95709225E87184481E80254961E68374695E55783628
534E52298409E63786343E88534994F20576292F53944340F84324065G09191266
527G27864012G41265406G51123374G59077060G66041225G71870484G75552152
520G75879634G72051647G64197954G54230581G46008755G43192250G45516998
513G46920311G38685268G16951640F88430339F67215570F64086869F78902456
506G03168562G27951456G48531754G63995030G75220732G83481741G89615853
499G93733542G95611323G95331301G93577811G91532951G90514393G91443237
492G94429157G98814785H03641840H08157433H12029676H15163651H17424651
485H18687853H19068736H18825428H18057587H16725832H14899850H12774354
478H10477708H07987684H05202619H02081595G98788485G95705642G93288844
471G91927652G91858297G93044201G95188453G97967845H01155754H04524693
464H07842634H10864933H12989827H12721020H07045957G91553711G63880084
457G29891583G04389577G00721324G18999037G47066763G72240286G89636413
450H00825535H08756259H15069398H20068871H23594742H25801874H27323270
443H28829113H30532273H32134704H33258530H33903482H34414196H35048534
436H35708570H36150331H36372880H36641954H37112952H37651768H38106612
429H38472609H38716652H38735275H38573003H38465800H38607847H38963164
422H39312941H39446577H39312274H39009089H38716919H38643759H38910898
415H39454254H40132380H40884134H41657247H42274630H42524814H42348190
408H41835340H41104880H40244322H39274893H38134247H36843944H35710840
401H35093056H34891801H34606039H33965560H33132237H32221081H31090381
394H29641744H27815361H25265795H21715492H17900254H15609616H16336672
387H20019809H25233821H30364994H34433153H37077640H38121898H37164617
380H33419468H25968820H14308433G98803905G80847200G62641647G46439367
373G33470121G23397014G14804718G06171971F96574333F86080626F76082213
366F69227988F68360555F74810868F87488411G03691291G20780963G37138640
359G52026586G65116786G76198839G85179628G92318547G98203343H03234190
352H07329983H10281994H12117855H13119525H13865471H15163984H17506555
345H20635056H23858009H26607630H28635802H30048860H31247313H32536415
338H33791473H34713642H35276022H35678199H35952947H35818176H34970101
331H33452176H31631667H29882850H28502633H27782853H27810555H28336222
324H29173750H30432280H31973835H32983915H32455178H29898136H25311987
317H18323257H07068585G87843406G56289992G09616071F48801418E80244013
310E15627472D68308934D47262512D52820226D77497553E10969232E44944350
303E74690170E98148051F15511002F29617691F44865494F64050155F86198909
296G07862047G26119132G40104334G50434100G57977866G63006443G65010050
289G63064717G56303408G44806630G31233284G21122730G19670555G27605818
282G40954879G54608327G65459354G72876493G77693201G81223277G84582671
275G88174225G91599502G94317148G96410069G98360810H00200543H01449994
268H01905772H01995018H02303943H03074454H04141874H05160365H05918861
261H06514416H07129262H07679160H07950437H08074461H08420500H08952374
254H09207164H09025801H08805788H08952975H09483114H10133071H10577235
247H10624027H10341202H09907852H09385590H08705862H07726019H06136937
240H03199078G97667597G88873378G78763291G71986764G72234345G78512039
233G86184435G91503180G94011561G95101543G95873589G96544640G96906298
226G96879197G96712786G96720196G96959165G97335509G97874259G98621340
219G99364482G99778140G99894688H00139999H00823533H01805778H02435310
212H01463144G97622807G91433692G87642885G91692487G99497050H04341994
205H05443191H04977066H04705856H04621082H03845031H02260355H00766527
198H00149077H00277373H00714261H01558531H03053694H04836822H06184463
191H06563478H05527898H02638301G97985734G92502314G87535081G84328949
184G83695078G85636741G89255730G93303596G96919849G99872260H02278911
177H04132595H05073322H04890490H04255818H04372032H05697180H07587175
170H09246013H10210369H10034747H08556672H06612540H05705190H06648052
163H08738169H10407019H10753124H10378583H10500404H11426578H12360763
156H12499539H11830423H10941497H10398675H10309829H10347877H10241476
149H10188208H10529975H11192014H11772550H11869273H11106306H09582373
142H08426774H08845572H10396339H11129468H09941695H08007309H06957177
135H06597721H05643311H03830880H01646576G98472151G92976315G85013484
128G75245764G63582040G50335174G38640277G33322200G36617979G46169826
121G57476030G67520634G75692931G82260926G87471067G91711845G95222363
114G97890079G99865918H01622279H03250677H04471692H05083668H04829479
107H03309151H00252141G95347188G88015290G77621844G63507412G44517130
100G18662009F83988039F41150850E95881844E58483786E39518335E43514937
93E66467543E99073224F31033620F56184648F75215381F91248045G05114897
86G15908384G23574239G29345557G34643609G40396438G46673131G52536633
79G57019117G60579031G64509349G68862669G72320654G74148305G75218129
72G76691330G78556428G80175081G81670978G83352778G84311794G83311392
65G80584533G77193167G73277935G68252896G61783492G53487839G42566990
58G28536665G11873734F94654231F80675305F73794245F76290410F87843995
51G05165827G23601473G39180829G50116230G57242734G62511949G67650999
44G73866148G81133697G87646623G91186912G91478482G90345645G89549569
37G89762840G91183975G93609918G96082721G97512067G98214157G99090668
30G98976056G95636889G88278357G78845395G70545203G65430250G64103034
23G66688979G72886639G80980903G87708434G89926047G88278891G87647290
16G88749955G88122827G86782260G88800486G92903756G92096199G84036511
9G77365519G81654824G93358065H03138201H08466358H10536917H08007710
2G98610659G87294576
##END=


$$ === CHEMSPECTRA PEAK TABLE EDIT ===
##TITLE=X8219
##JCAMP-DX=5.00
##DATA TYPE=INFRAREDPEAKTABLE
##DATA CLASS=PEAKTABLE
##$CSTHRESHOLD=0.93
##MAXX=3997.453
##MAXY=0.9587826103507275
##MINX=373.96442
##MINY=0.36447423548351815
##$CSSOLVENTNAME=- - -
##$CSSOLVENTVALUE=0
##$CSSOLVENTX=0
##NPOINTS=34
##PEAKTABLE= (XY..XY)
385.29667513685536, 0.6941375715635769
406.54465351837325, 0.6822950227164902
449.0406102814695, 0.601655063835953
507.11841785770093, 0.48175528463454315
548.197842728694, 0.654809711313758
633.1897562549143, 0.6997894619625494
668.6030535574941, 0.7033146005196427
706.8494146442531, 0.68933468818056
774.8429454652069, 0.642619667535719
808.839710875684, 0.3993767492163557
835.753816825671, 0.7391570185702941
889.5820287255665, 0.596803127019819
923.5787941360691, 0.7282870983555183
1017.0698990148553, 0.6256992199808542
1039.734409288531, 0.7071406227542303
1070.8981109148012, 0.706708071215076
1092.146089296325, 0.5929869994078284
1102.0618125410474, 0.6636230331948525
1128.9759184910085, 0.493167071385999
1204.0521087724783, 0.36447423548351815
1298.9597455434155, 0.7898890943681577
1378.2855315011943, 0.782352444896983
1396.7004460985358, 0.7660005662336528
1446.2790623221476, 0.7300260642132166
1490.1915509773257, 0.5853322725592396
1595.014910992983, 0.8317691064754672
1898.1527359030665, 0.8590067603232362
2338.69415434716, 0.8293943979451015
2362.775196512914, 0.8137359000732023
2874.1432095621576, 0.6889485103739169
2909.556506864747, 0.7226115442625248
2977.5500376856917, 0.6000492552569793
3020.045994448796, 0.8787112212546606
3071.041142564511, 0.9132975312089391
##END=


$$ === CHEMSPECTRA PEAK TABLE AUTO ===
##TITLE=X8219
##JCAMP-DX=5.00
##DATA TYPE=INFRAREDPEAKTABLE
##DATA CLASS=PEAKTABLE
##$CSTHRESHOLD=0.93
##MAXX=3997.453
##MAXY=0.9587826103507275
##MINX=373.96442
##MINY=0.36447423548351815
##NPOINTS=108
##PEAKTABLE= (XY..XY)
3018.6294625566848, 0.8774759739265497
2977.5500376856917, 0.6000492552569793
2909.556506864738, 0.7226115442625248
2874.1432095621576, 0.6889485103739169
2362.7751965129005, 0.8137359000732023
2340.110686239249, 0.8290412400147347
2290.532070015637, 0.8882117841000066
2266.451027849883, 0.8897406430357238
2253.7022408209536, 0.8885608881014327
2232.4542624394057, 0.8898510313421891
2214.0393478420638, 0.8910899727460769
2192.791369460516, 0.8908528661215899
2184.2921781078967, 0.8885261984350421
2170.1268591868647, 0.8855633710747662
2161.6276678342456, 0.8913508028912895
2137.546625668491, 0.884932157372933
2121.9647748553552, 0.889727708859357
2107.7994559343233, 0.8848968721183037
2102.1333283659105, 0.8841345281022162
2082.301881876466, 0.879887637501659
2068.136562955434, 0.8848468632437843
2056.8043078186083, 0.8803381299087152
2048.305116465989, 0.8770748349790697
2035.55632943706, 0.8849450326155308
2022.8075424081312, 0.8832229941434993
2015.7248829476152, 0.8786663387250857
2008.642223487099, 0.882050749692979
2000.1430321344799, 0.8775010082771617
1990.2273088897575, 0.8726766676447081
1981.7281175371381, 0.8745921231740008
1966.146266724003, 0.875939545573293
1960.4801391555902, 0.8785915348067728
1950.5644159108676, 0.8737081862919002
1940.648692666145, 0.8777886006039335
1930.7329694214227, 0.8753734206472894
1899.5692677951524, 0.8589888185623984
1878.321289413604, 0.8693718288727803
1862.739438600469, 0.8711727832328983
1857.0733110320562, 0.8712996810310338
1832.9922688663014, 0.8696090551506767
1818.8269499452695, 0.8694375730635534
1803.2450991321343, 0.867666778506056
1796.1624396716184, 0.8663693042616427
1787.6632483189992, 0.8631673433124095
1777.7475250742764, 0.8653602572390584
1763.5822061532444, 0.8644994473965087
1753.666482908522, 0.8603794545940872
1742.3342277716965, 0.8601064653408604
1738.084632095387, 0.8598380657781084
1722.5027812822514, 0.8576992726957524
1709.7539942533226, 0.8609737132511769
1691.339079655981, 0.8608829945364965
1677.1737607349492, 0.8562955230075832
1657.342314245504, 0.8532711241459482
1640.3439315402657, 0.8419885612906214
1630.4282082955433, 0.8474046558949934
1619.0959531587177, 0.8506145452219939
1610.5967618060981, 0.8482128950299551
1597.8479747771694, 0.8293956489482833
1563.8512093666927, 0.8394696087895209
1546.852826661454, 0.8490624404862523
1529.8544439562156, 0.8481586545322529
1511.439529358874, 0.8445454814257646
1490.1915509773257, 0.5853322725592396
1446.2790623221263, 0.7300260642132166
1398.1169779906177, 0.7652982453680911
1378.2855315011725, 0.782352444896983
1357.0375531196246, 0.8076202848502196
1334.373042845973, 0.815871236600728
1298.9597455433932, 0.7898890943681577
1281.9613628381544, 0.8176502559907082
1264.962980132916, 0.8195136167472423
1243.7150017513682, 0.8187986590529653
1204.0521087724783, 0.36447423548351815
1179.971066606724, 0.6891079521134994
1128.9759184910085, 0.493167071385999
1102.0618125410474, 0.6636230331948525
1092.146089296325, 0.5929869994078284
1072.3146428068803, 0.7058786730712647
1038.3178773964032, 0.7070786931855794
1017.0698990148553, 0.6256992190879184
974.573942251759, 0.748696205357562
963.2416871149335, 0.7488551113356106
923.5787941360436, 0.7282870983555183
889.5820287255665, 0.596803127019819
835.7538168256447, 0.7391570185702941
808.839710875684, 0.3993767492163557
774.8429454652069, 0.642619667535719
729.5139249179042, 0.7222117161449313
706.8494146442531, 0.68933468818056
691.267563831118, 0.7114134406412895
668.6030535574664, 0.7033146005196427
653.0212027443313, 0.7144818282036736
633.1897562548866, 0.6997894619625494
619.0244373338542, 0.718148884633508
606.2756503049254, 0.7194430809102691
599.1929908444095, 0.7236161212480439
587.8607357075839, 0.7235547283338628
583.6111400312743, 0.7234461285779852
573.6954167865515, 0.7218732809415189
548.197842728694, 0.654809711313758
507.11841785770093, 0.48175528463454315
449.0406102814695, 0.601655063835953
426.3761000078184, 0.7050171470941314
406.54465351837325, 0.6822950227164902
396.6289302736509, 0.7033185339022381
392.3793345973413, 0.7025461175693114
385.29667513682534, 0.6941375715635769
##END=

##END=

