##TITLE=CHS- 283
##JCAMP-DX=4.24
##DATA TYPE=INFRARED SPECTRUM
##DATE=29/8/2019
##SAMPLING PROCEDURE=Diamant-ATR
##ORIGIN=Fabienne
##XUNITS=1/CM
##YUNITS=TRANSMITTANCE
##RESOLUTION=4
##FIRSTX=3997.453
##LASTX=373.96442
##DELTAX=-1.4165319
##MAXY=0.99910241
##MINY=0.8587153
##XFACTOR=1
##YFACTOR=9.3048663e-010
##NPOINTS=2559
##FIRSTY=0.9931758
##XYDATA=(X++(Y..Y))
3997+1067372458+1066979529+1066616323+1066705491+1067234862+1067691721
3989+1067702802+1067438117+1067231980+1067138712+1067016426+1066799464
3980+1066562643+1066426713+1066456051+1066624715+1066866083+1067114242
3972+1067302507+1067398017+1067433825+1067451249+1067412110+1067200848
3963+1066751933+1066209814+1065882993+1065961848+1066382321+1066960312
3955+1067476936+1067705429+1067585513+1067317497+1067131858+1067007394
3946+1066743029+1066314036+1066051913+1066355417+1067124748+1067804718
3938+1068093297+1068138009+1068069916+1067754945+1067126349+1066462137
3929+1066065301+1065927705+1065919954+1066039229+1066356378+1066793506
3921+1067097395+1067146719+1067191496+1067535869+1067959929+1067974855
3912+1067530360+1067006369+1066742132+1066804973+1067068441+1067300778
3904+1067310578+1067237361+1067384821+1067689799+1067889914+1067941673
3895+1067859871+1067515178+1066879984+1066344719+1066375851+1066858589
3887+1067298984+1067310899+1066951216+1066684993+1066753534+1066901443
3878+1066803371+1066529846+1066267210+1066032952+1065835142+1065874666
3870+1066286747+1066736944+1066832389+1066710103+1066707925+1066801065
3861+1066652067+1066160170+1065581731+1065258496+1065429914+1066084902
3853+1066677178+1066699854+1066588202+1066772624+1067275667+1067894462
3844+1068285085+1068190280+1067809778+1067647265+1067814775+1067875566
3836+1067666162+1067587947+1067805743+1067955381+1067690632+1067180798
3827+1066869671+1066908489+1067045637+1067088683+1067120456+1067170997
3819+1067085801+1066917778+1066830147+1066854361+1067091566+1067664048
3810+1068348694+1068600760+1068017837+1066842831+1065794081+1065365344
3802+1065739248+1066657512+1067332870+1067335689+1066828866+1066256384
3793+1066076511+1066360990+1066739570+1066793378+1066507490+1066235309
3785+1066180348+1066115842+1065816694+1065560335+1065836359+1066587561
3776+1067212699+1067365668+1067132435+1066715420+1066359261+1066384435
3768+1066936483+1067732909+1068206102+1067963581+1067257347+1066748922
3759+1066783770+1067036669+1067122377+1067194058+1067499164+1067907274
3751+1068011303+1067629200+1066974277+1066267082+1065866338+1066280214
3742+1067209752+1067742198+1067622538+1067146463+1066746680+1066638871
3734+1066535483+1066174070+1065757953+1065474050+1065285785+1065135890
3725+1064970686+1064681338+1064350610+1064354837+1064850578+1065456242
3717+1065697675+1065496086+1065182845+1065289628+1066028339+1066695434
3708+1066647263+1066301929+1066232042+1066422741+1066533305+1066464763
3700+1066454194+1066633811+1066980939+1067546566+1068271633+1068698064
3691+1068227369+1066927194+1065929371+1065958837+1066257345+1066164205
3683+1065928986+1066041663+1066483084+1066731499+1066447083+1065897790
3674+1065658023+1065892794+1066462521+1067227752+1067781657+1067839181
3666+1067658539+1067481292+1067315191+1067183937+1067186947+1067265098
3657+1067131153+1066610302+1066001371+1065705362+1065701454+1065688579
3649+1065590250+1065785433+1066314548+1066776019+1066964860+1066907785
3640+1066742837+1066669555+1066813748+1067093616+1067280023+1067203474
3632+1066945002+1066834503+1067133908+1067563093+1067756034+1067914256
3623+1068275861+1068762249+1069081704+1068893055+1068143902+1067377583
3615+1067150114+1067303724+1067114562+1066264455+1065281621+1064773773
3606+1064768136+1064969213+1065217308+1065492114+1065832644+1066269260
3598+1066707669+1067022448+1067198990+1067211610+1067012391+1066800296
3589+1066987536+1067735728+1068535358+1068672313+1068077603+1067127694
3581+1066270028+1065850067+1065856537+1065935200+1065805548+1065574172
3572+1065538556+1065697675+1065641176+1065062352+1064443365+1064681338
3564+1065734956+1066851606+1067560467+1067853914+1067951602+1067973830
3555+1067838028+1067471299+1066999131+1066656103+1066593198+1066812724
3547+1067170549+1067414608+1067382195+1067118342+1066717918+1066250811
3538+1065825662+1065537595+1065383729+1065346576+1065466747+1065688514
3530+1065744373+1065424534+1064931547+1064681146+1064788571+1065057868
3521+1065347729+1065680828+1066070681+1066383730+1066358107+1065854487
3513+1065161321+1064817973+1065011363+1065359771+1065448683+1065302568
3504+1065168239+1065139221+1065123271+1065052872+1064979974+1064963063
3496+1064978181+1064989967+1065027890+1065106808+1065157478+1065135570
3488+1065143577+1065308205+1065536506+1065546691+1065212567+1064771147
3479+1064549316+1064553864+1064520682+1064307755+1064071575+1063991247
3471+1064007069+1064015397+1064163177+1064679801+1065428377+1065883762
3462+1065697995+1065197065+1065088872+1065618436+1066280342+1066476422
3454+1066173622+1065701774+1065209044+1064623815+1064002905+1063632653
3445+1063736554+1064203598+1064674228+1064843788+1064686847+1064424276
3437+1064273805+1064234281+1064156131+1064005404+1063920335+1063974016
3428+1064068372+1064121924+1064178679+1064248630+1064222559+1064069782
3420+1064010400+1064263876+1064647068+1064710036+1064291869+1063672561
3411+1063183610+1062994192+1063208849+1063784085+1064389621+1064662377
3403+1064535736+1064200779+1063902271+1063789530+1063809644+1063806249
3394+1063776911+1063807466+1063788121+1063557962+1063266949+1063205326
3386+1063386288+1063602546+1063724319+1063684027+1063416651+1063032627
3377+1062819635+1062916490+1063168044+1063360601+1063436637+1063453100
3369+1063458032+1063456239+1063443812+1063413833+1063305640+1063021032
3360+1062573142+1062200968+1062237609+1062786774+1063546432+1064077725
3352+1064241520+1064213975+1064151839+1064095020+1064104949+1064225762
3343+1064396090+1064578975+1064770250+1064802087+1064447144+1063765572
3335+1063080734+1062687741+1062788055+1063444004+1064333058+1064834436
3326+1064632655+1064040443+1063569236+1063388338+1063334914+1063282771
3318+1063329597+1063606133+1064002970+1064202893+1064031795+1063676084
3309+1063462452+1063524780+1063755579+1063967546+1064039739+1064025582
3301+1064087590+1064225954+1064242032+1064079646+1063917901+1063833153
3292+1063747252+1063772875+1064152736+1064735915+1064956722+1064532917
3284+1063890741+1063672625+1063977090+1064349777+1064450475+1064379692
3275+1064328125+1064305962+1064311214+1064399998+1064543999+1064699659
3267+1064927447+1065202062+1065312945+1065166702+1064935390+1064760001
3258+1064596206+1064450924+1064462454+1064640726+1064787802+1064772300
3250+1064685246+1064648541+1064643865+1064625352+1064655715+1064778706
3241+1064862941+1064774606+1064624391+1064600818+1064615551+1064436767
3233+1064115647+1063901118+1063800228+1063652191+1063559499+1063768455
3224+1064171569+1064379628+1064289627+1064226146+1064474689+1064878443
3216+1064996693+1064636370+1064134672+1063979525+1064206736+1064406468
3207+1064301413+1064022955+1063794719+1063671664+1063651422+1063792541
3199+1064143576+1064663018+1065186304+1065473602+1065415758+1065155940
3190+1064881390+1064605430+1064265605+1063851602+1063399292+1063053061
3182+1063078171+1063571094+1064235050+1064637459+1064631758+1064421713
3173+1064304424+1064418318+1064665068+1064831041+1064816564+1064774798
3165+1064955184+1065386099+1065833092+1066112575+1066231722+1066194697
3156+1065983499+1065717148+1065503837+1065254141+1064937376+1064757503
3148+1064796962+1064812656+1064600049+1064239982+1063869025+1063530417
3139+1063316850+1063404224+1063826107+1064305001+1064413386+1063968699
3131+1063264899+1062842696+1063002968+1063517478+1063855317+1063760128
3122+1063528560+1063632205+1064179896+1064857881+1065287771+1065325180
3114+1065025712+1064449450+1063685629+1063067154+1063054534+1063722974
3105+1064564305+1064974337+1064788891+1064288474+1063879723+1063823865
3097+1064089511+1064399742+1064529010+1064554312+1064734891+1065201806
3088+1065797220+1066159914+1065984012+1065292575+1064465657+1063953517
3080+1063944165+1064284630+1064670128+1064883888+1064888500+1064742001
3071+1064495956+1064195654+1063932378+1063822199+1063875879+1063929496
3063+1063852947+1063798690+1064013539+1064380588+1064455280+1064042749
3054+1063450281+1063070356+1062993103+1063104051+1063318643+1063592553
3046+1063839815+1063993425+1064084387+1064142743+1064101938+1063936798
3037+1063801829+1063869474+1064112252+1064379371+1064598768+1064768521
3029+1064810606+1064574491+1064026479+1063368416+1062902270+1062793564
3020+1062967736+1063183418+1063239917+1063174898+1063202635+1063442018
3012+1063806697+1064121412+1064212117+1063972030+1063500631+1063093673
3003+1063010399+1063299746+1063800740+1064224865+1064313264+1064031539
2995+1063589414+1063264835+1063225055+1063445285+1063720668+1063771145
2986+1063434267+1062826618+1062272200+1062012383+1062039671+1062235239
2978+1062500245+1062719385+1062781457+1062683257+1062487946+1062213139
2969+1061863898+1061518307+1061300384+1061272263+1061328697+1061250675
2961+1060948324+1060580954+1060350027+1060289428+1060325685+1060377571
2952+1060345799+1060160737+1059899382+1059759481+1059900343+1060318831
2944+1060814444+1061066125+1060863960+1060304033+1059663651+1059082201
2935+1058486722+1057827058+1057244583+1056923143+1056830516+1056709383
2927+1056372056+1055914173+1055557181+1055408247+1055491009+1055803930
2918+1056208325+1056508691+1056757106+1057189430+1057825585+1058453989
2910+1058974264+1059435798+1059826100+1060106096+1060361877+1060713105
2901+1061155165+1061557959+1061759932+1061698437+1061541560+1061599404
2893+1061984390+1062435354+1062619328+1062547904+1062497362+1062560267
2884+1062561292+1062437596+1062351695+1062349710+1062269446+1062067280
2876+1061905343+1061893172+1062013728+1062245488+1062526508+1062705805
2867+1062695236+1062539192+1062268485+1061829435+1061214419+1060554626
2859+1060034992+1059734370+1059603757+1059621821+1059866713+1060322994
2850+1060786002+1061137165+1061544955+1062174833+1062844618+1063193539
2842+1063120321+1062898618+1062900412+1063281746+1063880812+1064365535
2833+1064506333+1064357079+1064167021+1064122181+1064211349+1064332353
2825+1064438881+1064542910+1064647708+1064712022+1064642071+1064375336
2816+1064044223+1063937311+1064176758+1064565779+1064855190+1065024366
2808+1065188610+1065355415+1065381359+1065153506+1064757695+1064414155
2799+1064248054+1064213462+1064250039+1064384176+1064634512+1064914828
2791+1065109499+1065219101+1065358042+1065565780+1065718686+1065736045
2782+1065750586+1065896381+1066046788+1065971264+1065673461+1065383857
2774+1065252091+1065217500+1065173108+1065100467+1065017768+1064956337
2765+1065005085+1065203151+1065402306+1065435615+1065372327+1065416654
2757+1065624969+1065885363+1066080354+1066114945+1065852374+1065235244
2748+1064530227+1064256958+1064654626+1065343181+1065738736+1065671283
2740+1065367074+1065030196+1064731880+1064553544+1064573722+1064744691
2731+1064919889+1064979654+1064907333+1064791710+1064746037+1064801318
2723+1064893497+1064953198+1064962359+1064933148+1064908102+1064949547
2714+1065056843+1065130766+1065088232+1064954416+1064822585+1064791005
2706+1064909127+1065102004+1065214105+1065206610+1065218396+1065369444
2697+1065588777+1065703056+1065632400+1065441060+1065218845+1065025519
2689+1064949291+1065086438+1065400704+1065715291+1065872167+1065832003
2680+1065655333+1065468221+1065397437+1065468029+1065569880+1065550278
2672+1065350163+1065050374+1064772877+1064574747+1064462454+1064434205
2663+1064474625+1064586597+1064811824+1065109691+1065292767+1065204432
2655+1064887732+1064498262+1064166829+1063993233+1064037625+1064267783
2646+1064586021+1064890550+1065080289+1065095534+1065007327+1064960373
2638+1064988430+1065016231+1065049221+1065163948+1065305066+1065322234
2629+1065221727+1065152289+1065143834+1065080673+1064949996+1064902017
2621+1064995412+1065042879+1064860507+1064554248+1064372517+1064388147
2612+1064537914+1064826301+1065233130+1065561104+1065628941+1065525872
2604+1065479495+1065521324+1065411274+1064969341+1064420432+1064213462
2595+1064473920+1064876009+1065105207+1065167663+1065188161+1065180731
2587+1065118851+1065041278+1064987085+1064909511+1064739823+1064554697
2578+1064584163+1064950380+1065445352+1065713177+1065614976+1065278803
2570+1064891511+1064657445+1064801831+1065295009+1065705041+1065668977
2561+1065383665+1065272013+1065324219+1065201677+1064899070+1064829696
2553+1065202766+1065661354+1065711063+1065341835+1065006238+1064986060
2544+1065030836+1064795553+1064402816+1064249783+1064410247+1064610747
2536+1064691460+1064705937+1064671153+1064593644+1064660456+1065066132
2527+1065687105+1066140120+1066133202+1065689411+1065094253+1064636050
2519+1064383727+1064265669+1064295328+1064544255+1064947433+1065318582
2510+1065507808+1065446377+1065127947+1064616512+1064023468+1063505243
2502+1063292956+1063550852+1064122309+1064585829+1064657445+1064470269
2493+1064422738+1064748279+1065258304+1065593005+1065635539+1065471680
2485+1065128396+1064686143+1064459379+1064683965+1065151777+1065444968
2476+1065407815+1065237229+1065221279+1065474883+1065851733+1066090539
2468+1066044098+1065758657+1065358939+1064926166+1064538682+1064359321
2459+1064524654+1064935583+1065297764+1065378668+1065113214+1064549380
2451+1063877737+1063458417+1063612603+1064306154+1065121670+1065636756
2442+1065785690+1065780437+1065803690+1065884594+1065912395+1065716444
2434+1065292831+1064877803+1064616192+1064387507+1064147099+1064122052
2425+1064454511+1064950764+1065320120+1065475587+1065520492+1065528307
2417+1065412491+1065090217+1064731944+1064651808+1064918736+1065238511
2408+1065287258+1065082979+1064922067+1064954736+1064991441+1064818614
2400+1064512419+1064306538+1064325947+1064570071+1065004957+1065562577
2391+1066111935+1066497240+1066602871+1066393852+1065953136+1065508257
2383+1065309102+1065353045+1065356825+1065144794+1064891831+1064827582
2374+1065005021+1065481801+1066243060+1066816695+1066568536+1065485580
2366+1064232103+1063673394+1064488718+1066377837+1067547655+1066306797
2357+1063445093+1061553027+1061812267+1062997907+1063654689+1063709330
2349+1063791131+1064295969+1065147036+1065806701+1065726244+1065097264
2340+1064676278+1064913098+1065505310+1065827904+1065730728+1065679867
2332+1066058382+1066563924+1066525746+1065706130+1064554569+1063840264
2323+1064084963+1065033975+1065793377+1065777106+1065241970+1064794400
2315+1064757887+1065044993+1065361629+1065474434+1065364512+1065148189
2306+1064925974+1064805738+1064976451+1065566229+1066389816+1067017067
2298+1067135958+1066719712+1065873128+1064734955+1063522410+1062464885
2289+1061700807+1061357779+1061622016+1062540601+1063816947+1064919248
2281+1065432477+1065369380+1065115648+1064955889+1064775247+1064497814
2272+1064548932+1065295073+1066191238+1066230121+1065251066+1064112124
2264+1063569044+1063644055+1064103924+1064858137+1065677625+1066108155
2255+1066093550+1066297765+1067173944+1067997019+1067621385+1066095087
2247+1064752442+1064703695+1065811953+1067139673+1067968257+1068303982
2238+1068479820+1068450289+1067864163+1066807471+1065979015+1066042752
2230+1067039039+1068256515+1068668469+1067997467+1067279382+1067740084
2221+1069237492+1070475339+1070628052+1070058004+1069390397+1068572383
2213+1067294564+1065964346+1065613695+1066728168+1068520368+1069605694
2204+1069365479+1068489877+1068173049+1069020145+1070717284+1072385021
2196+1073149291+1072645287+1071132825+1069265741+1067912463+1067818170
2187+1068916756+1070299245+1071213602+1071555669+1071363688+1070835150
2179+1070658736+1071275930+1072127702+1072393221+1071930597+1070954361
2170+1069558164+1068099511+1067413199+1068052236+1069551694+1070878709
2162+1071542537+1071998050+1072876983+1073741823+1073088885+1070287779
2153+1066991764+1065733355+1067148385+1069450035+1070706330+1070540486
2145+1069563545+1068495962+1067986833+1068249982+1068800300+1068995098
2136+1068608063+1067763849+1066777812+1066121992+1066106105+1066473923
2128+1066588330+1066125194+1065380846+1064785176+1064398525+1064153505
2119+1064256317+1064952366+1066089963+1067187332+1067760774+1067597748
2111+1066993174+1066573853+1066619014+1066806510+1066761093+1066457525
2102+1066052617+1065749625+1065740273+1065933342+1065941798+1065530036
2094+1064891703+1064505437+1064842699+1065986126+1067398722+1068310644
2085+1068391228+1067937381+1067539136+1067601207+1067946669+1067863331
2077+1066808047+1065132303+1063885168+1063784085+1064557836+1065433245
2068+1066015528+1066408393+1066735534+1066898176+1066716894+1066140504
2060+1065361693+1064714648+1064437279+1064601715+1065155748+1065898623
2051+1066549832+1066820474+1066493845+1065917584+1066078945+1067174648
2043+1067710553+1066374250+1064074137+1062682424+1062715990+1063451434
2034+1064256637+1065049861+1066210647+1068186308+1070583917+1071986904
2026+1071245630+1068660975+1065664557+1063671728+1063324857+1064310894
2017+1065626379+1066517611+1067201617+1068084457+1068788193+1068828293
2009+1068496347+1068068379+1067259461+1066339082+1066215644+1066899714
2000+1067377967+1067147680+1066794916+1066998618+1067653094+1068051211
1992+1067859551+1067696909+1068065496+1068221796+1067264265+1065697483
1983+1064736620+1064771724+1065586151+1067224229+1069443437+1071172925
1975+1071672958+1071243517+1070175678+1068194444+1065436833+1063211859
1966+1062972669+1064569238+1066413453+1067442857+1068094898+1069075683
1958+1070038403+1070307316+1070039043+1069752130+1069386618+1068566682
1949+1067338187+1066174391+1065527922+1065448427+1065487118+1065200012
1941+1064781781+1064657445+1064659239+1064369699+1064087077+1064673139
1932+1066253438+1067797864+1068360353+1068092336+1067705813+1067540289
1924+1067483277+1067317561+1066915664+1066352919+1065897918+1065701967
1915+1065624393+1065551560+1065563026+1065660906+1065574748+1065039484
1907+1064215320+1063610810+1063543293+1063804455+1063958321+1063869538
1898+1063771978+1063927446+1064336389+1064696328+1064675573+1064296033
1890+1064002585+1064230438+1064886451+1065517289+1065871206+1066075486
1881+1066296676+1066374058+1066024688+1065345102+1064768008+1064538682
1873+1064599729+1064966074+1065712664+1066443304+1066497625+1065961720
1864+1065421331+1065071641+1064745460+1064424788+1064308332+1064473088
1856+1064793119+1065102965+1065283671+1065305835+1065234923+1065134481
1847+1065068502+1065191749+1065561553+1065858715+1065810096+1065602037
1839+1065481929+1065420370+1065266119+1065058573+1064973377+1065056779
1830+1065157286+1065119107+1064978373+1064853013+1064808877+1064905348
1822+1065179385+1065526385+1065708885+1065598962+1065361181+1065245044
1813+1065299878+1065412170+1065469118+1065381743+1065089897+1064691075
1805+1064435806+1064476675+1064701260+1064884529+1064923284+1064831617
1796+1064659175+1064527665+1064608249+1064909960+1065152930+1065107321
1788+1064832002+1064524205+1064361371+1064385841+1064532917+1064744435
1779+1064948138+1065045057+1065037754+1065044801+1065091370+1064930266
1771+1064372517+1063722462+1063376039+1063354259+1063429591+1063488460
1762+1063574489+1063665002+1063657251+1063551364+1063389042+1063168813
1754+1062945701+1062858070+1062918989+1062881771+1062616893+1062369760
1745+1062350158+1062480899+1062596075+1062643798+1062575256+1062243759
1737+1061592934+1060776586+1060086174+1059594148+1059001488+1058180271
1728+1057271616+1056411067+1055585686+1054729430+1053830831+1052909172
1720+1052032289+1051465764+1051555573+1052110375+1052688302+1053296207
1711+1054055161+1054842876+1055392809+1055543601+1055351364+1055053240
1703+1054904627+1055046642+1055327150+1055344061+1055057148+1054719565
1694+1054433804+1054206272+1054111659+1054190642+1054302487+1054280963
1686+1054198073+1054222671+1054175525+1053816739+1053312478+1052905841
1677+1052762672+1052980852+1053445846+1053850561+1054109609+1054415932
1669+1054802840+1054991489+1054909816+1054767928+1054699707+1054570823
1660+1054215753+1053697335+1053134462+1052629305+1052528094+1053339766
1652+1054310686+1054496901+1054268920+1054126521+1054230806+1054372437
1643+1054402608+1054361163+1054309725+1054341626+1054634432+1055306460
1635+1056027683+1056389544+1056543794+1056759092+1057072333+1057304157
1626+1057330228+1057282890+1057330292+1057396336+1057330292+1057202113
1618+1057211594+1057381026+1057409595+1057103272+1056528164+1055788941
1609+1054992450+1054296017+1053896810+1053954142+1054478517+1055278403
1601+1056054075+1056587289+1056845633+1056975286+1057201409+1057627391
1592+1058118392+1058467121+1058631236+1058755572+1058981118+1059269953
1584+1059455400+1059461229+1059401912+1059412866+1059471542+1059434197
1575+1059273220+1059174636+1059258167+1059494090+1059702405+1059660384
1567+1059447841+1059326964+1059393392+1059584988+1059923724+1060561737
1558+1061232995+1061405054+1061366939+1061412356+1061543866+1061699462
1550+1061820915+1061848332+1061776139+1061647832+1061473083+1061265857
1541+1061269508+1061770758+1062319090+1062474365+1062449063+1062541562
1533+1062713941+1062636943+1062257082+1061794587+1061391922+1061032687
1524+1060703816+1060530989+1060629381+1060863191+1061053570+1061217686
1516+1061304419+1061119229+1060634890+1060072017+1059685110+1059568269
1507+1059475258+1058873245+1057849863+1056819882+1055896109+1055041390
1499+1054168414+1053165146+1051984694+1050716548+1049444814+1048161807
1490+1046863297+1045616482+1044448009+1043307978+1042197862+1041170123
1482+1040271268+1039501810+1038760408+1037881283+1036799608+1035636901
1473+1034561760+1033574185+1032539528+1031393476+1030168825+1028953334
1465+1027818042+1026707542+1025535033+1024357208+1023397114+1022932826
1456+1022731877+1022165161+1021237096+1020210958+1019196992+1018214927
1448+1017275780+1016348035+1015361229+1014311391+1013288713+1012398890
1439+1011737561+1011437003+1011491260+1011511950+1011229649+1010839026
1431+1010591508+1010462048+1010285057+1010123888+1010158031+1010297997
1422+1010296203+1010253092+1010574597+1011181862+1011419579+1011167898
1414+1010847610+1010748962+1010830891+1010945490+1011108388+1011452825
1405+1011956381+1012362057+1012550066+1012772218+1013354821+1014364046
1397+1015673189+1017180206+1018663137+1019784784+1020521061+1021207757
1388+1022192385+1023447464+1024545281+1025252348+1025782359+1026419155
1380+1027174265+1027826050+1028231341+1028469571+1028649829+1028704022
1371+1028547593+1028299947+1028171832+1028257733+1028537216+1029034494
1363+1029788067+1030640480+1031316351+1031746497+1032074727+1032408275
1354+1032691281+1032850015+1032948600+1033072871+1033202780+1033305528
1346+1033393159+1033428326+1033357607+1033271513+1033376055+1033741119
1337+1034234170+1034781477+1035451198+1036245062+1036992870+1037522049
1329+1037873660+1038266076+1038831576+1039453831+1039908703+1040127844
1320+1040258201+1040470359+1040770084+1041036819+1041182678+1041202792
1312+1041120991+1040982883+1040909217+1041049695+1041421997+1041876037
1303+1042292410+1042695524+1043095243+1043351409+1043323480+1043070068
1295+1042775788+1042529743+1042294588+1042048223+1041823958+1041596362
1286+1041262174+1040785266+1040259290+1039765406+1039265053+1038680593
1278+1038013562+1037357485+1036847203+1036626333+1036806142+1037423272
1269+1038439160+1039763228+1041254231+1042738379+1044067508+1045180058
1261+1046109084+1046910123+1047568378+1048026774+1048325986+1048631092
1252+1049059637+1049572417+1050074051+1050521172+1050904300+1051237399
1244+1051589780+1052029983+1052521688+1052929094+1053146825+1053213701
1235+1053267125+1053353218+1053352450+1053166299+1052901229+1052754921
1227+1052812958+1053032226+1053282947+1053333745+1052987066+1052342071
1218+1051754215+1051419130+1051149705+1050654668+1049870989+1048915187
1210+1047864324+1046717502+1045471072+1044109594+1042600783+1040979552
1201+1039364406+1037825489+1036311810+1034746437+1033111049+1031409810
1193+1029656621+1027932577+1026335816+1024807853+1023122692+1021116411
1184+1018818925+1016336825+1013762034+1011239258+1008945038+1006920886
1176+1005054314+1003258975+1001561003+999978590+998415075+996749003+994991522
1166+993271706+991647849+990047180+988407756+986744632+985046083+983276815
1156+981515490+979916038+978532012+977335674+976348997+975561410+974792015
1146+973851459+972790859+971819171+971011278+970254630+969440396+968567228
1136+967671384+966758052+965808464+964789949+963659847+962401373+961071220
1126+959772646+958568429+957469459+956497258+955644781+954756688+953605062
1116+952125014+950484949+948930146+947642014+946672567+945900482+945100661
1106+944148510+943148572+942315761+941760062+941452970+941412742+941801571
1096+942753145+944192453+945914511+947770769+949703256+951659956+953569062
1086+955408281+957244297+959159744+961155583+963167693+965127340+966948623
1077+968529370+969843381+970982772+972054326+973078477+974029603+974944536
1067+975935377+977100071+978411968+979707787+980831356+981840582+982991631
1057+984415629+985898176+987110144+987982286+988703766+989416278+990075557
1047+990614281+991109061+991686603+992342104+992972237+993541324+994065571
1037+994507567+994852709+995218990+995732731+996357164+996923880+997260502
1027+997312453+997271520+997503729+998156603+998924204+999399510+999525383
1017+999476956+999285872+998895634+998458314+998250575+998319949+998381573
1007+998056545+997173192+995922854+994716779+993826957+993176581+992491230
997+991612745+990696979+990172220+990482451+991811131+993971470+996484190
987+998813128+1000665543+1002088388+1003223359+1004062576+1004536089+1004749721
977+1004996150+1005474467+1006073341+1006505537+1006631217+1006576641
969+1006592142+1006870664+1007441993+1008162704+1008823778+1009297867
960+1009605343+1009883160+1010262253+1010716869+1011091029+1011310938
952+1011484726+1011771511+1012238298+1012822695+1013342201+1013572488
943+1013428166+1013100320+1012948568+1013198648+1013762226+1014392872
935+1014934222+1015302873+1015343037+1014979831+1014520219+1014487613
926+1015029219+1015721873+1016117300+1016265337+1016483837+1016815271
918+1017007507+1016957094+1016871449+1016968688+1017236449+1017522593
909+1017689912+1017664225+1017487170+1017326642+1017312293+1017412479
901+1017566217+1017848582+1018373918+1019088863+1019777930+1020280973
892+1020584029+1020626756+1020208012+1019280203+1018101929+1016836410
884+1015260019+1013069829+1010160850+1006613474+1002985129+1000526666
875+1000329049+1002158018+1004688994+1006875789+1008621676+1010201782
867+1011579723+1012479219+1012863884+1013031971+1013232599+1013417597
858+1013467626+1013463782+1013522779+1013437198+1012810076+1011714564
850+1010872336+1010824293+1011203834+1011239322+1010690541+1009940428
841+1009462431+1009500865+1010013966+1010739097+1011440270+1012040681
833+1012474478+1012694452+1012902190+1013402287+1014126713+1014658198
824+1014836727+1015047796+1015762486+1016936852+1017990790+1018383718
816+1018152791+1017771521+1017500237+1017149779+1016600165+1016178539
807+1016182382+1016289487+1015918466+1015091611+1014440275+1014277697
799+1014114542+1013331760+1012058617+1011066430+1010886877+1011320483
790+1011835505+1012252135+1012855428+1013854853+1014981753+1015796436
782+1016183151+1016319850+1016383971+1016519517+1016835385+1017249965
773+1017547832+1017613811+1017422087+1016931022+1016182511+1015350212
765+1014643401+1014290508+1014413499+1014717964+1014686320+1014298067
756+1014122357+1014551479+1015382368+1016203201+1016769149+1017010582
748+1017064198+1017250221+1017724631+1018292693+1018783373+1019322737
739+1019941981+1020257144+1019941212+1019284559+1018895858+1018990791
731+1019340801+1019832122+1020593894+1021413126+1021586273+1020810857
722+1019761467+1019293079+1019465329+1019805410+1020076438+1020347913
714+1020726237+1021164070+1021259516+1020486534+1018800284+1016605674
705+1014251754+1012161109+1011093527+1011470761+1012635711+1013348927
697+1012993728+1012048176+1011378006+1011272503+1011397736+1011495680
688+1011553780+1011384860+1010774649+1009999617+1009588048+1009694639
680+1010040293+1010183334+1009736469+1008737684+1007771185+1007335145
671+1007298761+1007217792+1007026516+1007498044+1009099097+1011420861
663+1013935694+1016020253+1017155736+1017193530+1016180461+1014421762
654+1012568515+1010901034+1008580743+1004268457+997786415+990638879+984414092
645+979353549+974880863+970658641+966657482+962858039+959385611+956528518
635+954250505+952043789+949522934+946732782+943696841+940297822+936878112
625+934176807+932158740+929779901+926583111+923749592+922866880+924222208
615+927075586+931054837+936314214+942662184+949170041+954774047+959140398
605+962595019+965340203+967488756+969603422+972097244+974504397+976437076
595+978380068+980560649+982202955+982844299+983233512+984085925+985005663
585+985144667+984248759+982802341+981590053+981332350+982347469+984231592
575+986074654+987365285+988504163+990111237+991988891+993004586+992190031
565+989949620+987870698+987213468+987894976+989099193+990361574+991591350
555+992508589+992701274+992098493+991045196+990058838+989615945+989936681
545+990857956+991942257+992667836+992661046+992066977+991574695+991755465
535+992537031+993523196+994491809+995304955+995605129+994910105+993161527
526+991284194+990743421+992220971+995169602+998323280+1000234436+1000120990
516+998584251+996889866+995788974+995450558+995830483+996577521+997047575
506+996861552+996155767+995209574+994315843+993918815+994272284+994932397
496+994914333+993645033+991821252+990962626+991889858+993916957+995634915
486+996099460+995329874+994093180+993315457+993514484+994468108+995315589
476+995348322+994769691+994333972+994436207+995009330+995959815+996897040
466+996923304+995805565+994947514+995848996+997641965+997581687+994831955
456+992177220+991691792+992429670+993507182+995546836+998459082+1000286643
446+999594822+997612498+996613586+997158331+998335644+999842660+1001999732
436+1004059757+1003967899+1000344743+993919712+987197902+983241647+983401983
426+985962810+988045960+989025975+990695250+993712678+995867828+995575150
416+995224307+996366708+997895248+998560742+997970003+996051481+993031491
407+990266961+989579752+991171773+993331984+994409431+994411417+994847969
397+996501934+997757781+996848677+993911705+991092854+991070178+994355751
387+998343266+999878917+998902168+997413408+995319945+991007786+983452268
377+972915835+963322008+960872257
##END=
