##TITLE=X8141
##JCAMP-DX=4.24
##DATA TYPE=INFRARED SPECTRUM
##DATE=30/10/2018
##SAMPLING PROCEDURE=Diamant-ATR
##ORIGIN=ComPlat
##XUNITS=1/CM
##YUNITS=TRANSMITTANCE
##RESOLUTION=4
##FIRSTX=3997.453
##LASTX=373.96442
##DELTAX=-1.4165319
##MAXY=0.89281529
##MINY=0.62402481
##XFACTOR=1
##YFACTOR=8.3149904e-010
##NPOINTS=2559
##FIRSTY=0.88179749
##XYDATA=(X++(Y..Y))
3997+1060491297+1061051144+1061339598+1060954372+1060254455+1059893100
3989+1060135031+1060813872+1061643751+1062307539+1062542087+1062440296
3980+1062398648+1062544667+1062518574+1062029694+1061337089+1060937024
3972+1060938028+1060992436+1060795091+1060445277+1060239832+1060236678
3963+1060245208+1060198973+1060257323+1060492803+1060686921+1060484702
3955+1059749733+1058843727+1058362445+1058465239+1058775914+1058981932
3946+1059035767+1058876845+1058635057+1058802581+1059548876+1060450079
3938+1061236804+1061868120+1061957150+1061070069+1059615470+1058689608
3929+1058782151+1059369381+1059769302+1059742206+1059471673+1059153542
3921+1058674483+1057836719+1056779031+1056109509+1056461976+1057880303
3912+1059871021+1061837152+1063160212+1063170033+1061501818+1058613265
3904+1055819549+1054284020+1054009114+1054502941+1055629445+1057283969
3895+1058906952+1059606940+1058870537+1057605612+1057452353+1058256067
3887+1058377713+1057045048+1055287659+1054057644+1053136226+1052961247
3878+1054412620+1056601328+1057713925+1057062754+1055394395+1053672203
3870+1052722183+1053424465+1055236979+1056316458+1055713601+1054530252
3861+1054431616+1055513820+1056923258+1057980229+1057960230+1055732239
3853+1052030869+1051099487+1053785462+1057450561+1060200406+1061183974
3844+1060186715+1057731703+1055015692+1052960817+1051694029+1051351884
3836+1052283266+1054040942+1055533676+1056212159+1056513516+1057010497
3827+1057682170+1058275780+1058557567+1057931700+1055853025+1053592777
3819+1053317227+1054700644+1056246424+1057495650+1058596061+1059308163
3810+1059251534+1058300439+1056863259+1056003345+1055948006+1055167446
3802+1052622687+1050290899+1050884723+1053812057+1057100244+1059620201
3793+1061137594+1061868191+1062113133+1062085320+1061854141+1061381318
3785+1060656814+1059770593+1058727241+1057507836+1056647420+1057011859
3776+1058475059+1060055104+1061131645+1061509631+1060975017+1059601133
3768+1058099367+1057149347+1057048704+1057785609+1058650970+1058495561
3759+1056942326+1055189309+1054617849+1054943794+1054711826+1052506416
3751+1048537237+1045748682+1045832122+1047009449+1047231524+1046246093
3742+1045749041+1046395195+1046949164+1046079573+1043461338+1040365979
3734+1038873316+1039868855+1042640420+1045810402+1048044700+1048674510
3725+1048176526+1047760118+1048109359+1049118374+1050616484+1052494302
3717+1054323088+1055303788+1054618925+1052094524+1049268335+1048756229
3708+1050828739+1053479303+1055073971+1055074329+1053962807+1053099883
3700+1053511847+1054743439+1055801700+1056347569+1056760895+1057481815
3691+1058220153+1057882596+1056146139+1054747955+1055014258+1056330795
3683+1057407909+1057341961+1056174310+1054531184+1052567132+1050474551
3674+1049894274+1051277763+1052414518+1052024489+1052004059+1054473623
3666+1058200369+1060993798+1061963028+1061550849+1060615955+1059482856
3657+1058219006+1057556652+1058098865+1058706812+1057362032+1052922968
3649+1047095971+1044373724+1046357561+1050823363+1055237122+1057971699
3640+1058830035+1058835053+1058721794+1058142377+1056647636+1054541292
3632+1052112659+1048834938+1044939951+1043374960+1045564671+1049032856
3623+1051702631+1053059883+1053257873+1052807343+1052492366+1052443335
3615+1052090007+1051485430+1051411955+1051914168+1052287997+1052769924
3606+1054203735+1056034456+1056862542+1056235743+1054812542+1053464321
3598+1052534731+1051857323+1051321777+1051314394+1052099040+1052892574
3589+1052464840+1050901067+1050495913+1052839959+1056313448+1058632619
3581+1059127306+1058752904+1058665881+1058931252+1059105443+1059347733
3572+1059927794+1060231302+1059173040+1056460829+1053483962+1052245775
3564+1052886051+1054248322+1055688225+1057252213+1059088311+1060853872
3555+1061653715+1060846990+1059091680+1057991412+1058125890+1058470902
3547+1057996286+1056859747+1056060836+1056484986+1058331764+1060800038
3538+1062446604+1062553556+1061890198+1061519308+1061456442+1061134154
3530+1060376389+1059431387+1058522514+1057830268+1057773996+1058810609
3521+1060701760+1062396641+1063012975+1062676421+1062141233+1061757799
3513+1061185336+1060124780+1059029172+1058786954+1059593105+1060532228
3504+1060610077+1059938117+1059535185+1059885214+1060439757+1060597675
3496+1060395313+1060215173+1060242413+1060293451+1060024209+1059314185
3488+1058401584+1057419164+1055958758+1053534786+1050335199+1047029019
3479+1043918606+1041012706+1038884714+1038506943+1039950144+1042041434
3471+1043659471+1044629490+1045213638+1045552485+1045772410+1046035201
3462+1046379783+1046866943+1047720835+1049051206+1050593187+1051867072
3454+1052598673+1052998451+1053512779+1054242300+1054863150+1055156622
3445+1055166084+1054876626+1054392190+1054220222+1054631183+1055098701
3437+1055095332+1054974618+1055379270+1056234023+1056926269+1057166408
3428+1057211210+1057363537+1057502101+1057154078+1056096462+1054835408
3420+1054247390+1054761145+1056087932+1057535147+1058387176+1058345743
3411+1057822956+1057555075+1057889550+1058619000+1059400133+1060055319
3403+1060475599+1060470724+1059900483+1058907238+1057848977+1056960963
3394+1056200833+1055390596+1054316421+1052632220+1049733059+1044797444
3386+1037236714+1027503045+1017517410+1009906357+1006392152+1006821177
3377+1009791879+1014038616+1018880612+1023725690+1027926049+1031151083
3369+1033506885+1035385276+1037183883+1038899409+1040280747+1041598574
3360+1043487001+1045696927+1047050022+1047116831+1046920132+1047454890
3352+1048477668+1049246185+1049616932+1049911192+1050252046+1050477777
3343+1050480573+1050367886+1050305880+1050238785+1049896568+1049240522
3335+1048723183+1048860744+1049697790+1050836839+1051808077+1052360684
3326+1052541398+1052542688+1052508423+1052502043+1052500538+1052386848
3318+1052097248+1051737110+1051520412+1051715032+1052438030+1053298589
3309+1053654569+1053473783+1053422745+1053950334+1054812255+1055439484
3301+1055353751+1054411975+1053005547+1051838184+1051354034+1051511953
3292+1052042983+1052719029+1053383104+1053863669+1053990692+1053747183
3284+1053356437+1053201100+1053604462+1054521364+1055393463+1055599768
3275+1055156478+1054655555+1054470325+1054453408+1054443587+1054482511
3267+1054466598+1054248967+1054190043+1054855695+1055994027+1056578748
3258+1056075316+1055022932+1054194918+1053731700+1053327047+1052954437
3250+1053053504+1053888901+1054948955+1055326224+1054752973+1054038218
3241+1054221082+1055309594+1056196245+1056042485+1055287587+1054820355
3233+1054781718+1054770177+1054616344+1054423803+1054322012+1054462655
3224+1054888669+1055346511+1055573317+1055700412+1056041123+1056536096
3216+1056767132+1056536383+1056068434+1055603782+1055198055+1054945442
3207+1054984725+1055273179+1055615395+1055821772+1055807005+1055752382
3199+1056053739+1056866915+1057856862+1058508034+1058491045+1057839586
3190+1056946483+1056154167+1055382066+1054537134+1053993918+1054103378
3182+1054591398+1054989528+1055296332+1055726218+1056128290+1056159687
3173+1055848940+1055581059+1055614033+1055921053+1056383124+1056856091
3165+1057179096+1057320025+1057346118+1057230923+1056909638+1056412227
3156+1055758403+1055022215+1054575126+1054767883+1055335328+1055642922
3148+1055448373+1054984438+1054523443+1054203520+1054004957+1053779298
3139+1053587616+1053842307+1054693045+1055558263+1055724927+1055210599
3131+1054685590+1054694121+1055175474+1055644929+1055747364+1055600413
3122+1055565145+1055806145+1056173378+1056387210+1056315096+1056102197
3114+1055928723+1055691021+1055192248+1054572832+1054256064+1054454483
3105+1054893114+1055065369+1054761073+1054255490+1053875927+1053614713
3097+1053366760+1053252783+1053411060+1053671056+1053657508+1053210418
3088+1052672650+1052611576+1053138162+1053733277+1053854063+1053444393
3080+1052836733+1052403479+1052247854+1052188214+1052167856+1052384268
3071+1052730498+1052606845+1051663492+1050299429+1049268479+1049092783
3063+1049730765+1050589531+1051097551+1051211456+1051042427+1050415484
3054+1049354929+1048481467+1048344409+1048784616+1049318800+1049768900
3046+1050264662+1050855333+1051336544+1051484642+1051393460+1051391525
3037+1051592740+1051786285+1051816320+1051764852+1051713526+1051598331
3029+1051350594+1050999919+1050616699+1050241222+1049914848+1049806247
3020+1050131546+1050725658+1050951891+1050481505+1049904812+1050088465
3012+1051163213+1052542760+1053623673+1054144238+1054152051+1053892772
3003+1053608404+1053410128+1053315076+1053221458+1052944545+1052527491
2995+1052329430+1052583189+1053121818+1053682668+1054183520+1054622509
2986+1054941572+1055011965+1054697561+1054000369+1053103969+1052219611
2978+1051553099+1051389446+1051849438+1052549713+1052891571+1052727416
2969+1052442833+1052389501+1052469212+1052336168+1051901050+1051465645
2961+1051311096+1051380055+1051487437+1051602489+1051788292+1052051298
2952+1052303911+1052341329+1051985923+1051406865+1051056835+1051116619
2944+1051247656+1051061495+1050599352+1050196276+1050106529+1050436416
2935+1051175113+1052007787+1052358677+1051994525+1051435610+1051467007
2927+1052356885+1053676790+1054765947+1055325293+1055592743+1055899190
2918+1056143845+1055905068+1054991320+1053706109+1052586630+1051910369
2910+1051481559+1051023359+1050666233+1050717773+1051081996+1051340773
2901+1051305648+1051153464+1051127300+1051329304+1051696322+1052045277
2893+1052218464+1052222335+1052194092+1052253947+1052434518+1052709423
2884+1053015655+1053249414+1053350774+1053412924+1053574857+1053781161
2876+1053793778+1053480306+1053012142+1052752218+1052920101+1053363964
2867+1053697220+1053638870+1053197515+1052661252+1052438675+1052717309
2859+1053271349+1053776932+1054186674+1054602079+1054954331+1055025298
2850+1054702651+1054125313+1053609623+1053416651+1053547474+1053757936
2842+1053772201+1053531990+1053249056+1053154864+1053256296+1053440880
2833+1053696862+1054061085+1054456060+1054729676+1054829315+1054874763
2825+1055015764+1055227732+1055349665+1055310024+1055144507+1054863007
2816+1054514912+1054278285+1054307317+1054629319+1055209667+1055909369
2808+1056444628+1056640037+1056623335+1056568999+1056382407+1055834101
2799+1054952539+1054153700+1053917216+1054334915+1054998632+1055376618
2791+1055302067+1055058846+1054984797+1055130744+1055374467+1055643853
2782+1055842560+1055772310+1055356116+1054798993+1054380291+1054176280
2774+1054050117+1053863956+1053667902+1053634497+1053852701+1054322442
2765+1055025584+1055787722+1056242983+1056207213+1055941411+1055820553
2757+1055897397+1055941554+1055799550+1055596829+1055575969+1055770231
2748+1055935748+1055866430+1055676326+1055624356+1055708727+1055651308
2740+1055378267+1055255043+1055602564+1056192733+1056517387+1056391224
2731+1056001912+1055547009+1055160277+1055009312+1055122070+1055233753
2723+1055110314+1054918131+1055007018+1055423212+1055858832+1055988364
2714+1055742561+1055347873+1055147231+1055309236+1055732741+1056232876
2706+1056657528+1056852937+1056752150+1056478534+1056170296+1055781916
2697+1055269523+1054862146+1054856985+1055203001+1055585933+1055888007
2689+1056174669+1056284989+1055967504+1055438624+1055244362+1055505791
2680+1055822345+1055917254+1055865785+1055700627+1055285795+1054661791
2672+1054148108+1053998003+1054161011+1054424089+1054620502+1054676917
2663+1054615627+1054508389+1054360291+1054131765+1053926535+1053989688
2655+1054454842+1055222785+1056034599+1056548641+1056542834+1056213664
2646+1056037682+1056203700+1056443768+1056490577+1056388213+1056273663
2638+1056150798+1055948651+1055654248+1055406797+1055462351+1055903491
2629+1056446420+1056775232+1056938742+1057107413+1057149419+1056849209
2621+1056393446+1056199543+1056322551+1056454305+1056493230+1056650503
2612+1056946914+1057121463+1057146408+1057315868+1057725825+1058162233
2604+1058483876+1058635200+1058373771+1057501169+1056365561+1055750805
2595+1056084491+1056930928+1057505614+1057548122+1057323753+1056939028
2587+1056265492+1055511813+1055252032+1055772597+1056719821+1057472568
2578+1057722384+1057639231+1057518230+1057484109+1057668407+1058268683
2570+1059076841+1059415975+1059082074+1058878565+1059543858+1060548572
2561+1060716383+1059773819+1058467389+1057421744+1056753010+1056543981
2553+1056817167+1057201533+1057252213+1056908706+1056319756+1055634535
2544+1055198198+1055448086+1056367210+1057369487+1057849479+1057675718
2536+1057168343+1056733154+1056511365+1056436815+1056604841+1057264686
2527+1058321585+1059261498+1059733532+1059754679+1059337769+1058553696
2519+1057913994+1057966538+1058537854+1058954693+1058901360+1058645881
2510+1058609752+1058975409+1059574467+1060105282+1060476100+1060711294
2502+1060554379+1059641706+1058167108+1056954082+1056709355+1057410562
2493+1058408537+1058929747+1058554341+1057520309+1056649571+1056780321
2485+1058106535+1060021054+1061527122+1061885037+1061160605+1060205281
2476+1059844427+1060086286+1060306498+1060075247+1059560059+1059227448
2468+1059281784+1059392678+1059123292+1058656920+1058640146+1059180925
2459+1059624789+1059550453+1059298558+1059234473+1059211176+1059067021
2451+1058977560+1059027881+1059031394+1058962506+1059019710+1059167377
2442+1059126805+1058855483+1058595201+1058426601+1058181588+1057876002
2434+1057860518+1058362230+1059115622+1059655684+1059792241+1059654466
2425+1059451674+1059271390+1058973832+1058422802+1057931771+1058037361
2417+1058655271+1059032613+1058743585+1058157144+1057848905+1058072127
2408+1058761865+1059614897+1060271803+1060613732+1060695308+1060454739
2400+1059855538+1059164653+1058683586+1058384953+1058138936+1058058221
2391+1058322732+1058803656+1058897561+1057609124+1054115493+1048556233
2383+1041880147+1034689875+1026770441+1017915682+1008507026+998984752+989339039
2373+979342150+968959962+958570677+948700309+939333373+930206145+922226927
2363+917282209+915988898+917085223+919618872+924219223+931617662+941448533
2353+952808697+964273949+973329206+977163692+974271555+966013776+956989199
2343+951653950+950486515+951453523+953104965+955206147+957802519+960287709
2333+961788687+962526237+963757900+965994206+968431369+970411263+972289439
2323+974803016+978392202+983186170+989003418+995116001+1000461931+1004410968
2313+1007187336+1009463211+1011788261+1014557102+1018134675+1022503776
2305+1026923844+1030458263+1032925390+1035024852+1037495132+1040412286
2296+1043249155+1045343026+1046425732+1046983643+1047921190+1049653132
2288+1051824492+1053982950+1055939189+1057336441+1057694356+1057166551
2279+1056533444+1056224345+1055951949+1055375901+1054582438+1053855497
2271+1053321456+1052953075+1052837307+1053290991+1054589965+1056550074
2262+1058362875+1058959137+1057886324+1055818474+1053833132+1052423980
2254+1051605070+1051349017+1051438047+1051689011+1052562616+1054553765
2245+1056956949+1058394702+1058674124+1058979208+1059986933+1060823120
2237+1060442911+1059236408+1058351191+1058088328+1057984243+1057855715
2228+1057915858+1058463877+1059734249+1061320530+1062110123+1061547767
2220+1060256749+1058972040+1057893492+1057181892+1057030783+1057276370
2211+1057572638+1057961592+1059042433+1061323039+1064161844+1065818303
2203+1065103333+1062569756+1059859982+1058325528+1058048185+1057890195
2194+1056865338+1055216621+1053736144+1052778670+1052290362+1051997751
2186+1051638044+1051674817+1053064543+1055725501+1058335277+1059996539
2177+1060873083+1060996952+1059701777+1056816020+1053557151+1051356902
2169+1050361220+1049968682+1050201724+1051451954+1053795713+1057309130
2160+1061387626+1063729378+1062919499+1060997382+1060419757+1061426263
2152+1063328955+1065511641+1066996777+1066906241+1065409493+1063342288
2143+1061383468+1059656688+1057550344+1054635412+1052276958+1052908990
2135+1056949566+1061947186+1065383902+1066813124+1067078210+1066905094
2126+1066411339+1065329494+1063824072+1062849321+1062952689+1063259924
2118+1062764233+1061983673+1062045894+1062770470+1062938065+1062059873
2109+1060855592+1060177468+1060154457+1060378468+1060635309+1061171501
2101+1062065966+1062711403+1062475493+1061574218+1060656169+1059873100
2092+1059101285+1058640218+1058850537+1059422642+1059817259+1060119404
2084+1060573661+1060610650+1059532962+1058034350+1057659805+1058730539
2075+1060194456+1061492069+1062898640+1064119407+1064394600+1064034749
2067+1064269082+1065494437+1066706890+1066707392+1065233582+1062890109
2058+1060562120+1059175979+1059446154+1060804410+1060938601+1058057360
2050+1053718080+1051795030+1054096783+1058527675+1062207684+1064620402
2041+1066668754+1067893536+1066464170+1062138007+1057478016+1055074759
2033+1055037412+1056387927+1058924156+1062068976+1063977546+1063823785
2024+1063521281+1065344189+1068733593+1070969612+1070507685+1068501913
2016+1067418992+1068821405+1071881138+1073741823+1072334894+1068907497
2007+1066395641+1065557232+1064632803+1062640723+1060943548+1061288990
1999+1063490816+1065569777+1065959017+1064920182+1063717909+1063269243
1990+1063810739+1064878247+1065037886+1062625741+1057732563+1052862539
1982+1050844868+1052545914+1057022181+1062854268+1068181560+1070700011
1973+1069515085+1066225823+1062990681+1060546709+1058904371+1058472120
1965+1059268379+1060344060+1061100678+1062151484+1064069014+1065978300
1956+1066114570+1063623287+1059682996+1056813511+1056873366+1059582567
1948+1062852547+1064549221+1064113171+1062680866+1061850557+1062266607
1939+1063437412+1064618037+1065295516+1065213869+1064335461+1062837064
1931+1061316373+1060709573+1061289707+1061956864+1061465546+1060131160
1922+1059284078+1059209384+1059149958+1059008885+1059333324+1059770593
1914+1059276336+1057766111+1056396672+1056179471+1056908563+1057810268
1905+1058603659+1059398484+1060113956+1060496387+1060485921+1060264491
1897+1060081985+1060135318+1060368934+1060404632+1059943565+1059309740
1888+1059435186+1060989640+1063559847+1065795364+1066516642+1065946903
1880+1065312720+1065244693+1065373364+1065331860+1065210786+1064983980
1871+1064253813+1062821006+1061359096+1060974658+1061876148+1063375047
1863+1064741619+1065519598+1065564185+1065110143+1064674882+1064687426
1854+1065156164+1065654793+1065660384+1065081971+1064393166+1064007223
1846+1063796832+1063663573+1064048656+1065053441+1066045754+1066520298
1837+1066479797+1066084248+1065267846+1063819126+1061844034+1060283774
1829+1060350009+1061854643+1063513611+1064589793+1065157956+1065292649
1820+1064885129+1064193456+1063783284+1063781420+1063776546+1063489454
1812+1063033906+1062648035+1062523951+1062776563+1063242935+1063397699
1803+1062756205+1061412428+1060060337+1059352034+1059299848+1059337697
1795+1058714267+1057160172+1055765500+1056128791+1057986967+1059778765
1786+1060449291+1059956754+1059021000+1058360581+1058220153+1058479504
1778+1058809391+1058750467+1057846970+1056042413+1054268465+1053674712
1769+1053948184+1054131908+1053941230+1053426615+1052543046+1051583134
1761+1051239126+1051545716+1051857037+1051909652+1051796751+1051204145
1752+1049468834+1046601643+1044180466+1043802479+1044953284+1046159786
1744+1046716910+1046758916+1046597198+1046529314+1046722286+1046784435
1735+1046087243+1045070988+1045435139+1047453098+1050099862+1052581612
1727+1054264235+1054919350+1055034473+1055146801+1054912898+1053460593
1718+1050843506+1049274213+1050744081+1054008541+1057303108+1059921773
1710+1061455438+1061603680+1060726849+1060060910+1060337321+1060633159
1701+1059679985+1057825752+1056934011+1057687689+1059822993+1062764090
1693+1065209711+1066246468+1066007834+1065206700+1063972385+1061689055
1684+1059114977+1059083436+1061563250+1064243276+1065897370+1066079374
1676+1064988425+1063691816+1062837709+1061994211+1061535796+1063069246
1667+1066248188+1068759543+1069534225+1069354371+1069726838+1070866747
1659+1071680568+1071337635+1069428492+1065735509+1062160516+1062047256
1650+1063335980+1063398989+1062632049+1063266519+1065713932+1067869020
1642+1068640620+1068270304+1067250895+1065912065+1065166128+1066479008
1633+1069139250+1071190971+1071841712+1071261579+1070114645+1068870795
1625+1067366090+1065486696+1063588879+1061370494+1057086481+1048337599
1616+1034677761+1018983119+1002170361+982580374+961113143+942975174+933945723
1606+935403332+944594716+958011547+972844268+986889977+998870059+1008691754
1596+1016904374+1023951780+1029755121+1033854478+1036011000+1036593355
1588+1036375940+1036110066+1036246265+1036808405+1037416567+1037434846
1579+1036037523+1032198807+1025557487+1018155678+1011651489+1003669690
1571+990958940+974776565+962731466+959616824+963338696+969998224+976237472
1561+980517757+984971946+994385405+1006030868+1015248345+1022375678+1027999739
1551+1032286117+1035680539+1038305226+1039524775+1038746724+1036185119
1543+1032452494+1027764976+1023507128+1021544151+1020311269+1018352808
1534+1017226375+1020029195+1026318119+1032439090+1036606617+1039182343
1526+1040848766+1041544167+1041281519+1041447968+1043329656+1046234337
1517+1049584459+1053583745+1057542172+1060093598+1060350009+1057893994
1509+1053062249+1049556431+1052874725+1059401137+1063759342+1065118745
1500+1063737622+1059745934+1053566613+1046509888+1039503771+1031095242
1492+1017987366+997956311+974831187+956568275+945406172+937706877+928851903
1482+916612615+903678213+895503514+894862593+899723657+904472178+902916649
1472+894205328+884279262+877388412+874103952+875333537+882624595+894463532
1462+906616800+916627453+924664592+932899074+943102412+953121380+961166905
1452+967613677+972882404+977120252+980857464+984814816+989107072+993426209
1442+997434385+1000662573+1002806336+1004422652+1006924903+1010728780
1434+1014538608+1017530313+1020021668+1022592448+1025099789+1026886640
1425+1027819025+1028349769+1028566539+1027981030+1026900618+1027165990
1417+1029505018+1032264971+1033940354+1034237123+1033512548+1031877952
1408+1028743239+1023175521+1014898100+1005201778+995818570+987229040+979480283
1398+973545833+971001217+973063619+979474405+987627456+994606046+999402451
1388+1002671427+1005594460+1008540001+1010865911+1012113130+1012518499
1380+1012600290+1012634411+1012569681+1012473769+1012893976+1014257896
1371+1016142595+1017900199+1019357593+1020522520+1021247597+1021616694
1363+1022357685+1024196220+1026732592+1028852914+1029979777+1030506435
1354+1031243483+1032486472+1033860427+1034952738+1035671292+1036115156
1346+1036414792+1036605040+1036529916+1036093006+1035732438+1036270637
1337+1037904874+1039970932+1041850470+1043352093+1044415229+1045048838
1329+1045509403+1046109106+1046837553+1047444997+1047781336+1047859542
1320+1047792590+1047803916+1048055525+1048388852+1048514657+1048436952
1312+1048388207+1048356523+1048030507+1047302491+1046482648+1045773628
1303+1044737087+1042663216+1039523699+1036262967+1033857632+1032171567
1295+1030105581+1027019254+1023709275+1021815257+1022437971+1025370752
1286+1029464158+1033555486+1037037792+1039776957+1041851975+1043428435
1278+1044617447+1045340231+1045505963+1045391843+1045609402+1046533759
1269+1047908144+1049183462+1050113052+1050843506+1051547078+1052162193
1261+1052491363+1052473298+1052315882+1052300900+1052470790+1052578243
1252+1052350935+1051787504+1051206797+1050960636+1051041638+1051070957
1244+1050672326+1049610193+1047541412+1044120180+1039643196+1035311514
1235+1032462673+1031502403+1031741252+1032279451+1032832488+1033608890
1227+1034682420+1035666920+1035719822+1033699713+1028707971+1020924807
1218+1012034995+1004682504+1001108730+1001846567+1005555751+1010196675
1210+1014441405+1018083923+1021458059+1024803593+1028139593+1031423480
1201+1034604285+1037596707+1040256017+1042169962+1042356411+1039349867
1193+1031932217+1020457359+1008169398+1000579707+1001751658+1010601686
1184+1021769093+1030124219+1033696416+1033260724+1030903704+1028862735
1176+1028434499+1029515269+1031185634+1032511992+1032950550+1032583173
1167+1032162464+1032637939+1034437478+1037200513+1040165552+1042700921
1159+1044471357+1045363384+1045445390+1044767122+1042992887+1039534524
1150+1034421565+1028909831+1024873699+1023508347+1024707394+1027576162
1142+1031262049+1035221766+1039006504+1042146379+1044354298+1045794990
1133+1047016546+1048470930+1050127030+1051608869+1052547347+1052716377
1125+1052059112+1050768740+1049260737+1048017461+1047415894+1047537756
1116+1048093087+1048675227+1049098087+1049386183+1049583742+1049791624
1108+1050282512+1051287010+1052658457+1053957144+1054855767+1055272677
1099+1055235545+1054910963+1054677992+1054889314+1055589374+1056574160
1091+1057573856+1058318718+1058574269+1058123381+1056578174+1053078019
1082+1046076132+1033680860+1015031646+992049602+969662459+953610189+947467212
1072+951227506+962050546+975892675+988794102+997718609+1001059269+998560960
1062+990852275+979384228+966809103+956706337+952126630+954070611+961278947
1052+971330674+981968843+991825377+1000390821+1007570268+1013449379+1018385710
1043+1022836745+1026914811+1030374322+1033016284+1034911449+1036455078
1034+1038314688+1040950127+1044141972+1047327723+1050278497+1053121101
1026+1055931304+1058673766+1061412357+1064233169+1066981724+1069337311
1017+1070846747+1069700172+1060774662+1036126553+990288199+927879877+866485803
1007+828816484+827484321+855913439+895193197+929275480+952851779+968164205
997+979057638+988150386+996454258+1003904310+1010182338+1015123759+1018745776
987+1021408454+1023799094+1026418906+1029173626+1031585699+1033259219
979+1034012683+1033733118+1032523318+1031111370+1030621630+1031582904
970+1033466886+1035372803+1036791130+1037570471+1037570328+1036701741
962+1035262554+1034036123+1033883724+1035151230+1037461513+1039998530
953+1041932547+1042766081+1042599847+1042170177+1042376697+1043407504
945+1044266271+1043473453+1040563825+1036856147+1034530308+1034911377
936+1037682656+1041506031+1045050773+1047571877+1049067120+1050063376
928+1050886731+1051004936+1049518080+1046580998+1043953229+1043598468
919+1045821226+1049204752+1052237747+1054464877+1056181909+1057675288
911+1058888242+1059574467+1059727439+1059759554+1060117970+1060911433
902+1061876291+1062173706+1060317178+1055455541+1049227333+1045318941
894+1046222008+1050880781+1056240617+1060448861+1063602212+1066211271
885+1068331521+1069800815+1070304534+1069000112+1063544363+1049717360
877+1025152763+995402950+972819107+966189543+973660383+987348249+1001588292
867+1014780539+1026628150+1036697870+1044716729+1050759923+1055256548
858+1058901504+1062204458+1065145913+1067306879+1068055325+1066689757
850+1063075124+1058445096+1054941500+1053754495+1053859153+1052503764
841+1046333690+1032589911+1011222894+986758510+966851898+957636858+960073017
832+970414991+983443370+995059587+1003108338+1007511130+1009822559+1011358734
822+1010903329+1004121869+984955674+948346695+894485610+832663443+779566360
812+750491088+750481697+773381376+807943365+844149770+875944853+901283057
802+921044725+937274125+951364278+963449447+973354582+981571502+988812167
792+995060017+999693844+1002234159+1002466413+1000393617+996871527+994012221
782+994126986+997992583+1004343514+1011043184+1016548824+1020399009+1022932514
772+1024901943+1026960904+1029103520+1030616038+1030498191+1027941102
764+1023082547+1017760345+1014882258+1016315567+1021450461+1027861247
755+1033081229+1035950857+1036917794+1037316210+1038152827+1039332807
747+1039928352+1039063349+1036486117+1032655717+1028628689+1025262438
738+1021794469+1015507408+1002778021+980093248+946041286+905416606+870390324
728+853352265+856814213+871281420+883475620+886819792+885142401+887080791
718+896868365+911469620+925751168+937019864+944435364+947468144+946835610
708+945503446+946753676+951040054+955688935+958048966+958270324+958611179
698+960855728+965023112+969903243+974170769+977250573+979429603+981067927
688+981761320+980529011+976971581+972103134+967867077+965931483+967020569
679+970925090+976612304+982631126+987345525+988436833+983687595+974576998
669+970725308+981736732+998362039+1008205526+1010886054+1010752293+1010599965
659+1010512583+1010029079+1009653172+1010129364+1011261531+1012046177
650+1012277643+1013438411+1017092542+1022827211+1028641735+1032922737
642+1034844353+1032246907+1020743806+998283976+971214690+952183403+949501012
632+960851857+978129697+993490008+999259730+988510236+961744458+930713807
622+910268853+906726834+916306957+932234139+949712621+965739587+978402883
612+987100368+992108526+993919893+992958045+989543839+984729799+981086493
602+981161975+985041909+990606975+995825738+999791118+1002341397+1003821085
592+1004899561+1006192873+1008014705+1010167213+1011944889+1012735198
584+1012657206+1012469252+1012964728+1014215101+1015186769+1014720898
575+1013236408+1012576921+1013800843+1016038654+1017655400+1018051737
567+1018172166+1019121182+1020555709+1021014267+1019848768+1017970950
558+1016425600+1015472427+1015542748+1017557911+1021180286+1023742178
550+1022041275+1014346496+999227544+974489114+941415129+909411233+891643795
540+894339735+912115201+934317975+953519940+967484073+976838035+983150543
530+988069599+992952741+998578666+1004605158+1009759120+1013011824+1013867651
520+1012294345+1009726289+1008890174+1010351511+1009507654+998299316+971037919
510+930870578+891239429+868625838+870493835+890458009+915203750+934196400
500+945646526+953793555+959850010+958095775+942328518+916451256+895785516
490+893886768+909504923+930300194+945652189+953676854+958924937+965418445
480+972965270+978981152+981865691+982574854+983324375+985301976+988033829
470+990895285+994082184+997350228+999359226+999129123+997067151+994317807
460+992412105+993426353+998261611+1004223659+1007819081+1008576488+1007358659
450+1004247314+999679794+995783588+994710775+996085877+997699255+998540961
441+999366251+1000438276+1000850455+1000369388+1000493974+1002227206+1003829616
431+1002893646+999676138+996200284+993078617+989884048+987336565+985846411
421+983439284+978860437+975522072+975499993+975766942+974645958+973272218
411+972024497+969118310+964156962+960589424+962290112+968586563+974143027
401+973168707+963935890+952932351+950696260+956775654+962212336+962828024
391+960417169+956745619+951136611+944717940+943741541+953201307+968376316
381+980893736+986974779+985246350+974061882+956499960+943962182
##END=
