##TITLE=X8797
##JCAMP-DX=5.0
##DATA TYPE=LINK
##BLOCKS=1


$$ === CHEMSPECTRA SPECTRUM ORIG ===
##TITLE=X8797
##JCAMP-DX=5.00
##DATA TYPE=INFRARED SPECTRUM
##DATA CLASS=XYDATA
##ORIGIN=ComPlat
##OWNER=
##XUNITS=1/CM
##YUNITS=TRANSMITTANCE
##XFACTOR=1
##YFACTOR=9.7253516e-010
##FIRSTX=3997.453
##LASTX=373.96442
##MAXX=3997.453
##MAXY=1.0442516756299967
##MINX=373.96442
##MINY=0.5856466863513289
##NPOINTS=2559
##XYDATA= (X++(Y..Y))
2559I77430451I77598012I77601567I77445651I77364689I77474088I77673213I77924554
2551I78350076I78945917I79436220I79561799I79364146I79068003I78807958I78548955
2543I78220146I77914197I77888640I78240371I78709468I79003712I79136155I79219200
2535I79202162I79070822I78985080I78992557I78932311I78762912I78615575I78464562
2527I78139001I77728617I77621179I77942389I78292711I78338983I78275857I78415225
2519I78619314I78549139I78229707I77955321I77871969I77891704I77868721I77722672
2511I77505406I77383198I77497623I77813072I78093954I78099347I77808843I77447428
2503I77362238I77727697I78275182I78595534I78638926I78656945I78772166I78781604
2495I78406645I77640730I76869667I76462531I76190535I75660334I75109049I75018466
2487I75358981I75747792I75921298I75954332I76169023I76662452I77028954I76701431
2479I75853758I75391831I75718128I76543002I77433454I78024576I77951950I77137066
2471I76168411I75732531I75825689I76042648I76184652I76170065I75885506I75523417
2463I75578208I76188574I77055430I77848619I78202066I77375905I75159979I73548046
2455I73733994I74928127I76367106I77538686I77820855I76801331I74984635I73539404
2447I73298849I74258434I75738782I77020864I77737136I77902062I77851193I77825942
2439I77669780I77203379I76612135I76127899I75732225I75549219I75871225I76465228
2431I76806234I76848277I77041273I77541015I78134098I78627465I78965407I79170415
2423I79239793I79046429I78509731I78059326I78263047I78865753I79223674I79109372
2415I78846018I78798275I79072477I79588214I80158253I80598607I80812931I80720999
2407I80247366I79592811I79367578I79989283I81030319I81790718I82012825I81783486
2399I81241946I80577279I80113207I80111245I80507901I80941758I81073527I80834627
2391I80414437I80104014I79968200I79732364I79131129I78297552I77811601I77948395
2383I78155916I78063800I77860754I77969478I78517637I79073703I79208107I78713820
2375I77737994I76997146I77165810I77977139I78861585I79602249I79997311I79784213
2367I79122243I78697885I78940708I79661331I80497053I81131383I81342397I81200025
2359I80999307I80876854I80723757I80684287I81145479I82058301I82911490I83123853
2351I82487562I81596742I81397127I81993826I82774450I83298033I83441692I83083219
2343I82083123I80612703I79319835I78789694I79042630I79782865I80589904I81132547
2335I81460805I81803282I82005226I81619541I80885189I80478544I80229838I79833060
2327I79888341I81004394I82523844I83468045I83548823I83260341I83211862I83413744
2319I83381017I82776044I81866715I81078369I80461996I79982541I80031020I80976079
2311I82171255I82844441I82889671I82617737I82371176I82231746I82050027I81759768
2303I81542625I81633331I81989659I82221572I81957115I81541460I81683832I82330848
2295I83048162I83430660I83106692I82103593I81226011I81120964I81500520I81926103
2287I82340593I82643723I82444905I81728449I81205909I81377576I81981998I82629443
2279I83218788I83747457I84168995I84529797I84840588I84829740I84293839I83479690
2271I82736636I82161632I81741504I81556721I81672187I82039547I82505948I82857618
2263I83007589I83097805I83257889I83402100I83383775I83151432I82626930I81677703
2255I80561712I80128713I80738834I81763751I82481984I82834206I83283262I83959268
2247I84388529I84211590I83677160I83271250I83136600I83114169I83094741I83148919
2239I83350311I83534604I83437524I83100931I82936986I83223936I83647925I83685311
2231I83356501I83149532I83354111I83835528I84362726I84804244I85003246I84860445
2223I84555845I84336556I84181559I83999902I83941556I84148586I84394902I84385709
2215I84249773I84363707I84790332I85198571I85186068I84616274I83880819I83565616
2207I83700204I83801881I83689785I83762166I84287894I84888393I85012194I84642689
2199I84332021I84536416I85065392I85390831I85403211I85515736I85907794I86146082
2191I85827385I85167927I84656479I84434740I84393432I84556519I84963103I85440229
2183I85806915I86064446I86228330I86286921I86331968I86381979I86189045I85590201
2175I84885083I84504240I84481931I84556580I84557683I84446078I84174940I83773014
2167I83432621I83354908I83606556I84153060I84820670I85219899I85044799I84543035
2159I84357088I84767410I85412711I85817885I85825240I85445622I84722486I83882781
2151I83272047I83027814I83050307I83226571I83479690I83735138I83969748I84193756
2143I84429346I84731312I85035055I84995953I84354636I83402958I82678289I82334280
2135I82167271I82018586I81818727I81449590I80840388I80075882I79296055I78593818
2127I78023473I77568104I77123705I76595587I75983566I75331769I74627387I73814526
2119I72914636I72058811I71308647I70503385I69447027I68227030I67144011I66295358
2111I65411464I64139188I62451196I60823267I59902048I59781618I59713956I58800766
2103I56865723I54484504I52363881I50784246I49491072I48077282I46404858I44553473
2095I42625600I40836913I39444574I38299287I36825742I34685078I32146104I29652912
2087I27292224I24837276I22205941I19640797I17312346I14991435I12374380I09540243
2079I06825066I04403887I02233560I00290917H98657533H97378087H96360095H95474730
2071H94699438H94104332H93710067H93391186H92921782H92144406H91097425H89946928
2063H88817086H87747979H86768292H85880108H84954170H83779832H82321119H80801669
2055H79401363H78059281H76755687H75753323H75331969H75518406H76196864H77218165
2047H78372094H79486002H80540521H81622866H82939269H84774474H87140923H89591949
2039H91683889H93440645H95149842H96961268H98882705I00932173I03130018I05443821
2031I07791393I10064990I12201364I14209707I16109387I17953908I19885274I21947735
2023I23892522I25453158I26697241I27823468I28825954I29646538I30375312I31080491
2015I31738907I32434831I33324425I34382928I35395282I36138091I36516728I36685760
2007I36983558I37592760I38386316I39183242I39926481I40585019I41137469I41631633
1999I42082038I42427089I42733161I43254782I44139657I45218630I46193353I46947930
1991I47642935I48551528I49739226I50921899I51795436I52448397I53193842I54078042
1983I54846409I55323597I55620598I56020685I56699878I57482892I58008191I58212157
1975I58420046I58886876I59524944I60113859I60534601I60797097I61007437I61299658
1967I61724812I62229518I62759781I63362793I64126869I64983490I65668566I66004485
1959I66141954I66380303I66788848I67112509I67065502I66680491I66327963I66386432
1951I66898798I67527306I67853296I67770742I67579339I67658278I68103167I68668364
1943I68978787I68849838I68470527I68200370I68173832I68212137I68114260I67902694
1935I67745184I67722140I67771232I67836810I67909743I67937261I67925555I68079755
1927I68526115I69026286I69305881I69454504I69610911I69494954I68661500I67098720
1919I65277182I63657097I62353994I61284091I60428389I59830158I59461634I59254909
1911I59195092I59305043I59546579I59738839I59572810I58700131I56713116I53145302
1903I47916585I41945305I36933609I34198942I33751357I34579908I35687012I36797549
1895I38258101I40392637I43007485I45551608I47669289I49369538I50604734I50988029
1887I50216659I48603316I46923537I45792163I45225985I44645588I43352659I41234304
1879I38932575I37238945I36562572I37017205I38602785I41154568I44368567I47910824
1871I51349076I54161394I56091902I57333840I58167356I58633450I58727221I58674513
1863I58830920I59406229I60296314I61132587I61576495I61611062I61405502I60953749
1855I60099212I58790776I56951158I54212631I50209672I45110089I39492808I33730580
1847I27812987I21770674I15903521I10369591I04811084H98818291H92748214H87585505
1839H83753050H80383012H76005155H69757037H61835636H53130669H44722336H37591304
1831H32419770H29394170H28171537H28172334H29032081H30824691H33838585H38169678
1823H43592739H49780427H56445303H63153326H69146364H73588879H76086545H76910071
1815H76667555H75828830H74623726H73227342H71821091H70540051H69498218H68742477
1807H68160977H67718172H67764506H68702640H70375554H72217379H74005392H76058659
1799H78670689H81672877H84612858H87178431H89361138H91258673H92785539H93661711
1791H93773255H93532577H93774910H95215972H98026758I01885138I06233086I10449878
1783I14073526I17048379I19621430I21922913I23789620I25022794I25653447I25913553
1775I26057089I26201238I26249226I25969447I25185268I23812419I21680274I18551281
1767I14540846I10361746I06881390I04538782I03401891I03563998I05080077I07588591
1759I10411389I13099416I15651689I18197099I20657931I22763844I24340537I25579227
1751I26951463I28790039I31097713I33804432I36930360I40368122I43751643I46669989
1743I48910124I50555275I51965081I53520568I55293443I57085072I58725566I60149713
1735I61305112I62219038I63037231I63822391I64441276I64763650I64854847I64909822
1727I65074135I65330809I65506521I65438675I65168641I64919322I64897993I65161777
1719I65617575I66071596I66358668I66503859I66688520I67012488I67387692I67713437
1711I68054872I68553143I69185389I69719207I69995676I70155025I70435417I70829008
1703I71140535I71316247I71502440I71804834I72154482I72432974I72631976I72830181
1695I73047201I73222669I73357686I73524083I73694095I73749928I73721859I73816548
1687I74104356I74346199I74254021I73835548I73391823I73236704I73466043I73912403
1679I74276698I74394984I74400990I74534475I74840914I75198100I75528626I75797741
1671I75926078I75922585I75977254I76223263I76513461I76605700I76464799I76219954
1663I75936987I75609342I75307990I75175363I75272014I75511588I75744298I75886547
1655I75957580I75986814I75928897I75739211I75477818I75276242I75265640I75532671
1647I76010533I76443471I76614832I76588049I76620164I76876899I77283176I77609718
1639I77693560I77585387I77439399I77300153I77104461I76850729I76620777I76448558
1631I76313234I76253478I76359629I76625802I76909197I77068607I77097597I77118925
1623I77247997I77443383I77542608I77488613I77400849I77369654I77332881I77240152
1615I77190509I77334719I77717953I78214569I78601540I78760092I78793617I78859440
1607I78952843I78963262I78859317I78719949I78619682I78575493I78619375I78847550
1599I79305187I79895635I80509004I81110790I81560030I81602687I81279638I81052076
1591I81231037I81551818I81585649I81307708I81010891I80931278I81195796I81854396
1583I82694592I83274498I83386287I83293375I83355827I83622736I83865681I83829828
1575I83476932I83118091I83177725I83698243I84248853I84389264I84039004I83419873
1567I82867976I82681109I82977803I83653503I84445771I85018200I85120919I84789842
1559I84321296I84021108I84040781I84365791I84842120I85271013I85537125
1552I85605768I85478534I85257039I85159040I85340085I85755923I86216747
1545I86493768I86447434I86164775I85899337I85817333I85940216I86262897
1538I86685354I86915981I86776918I86559469I86747010I87409103I88132913
1531I88520498I88534226I88360904I88171525I88076957I88163373I88440946
1524I88796906I89079382I89242960I89357446I89469051I89524762I89524087
1517I89681965I90252126I91142395I91856828I91913825I91289057I90447757
1510I89950161I89966341I90185813I90239808I90129551I90141011I90391985
1503I90591294I90360851I89811160I89547070I89944155I90706454I91348016
1496I91761525I92057362I92234055I92263657I92213217I92142307I92093767
1489I92165780I92396529I92642845I92716329I92557839I92178589I91554556
1482I90744207I90072063I89987301I90629476I91624424I92352463I92399593
1475I91840403I91163723I90842574I90958102I91276738I91535066I91577784
1468I91440560I91333368I91311978I91102557I90563163I90071450I90083401
1461I90556727I91136082I91648204I92096525I92378143I92364414I92168661
1454I92017034I91905184I91690247I91440254I91349854I91401642I91446628
1447I91521215I91789717I92242696I92652896I92804216I92671712I92364230
1440I91956421I91488120I91078594I90854096I90776874I90752297I90870031
1433I91289363I91905919I92379736I92541230I92579841I92749915I93067141
1426I93398709I93682165I93894589I93947542I93789358I93540284I93413418
1419I93551806I93965928I94526406I94961857I94981469I94593394I94299212
1412I94707390I95813636I96959659I97663305I98119533I98670020I99176442
1405I99189742I98546771I97636645I97063297I97019169I97159274I97089405
1398I96689134I96073558I95542437I95433590I95858376I96546701I97036698
1391I97149100I97015370I96672954I96094335I95504929I95301576I95591835
1384I95969124I95889756I95216202I94233082I93278278I92619740I92504518
1377I93038152I93997308I94869435I95221227I95082104I94812743I94545773
1370I94063438I93320935I92683969I92495754I92758986I93259034I93722003
1363I93946684I93970096I93985663I94061354I94135512I94267159I94631638
1356I95205415I95701970I95970533I96232846I96685579I97105095I97199233
1349I97128017I97311206I97910663I98750492I99542454A000110164A000614502
1342A001431286A002550158A003362836A003349168A002673285A001841425A001127175
1335A000576381A000185977I99808995I99273339I98819931I99000485I99921826
1328A001030279A001822916A002296120A002539003A002399390A001763344A000857876
1321A000096864I99719208I99644498I99730424A000149572A001273837A003069695
1314A004892582A006077154A006471236A006284185A005771634A005194547A004736420
1307A004343565A003979821A003961496A004522096A005136814A004986781A004155472
1300A003686252A004334984A005761889A006983419A007223177A006393461A005169419
1293A004578236A005089561A006084019A006561697A006363737A006226881A006608459
1286A007117149A007201787A006864765A006565496A006763395A007512395A008409404
1279A009101467A009661210A010229042A010681041A010866682A010829051A010714626
1272A010669948A010662470A010377849A009668319A009061998A009432790A011121762
1265A013573952A015914783A017573908A018113793A017250737A015745567A014991174
1258A015170748A015254467A014557439A013209841A011574251A009941234A008458190
1251A007184933A006560655A007255292A008975766A010245529A010058172A009038463
1244A008415288A008510346A008728531A008453225A007427633A005743564A003988217
1237A003049838A003313008A004308263A005434980A006606008A007868722A008775783
1230A008575556A007108507A005290034A004274432A004138495A003960025A003246879
1223A002555367A002561864A003216480A004025419A004672436A005180390A005715862
1216A006411848A007300277A008286216A009183532A009795676A009903420A009311133
1209A008141821A006936104A006235829A006269966A007061928A008342294A009380389
1202A009580187A009329275A009663661A010956775A012349481A012637535A011503402
1195A009900294A009345209A010585125A012777455A014274228A014343361A013632911
1188A012943545A012439942A012052909A011614946A010792339A009936822A010412477
1181A012813002A015833515A018005558A019302288A020194517A020414296A019510115
1174A017794912A016240773A015748509A016444923A017529168A018242804A018888227
1167A020003176A020905089A020594114A019824093A020479690A022769529A024461443
1160A023493707A020525288A018020942A017446245A018233611A019158261A019713959
1153A019817229A019306578A018354716A017443058A016723599A016170844A016135848
1146A016883132A017898427A018437761A018418516A018236859A018209647A018645772
1139A019640842A020433050A019942685A018410304A017568576A018641727A020881922
1132A022691509A023419426A023114886A021672965A019205147A016372542A013905336
1125A012332137A012049783A012955006A014204053A014895013A014807433A014225198
1118A013475524A012844688A012345988A011531717A010156232A008795089A008140289
1111A008019981A007842124A007591824A007577298A007638893A007486838A007293168
1104A007384119A007805780A008337023A008749430A009111396A009725378A010511457
1097A010863433A010514215A010008467A009960479A010303446A010595115A010530701
1090A010119031A009714592A009720353A010170819A010627720A010493929A009614447
1083A008550857A008038551A008171607A008352100A008110503A007673520A007499953
1076A007650170A007914137A008214264A008559621A008856193A009029148A009193215
1069A009537776A010063749A010493867A010510905A010169961A009866279A009828219
1062A009924258A009969794A009957414A009992165A010184670A010616627A011352143
1055A012379696A013481224A014325526A014709127A014654152A014357702A014112796
1048A014202276A014769496A015745015A016780781A017345120A017193371A016702210
1041A016487763A016789851A017321892A017620303A017607616A017508146A017361361
1034A017062583A016738983A016640493A016652996A016409131A015803913A015111605
1027A014532128A014027606A013610357A013405840A013427658A013499181A013415768
1020A013087755A012526113A011799913A011052691A010462611A010145813A010092186
1013A010151697A010131778A009941296A009598267A009206331A009021119A009254381
1006A009742049A010148939A010297869A010148694A009849364A009749464A009906668
999A010051246A010029489A009840722A009491320A009055992A008667059A008282722
992A007710906A006839515A005672899A004424587A003652298A003738959A004391859
985A005114383A005495042A005257367A004375618A003111126A002005431A001388997
978A000953118A000267612I99378080I98481805I97505550I96543330I96090658
971I96172109I96203734I95815352I94939426I93680756I92365885I91369221
964I90841532I90725759I90908581I91346606I92086657I92963074I93746334
957I94496927I95327010I96124305I96822129I97490902I97953504I97890438
950I97419318I97260521I97930827I99117422A000253516A001066623A001653516
943A001941263A001386117I99832530I97895403I95469321I91238494I84525936
936I76287309I65534285I49848687I30737524I10489286H86732194H56937936
929H24459819G93813781G61988871G24315256F90600656F71917099F64996713
922F65839054F74336807F89919870G06396511G16219982G19023781G19911107
915G25053837G36601888G52681138G72880897G97475244H22749089H43344033
908H58343390H69298297H77533859H85394769H96024237I06419156I12816449
901I17489162I22920435I29399793I35272400I39892527I43853871I47529307
894I50816974I53849439I57519971I61983631I65805974I68475123I70253944
887I71038613I70438114I67449470I59195521I42190885I18179693H94247255
880H75678797H66894279H72834609H89886805I08511954I24677253I37663670
873I46812422I51970903I53866231I53936713I54128053I56102811I60191021
866I65174954I69369559I71956951I73103831I72946996I70917140I65964648
859I57423565I45996496I33106179I18761499I01784994H83338192H68316465
852H62041012H68366904H89036619I16389779I37561626I50806126I60417112
845I68628834I75067373I79340182I82096851I83952159I84873132I84322521
838I81777970I78235774I75222125I71545219I65780601I56954590I43869071
831I25957312I04534737H80758768H53781670H24020814G95086731G68276582
824G43142595G24785641G14040767G06839561G01726188G00371542G03562926
817G09438659G16227030G22576702G26651612G26638681G21064607G10095665
810F97783599F87661717F79719785F73937761F70794856F69541150F68816298
803F67837285F66522415F65806572F67842311F72378290F77237808F80881558
796F82037448F80212662F77188839F76320267F78585775F82479886F87158114
789F92975991F99772698G05924349G10282225G13053481G14841678G15935544
782G16077610G14757959G11846722G08653560G09534452G20748300G41602981
775G61941925G76239597G86254592G94332216G99950478G99880978G92103849
768G76830780G54453217G29660297G18243586G27000341G45271859G63550916
761G75720978G78349739G73672001G69522687G72695685G84263839H00809796
754H17191379H29630496H35967052H33479499H21253236H02536215G80782318
747G59783610G45436724G41901515G48974446G64582882G84660126H03406687
740H17446031H26351286H29882389H28196420H22077006H11456057G96167053
733G77829405G59908024G45436969G35618524G30774818G30574038G33212483
726G36758356G41016456G47633650G58984048G76327606G97512445H17814126
719H34683867H48598000H60133364H68424822H72208247H71283902H66331901
712H58545517H49455295H39790498H28152660H11908484G91237544G71439528
705G57393014G48959982G44022934G41382958G39645691G35446427G24813772
698G08114288F91296212F79862034F75631697F78158108F86357817F99429669
691G16937357G37926565G60340104G81913815H01260569H17788262H31458775
684H42842881H52645943H60941691H67337329H71941951H75637857H79403937
677H83415844H86681447H87567548H84746710H78061426H68965687H59933750
670H52959554H48647091H46722712H46976567H49449044H53883591H59229674
663H63803836H65982805H64661621H59481690H51448133H43336372H38775693
656H40322539H47980585H59301381H70879709H80099003H86097496H89463305
649H91095893H91423109H90590267H89067324H87820912H87812761H89279196
642H91438982H92973815H92984847H91605930H89793770H88696471H89143628
635H91310155H94387237H96239480H93295883H81410871H58266596H26096267
628G92305241G67051743G58541243G68305264G90394039H15573195H36592128
621H50407280H57065721H57810430H54225762H48270722H42460874H39520158
614H41249518H47489424H56306731H65196175H72242568H76663877H78720087
607H79244527H79168898H79287613H80256758H82662247H86914157H92871035
600H99581019I05660228I10164154I13111367I15071660I16279890I16284793
593I14402826I10251612I03745471H94762748H83063928H68562045H51512424
586H32243689H10582766G85911993G58824638G33372138G16713533G14892240
579G28334885G51578017G77063919G99007012H14756717H24246782H28561267
572H28073599H21520022H07496858G87300287G65913810G49829105G43732920
565G48598322G61981701G79801895G98208002H14427172H26751987H34677494
558H39203115H42088611H44187783H44986794H44117486H42663492H42577260
551H45416667H51808322H61060283H70478089H75476057H71150050H54385907
544H25554911G89670229G56276348G36358943G36574370G55117578G83508649
537H12751990H37917846H58141753H74336653H87543033H98435671I07393450
530I14702523I20668840I25622803I29845233I33434253I36274334I38117630
523I38549219I36820961I31804669I22338200I08240756H91483110H75964460
516H65458855H61452771H62439322H64907325H65964786H66196822H69473580
509H78899722H93364771I08769548I21829326I31733697I38889673I43460954
502I44999587I42296546I33529923I18134953H99614789H85467150H82472010
495H91525214I07531409I24072648I37528592I47390122I54421622I59410765
488I62997701I65736167I68021716I70087608I72081978I74050913I75890409
481I77436519I78590815I79344350I79774468I80002276I80084830I80079498
474I80223525I80799018I81817440I82896291I82997232I80105055I72120099
467I58937683I43235721I28612182I17143437I08785850I02495443H97721973
460H95387639H97551715I05552913I18324884I32690279I44874437I51634187
453I50904616I41885794I24581950I00918015H77485748H64223168H66879999
446H81982381I01257918I18969020I33470719I44842261I53717424I60982370
439I67017452I71678152I75062164I77604693I79530359I80624041I80593643
432I79755347I79218894I79948833I81723546I83429005I84260069I84350775
425I84368855I84733702I85308705I85785525I86069043I86110719I85692429
418I84666530I83256480I81958769I81247094I81373715I82279428I83550723
411I84421072I83800777I80491843I73913016I65114891I56924253I52390848
404I52666092I56369536I60822593I63652194I63618976I60788333I56262773
397I51179492I45152194I35416549I18025738H90977362H57155140H24379777
390H01887360G95650090H05824924H27477145H53286034H76592906H93849865
383I05468765I14305316I22874469I31833658I40768638I49575588I58522580
376I67427958I75532120I82219120I87472659I91647162I95136405I98242415
369A001061536A003476279A005395143A006919005A008218983A009447193A010788723
362A012374487A014132898A015890268A017532600A018973356A020153025A021138229
355A022000243A022594736A022730121A022566850A022606258A023251497A024521750
348A026125287A027616667A028588077A028945266A028889859A028463540A027368880
341A025423847A022839397A019790078A015938256A010543388A003070247I93878777
334I84388651I76395482I71107500I68665300I68311852I69016541I70014737
327I70547819I69315197I65093563I58305069I51508241I48048109I50152123
320I57572250I67111651I73812442I73877898I67063050I56232680I45050456
313I36098070I29608846I22896717I12311682H97202252H81487481H70862364
306H69143300H77204621H93790109I16212474I40825942I64040514I83601408
299I98930923A010322568A018345032A023928789A028078471A031239517A033388149
292A034608633A035231444A035496453A035167337A033502387A029250970A019549278
285I99266658I65324067I24108195H90649533H74985937H70084192H58306985
278H30780563G96540235G71657774G63072135G64681433G65770948G59534474
271G44424676G21556075F93970449F68157698F53057339F53731015F64647801
264F71969071F66276098F52301475F42029928F39398225F38646162F38350141
257F48252857F77590091G22702097G70735575H11348068H41490686H62554421
250H76735217H85433135H88969509H86738996H77584728H60784855H37109949
243H08351886G76105315G42380970G11429903F89257960F79824035F81138845
236F85209710F82632799F68797115F47214150F26604068F13383470F06947627
229F03285920F02185618F08108359F24222604F48373104F75120679F99759582
222G20089455G35954443G48249164G58086609G66224785G72946965G78267123
215G82151796G84747584G86537130G88158440G90152626G93206357G98137643
208H04127556H08981680H12368328H14865381H16547121H17009600H14992431
201H08331600G96523197G83935090G78447984G85199460H01978311H21550175
194H37897744H49528657H57706302H63629533H67895846H71156730H74082431
187H76842654H79074331H80367077H80625466H79960983H78380552H75662678
180H71556817H66168446H60135632H54505480H50613759H49529760H50570980
173H50425054H45117153H33624200H18869749H05358156G96861629G95726393
166H02497542H15197316H29703857H42012063H50302294H54792491H56466938
159H56446161H55767459H54934311H53647388H51424046H48763538H47093136
152H47120164H48166288H49634685H52293538H57364070H64842053H73403483
145H81534366H87855049H90609328H88228967H80729288H69466532H55256931
138H37781052H17752470G98839941G85877365G80611815G79203480G74871773
131G64091353G49672882G37563311G32343359G36327870G50102695G71535198
124G95635748H17463007H35065323H49362750H61936332H73022027H81174913
117H85160404H86272289H87787816H91666115H96564919H99576178H99327716
110H97064231H95516160H97088624I02227860I09483797I17219740I24565280
103I31114812I36606270I41210953I45528502I49739349I53345958I56281833
96I59458569I63344161I67031855I69778288I72246230I75361371I78988696
89I82451585I85428094I87896893I89799944I90962576I91356535I91408936
82I91780524I92901541I94800792I97037065I99003182A000648026A002224597
75A003195213A002503886I99845768I95123105I86900107I73840573I57869680
68I43162053I32866849I27881446I27254961I29251721I31652368I31805588
61I28235567I22691341I19130575I20215861I27132385I40121744I56607762
54I72066717I84027298I93589743A002953984A011730228A016876451A016353849
47A008769961I89333421I53838713I10307139H77870820H69102666H80880914
40I02076357I25443474I50344138I76211190I98947716A015631449A027010591
33A033263367A034220436A033818880A034885167A036257404A036886708A038219597
26A041586265A045157388A045786938A042381659A035846652A027729436A020436788
19A017095801A018699705A021133448A020214681A016650483A013248759A012633183
12A016101956A023123957A031851416A039022224A041322481A039855249A039002366
5A041381685A048071261A059647443A071395229A073741823
##END=


$$ === CHEMSPECTRA PEAK TABLE EDIT ===
##TITLE=X8797
##JCAMP-DX=5.00
##DATA TYPE=INFRAREDPEAKTABLE
##DATA CLASS=PEAKTABLE
##$CSTHRESHOLD=0.93
##MAXX=3997.453
##MAXY=1.0442516756299967
##MINX=373.96442
##MINY=0.5856466863513289
##$CSSOLVENTNAME=- - -
##$CSSOLVENTVALUE=0
##$CSSOLVENTX=0
##NPOINTS=56
##PEAKTABLE= (XY..XY)
392.3793345973713, 0.9854200439538664
396.6289302736809, 0.9930881812320317
432.0422275762312, 0.8452329003347365
456.1232697419855, 0.893886800818517
464.62246109460466, 0.9017880518569288
526.9498643471461, 0.8709209519481855
553.8639702971068, 0.7122296658200025
589.2772675996871, 0.8238278585546618
609.1087140891318, 0.7738718949324779
620.4409692259574, 0.8261975610663616
653.0212027443313, 0.7570680346711174
695.5171595074276, 0.5856466863513289
709.6824784284595, 0.6611527766505706
738.0131162705234, 0.6208179565134575
750.7619032994526, 0.6351212236735392
762.0941584362781, 0.7421144809037666
806.0066470914776, 0.845272418328428
828.6711573651551, 0.9220101193740124
841.4199443940838, 0.942061062521948
923.5787941360436, 0.7737976875821644
946.2433044097202, 0.9262335857422157
1007.1541757701325, 0.8404874169665869
1024.1525584753713, 0.8707959607568873
1075.1477065910867, 0.8582350574408716
1102.0618125410474, 0.8377931084769283
1138.891641735731, 0.7161349624479358
1154.473492548866, 0.8194360103664616
1174.3049390383107, 0.7233064143494672
1194.136385527756, 0.6952578390111583
1230.966214722439, 0.8550226648834537
1243.7150017513682, 0.8164628711837553
1259.2968525645033, 0.7377080291276039
1274.8787033776384, 0.8642885646154204
1284.7944266223608, 0.8634291255691767
1303.2093412197028, 0.8157388527958659
1318.791192032838, 0.8234676081905539
1357.0375531196246, 0.6570755805429666
1403.7831055590304, 0.710508938938176
1427.8641477247847, 0.7215253085947674
1446.2790623221263, 0.7483878695251749
1456.194785566849, 0.6985171408294838
1476.0262320562938, 0.6891905033591695
1495.8576785457385, 0.6577452390780877
1507.1899336825645, 0.6475203010290715
1532.687507740422, 0.6811359496584167
1579.4330601798279, 0.8383651935319819
1617.6794212666146, 0.8430851663303496
1680.0068245191555, 0.646732684676929
1733.835036419096, 0.9641194300816669
2869.893613885848, 0.8785901026079875
2908.1399749726347, 0.8689918477379073
2930.8044852462863, 0.8438864312409275
2963.3847187646597, 0.8054259382437409
3031.3782495856135, 0.9108400308100315
3062.541951211884, 0.9081060253802121
3277.8547988115715, 0.85129111652453
##END=


$$ === CHEMSPECTRA PEAK TABLE AUTO ===
##TITLE=X8797
##JCAMP-DX=5.00
##DATA TYPE=INFRAREDPEAKTABLE
##DATA CLASS=PEAKTABLE
##$CSTHRESHOLD=0.93
##MAXX=3997.453
##MAXY=1.0442516756299967
##MINX=373.96442
##MINY=0.5856466863513289
##NPOINTS=152
##PEAKTABLE= (XY..XY)
3991.786872431587, 0.9505215241949653
3971.9554259421425, 0.9510310849645823
3960.6231708053165, 0.9520974114154128
3949.290915668491, 0.9507709697381537
3943.624788100078, 0.951407667111632
3935.125596747459, 0.95101487183093
3928.042937286943, 0.9505395248482417
3918.1272140422207, 0.950519140511288
3896.8792356606723, 0.9482397398342646
3882.7139167396404, 0.9486028504242779
3871.381661602815, 0.94893419315329
3862.8824702501956, 0.9487308224358417
3851.5502151133696, 0.9468097046842974
3838.801428084441, 0.9465673518400308
3820.3865134870994, 0.94875591578804
3800.555066997654, 0.9511970831009021
3792.055875645035, 0.951915736984849
3779.3070886161063, 0.9524694041690425
3766.5583015871775, 0.9531926464738741
3750.976450774042, 0.9509561618283912
3745.310323205629, 0.9510039648491107
3735.394599960907, 0.9501640757046533
3724.0623448240813, 0.9518181041801366
3709.8970259030493, 0.9537499499670309
3699.981302658327, 0.9544432119304853
3687.2325156293978, 0.951907391660641
3670.2341329241594, 0.9529221017803896
3660.318409679437, 0.9562081055240679
3650.4026864347147, 0.9530674773086415
3634.820835621579, 0.954584713851195
3627.738176161063, 0.9545835808477335
3616.4059210242376, 0.9541746337030942
3606.4901977795153, 0.9542572457022604
3585.2422193979673, 0.9545984227068104
3565.410772908522, 0.9532096347180491
3546.9958583111807, 0.9560942012335936
3538.4966669585615, 0.9559407789494277
3531.414007498045, 0.9561474874075451
3515.83215668491, 0.956917758595109
3510.166029116497, 0.9572175104645186
3500.250305871775, 0.9565521437270585
3496.000710195465, 0.9566729024453405
3487.501518842846, 0.9572974995363583
3470.5031361376073, 0.9573572238930691
3450.6716896481626, 0.9574432922821939
3440.75596640344, 0.9563472227885652
3430.840243158718, 0.9573218780752141
3418.0914561297886, 0.9560291123729402
3277.8547988115715, 0.85129111652453
3139.034673385457, 0.9397879201086791
3130.535482032838, 0.9410049272670592
3119.2032268960124, 0.9415830926119331
3112.1205674354965, 0.9411438062604424
3105.0379079749805, 0.9413416345000137
3079.5403339171226, 0.9328509522694347
3062.541951211884, 0.9081060253802121
3031.3782495856135, 0.9108400308100315
3012.963334988272, 0.932344670888377
2963.3847187646597, 0.8054259382437409
2930.8044852462863, 0.8438864312409275
2908.1399749726347, 0.8689918477379073
2869.893613885848, 0.8785901026079875
2810.399274417514, 0.9383972240059338
2765.0702538702108, 0.9469787439380625
2755.1545306254884, 0.9465069136425126
2738.15614792025, 0.9491190273505886
2723.990828999218, 0.9483923276832631
2708.408978186083, 0.9484801252399023
2701.326318725567, 0.9497662144883028
2681.494872236122, 0.9494408324272865
2660.2468938545735, 0.9503521280207964
2641.831979257232, 0.9516990736568338
2627.6666603362, 0.9541076377009922
2619.167468983581, 0.9539901573987345
2610.6682776309617, 0.956287379782565
2602.1690862783425, 0.9561169099295795
2590.836831141517, 0.9556919295702925
2579.504576004691, 0.9569951257121573
2566.7557889757622, 0.9581018045918464
2555.4235338389362, 0.9587420176799283
2546.924342486317, 0.9594637710334301
2535.5920873494915, 0.960939581468308
2522.843300320563, 0.9623469662743989
2511.511045183737, 0.9627613382201607
2505.8449176153244, 0.9629358013025131
2497.3457262627053, 0.9623693180499812
2483.1804073416733, 0.9648460704243477
2469.015088420641, 0.9627974581760032
2459.0993651759186, 0.9636292412399018
2444.934046254886, 0.962879296037182
2426.5191316575447, 0.9641225888758667
2405.2711532759968, 0.9635414436832626
2384.023174894449, 0.9661294774207768
2374.1074516497265, 0.9669909432302939
2357.1090689444877, 0.9696361970464821
2348.6098775918686, 0.9680941657200244
2335.8610905629394, 0.9679657774634122
2324.528835426114, 0.9652455402138529
2308.9469846129787, 0.9652370169157106
2283.449410555121, 0.9697420555535777
1749.4168872322125, 0.9687331874525352
1736.6681002032838, 0.9635156345451864
1716.8366537138386, 0.9698709203524183
1680.0068245191555, 0.646732684676929
1617.6794212666146, 0.8430851663303496
1579.4330601798279, 0.8383651935319819
1532.687507740422, 0.6811359496584167
1507.1899336825645, 0.6475203010290715
1495.8576785457385, 0.6577452390780877
1476.0262320562938, 0.6891905033591695
1456.194785566849, 0.6985171408294838
1446.2790623221263, 0.7483878695251749
1427.8641477247847, 0.7215253085947674
1403.7831055590304, 0.710508938938176
1357.0375531196246, 0.6570755805429666
1318.791192032838, 0.8234676081905539
1303.2093412197028, 0.8157388527958659
1284.7944266223608, 0.8634291255691767
1274.8787033776384, 0.8642885646154204
1259.2968525645033, 0.7377080291276039
1243.7150017513682, 0.8164628711837553
1230.966214722439, 0.8550226648834537
1194.136385527756, 0.6952578390111583
1174.3049390383107, 0.7233064143494672
1154.473492548866, 0.8194360103664616
1138.891641735731, 0.7161349624479358
1102.0618125410474, 0.8377931084769283
1075.1477065910867, 0.8582350574408716
1045.4005368569192, 0.9531617714001497
1024.1525584753713, 0.8707959607568873
1007.1541757701325, 0.8404874169665869
983.0731336043782, 0.952324803751313
960.4086233307271, 0.954297299562825
946.2433044096947, 0.9262335857422157
923.5787941360436, 0.7737976875821644
840.0034125019542, 0.9417173219147164
828.6711573651287, 0.9220101193740124
806.0066470914776, 0.845272418328428
762.0941584362781, 0.7421144809037666
750.7619032994526, 0.6351212236735392
738.0131162705234, 0.6208179565134575
709.6824784284595, 0.6611527766505706
695.5171595074276, 0.5856466863513289
653.0212027443313, 0.7570680346711174
620.4409692259574, 0.8261975610663616
609.1087140891318, 0.7738718949324779
589.2772675996871, 0.8238278585546618
553.8639702971068, 0.7122296658200025
526.9498643471461, 0.8709209519481855
464.62246109460466, 0.9017880518569288
456.1232697419855, 0.893886800818517
432.0422275762312, 0.8452329003347365
##END=

##END=

