##TITLE= RQQVIK
##JCAMP-DX= 4.24
##DATA TYPE= INFRARED SPECTRUM
##ORIGIN= JASCO
##OWNER= 
##DATE= 19/12/19
##TIME= 12:48:49
##SPECTROMETER/DATA SYSTEM= 
##RESOLUTION= 
##DELTAX=   0.48211674
##XUNITS= 1/CM
##YUNITS= TRANSMITTANCE
##XFACTOR= 1.00000
##YFACTOR= 0.0001
##FIRSTX=   649.8934
##LASTX=  4000.1226
##NPOINTS=     6950
##FIRSTY=      0.97146
##MAXY=      1.01765
##MINY=      0.58611
##XYDATA= (X++(Y..Y))
649.8934 9715 9773 9877 10008 10125 10177 10122 9960 9738 9532 9407 9381 9429
656.1609 9501 9551 9564 9550 9533 9530 9548 9586 9643 9718 9802 9872 9902 9871
662.9105 9784 9668 9565 9502 9481 9483 9478 9437 9329 9124 8848 8658 8672 8780
669.6602 8869 8916 8938 8954 8978 9006 9028 9038 9046 9079 9157 9284 9437 9579
676.4098 9675 9709 9687 9626 9547 9472 9422 9417 9466 9560 9668 9751 9778 9747
683.1594 9681 9615 9575 9570 9589 9608 9604 9566 9495 9405 9319 9264 9258 9298
689.9091 9364 9426 9460 9464 9453 9451 9486 9581 9722 9855 9934 9942 9889 9796
696.6587 9688 9591 9521 9488 9495 9535 9600 9675 9742 9789 9805 9791 9753 9702
703.4083 9649 9599 9559 9532 9526 9542 9577 9619 9654 9672 9671 9658 9646 9644
710.1580 9654 9674 9695 9712 9718 9709 9686 9655 9628 9621 9643 9717 9776 9823
716.9076 9841 9823 9781 9732 9693 9670 9666 9676 9697 9723 9744 9749 9734 9705
723.6572 9682 9685 9724 9793 9869 9925 9943 9923 9881 9834 9797 9775 9766 9763
730.4069 9764 9762 9754 9744 9733 9728 9729 9737 9749 9762 9774 9784 9790 9794
737.1565 9799 9806 9822 9849 9886 9928 9969 9999 10012 10006 9983 9953 9924
743.4240 9905 9896 9892 9882 9861 9830 9802 9793 9809 9845 9882 9902 9895 9869
750.1736 9844 9839 9863 9906 9945 9960 9940 9893 9838 9793 9766 9754 9743 9719
756.9233 9678 9624 9572 9537 9525 9531 9537 9524 9473 9384 9266 9141 9026 8933
763.6729 8861 8803 8749 8696 8648 8614 8601 8616 8658 8721 8800 8886 8971 9049
770.4225 9114 9163 9198 9227 9260 9303 9358 9416 9456 9458 9404 9290 9125 8931
777.1722 8739 8577 8462 8402 8387 8396 8409 8409 8395 8381 8386 8429 8519 8651
783.9218 8810 8979 9141 9290 9423 9543 9651 9749 9835 9902 9944 9956 9942 9915
790.6714 9892 9886 9901 9928 9951 9952 9924 9875 9820 9779 9764 9778 9812 9854
797.4211 9892 9919 9934 9942 9947 9951 9951 9944 9928 9904 9877 9854 9839 9834
804.1707 9833 9831 9822 9806 9785 9772 9776 9806 9859 9923 9978 10008 10009
810.4382 9991 9973 9966 9969 9971 9956 9917 9859 9800 9757 9739 9744 9758 9770
817.1879 9774 9774 9777 9792 9820 9853 9876 9877 9850 9798 9735 9677 9637 9619
823.9375 9615 9614 9604 9582 9555 9532 9518 9512 9506 9497 9487 9485 9497 9524
830.6871 9556 9579 9580 9559 9524 9490 9467 9460 9466 9478 9493 9505 9516 9523
837.4368 9524 9520 9509 9496 9482 9468 9451 9430 9402 9369 9337 9309 9285 9263
844.1864 9238 9211 9180 9149 9116 9074 9019 8946 8858 8760 8660 8560 8459 8359
850.9360 8264 8186 8139 8137 8185 8275 8392 8516 8631 8726 8797 8844 8871 8878
857.6857 8867 8842 8808 8773 8744 8729 8731 8752 8790 8842 8901 8960 9012 9050
864.4353 9074 9090 9112 9149 9206 9277 9344 9391 9406 9391 9362 9335 9324 9335
871.1849 9366 9415 9479 9550 9621 9677 9705 9700 9666 9615 9562 9517 9483 9460
877.9346 9444 9434 9429 9428 9427 9424 9419 9418 9430 9465 9522 9593 9659 9704
884.6842 9716 9701 9672 9650 9649 9672 9712 9751 9774 9770 9744 9706 9668 9640
891.4338 9620 9602 9581 9554 9525 9499 9479 9462 9444 9421 9394 9370 9356 9361
898.1835 9387 9429 9476 9515 9535 9538 9531 9527 9537 9564 9602 9636 9655 9652
904.9331 9630 9596 9559 9526 9497 9471 9446 9426 9413 9413 9425 9447 9474 9501
911.6827 9527 9553 9581 9613 9651 9695 9746 9799 9847 9881 9896 9889 9865 9833
918.4324 9804 9783 9774 9774 9779 9785 9791 9794 9796 9799 9807 9822 9843 9865
925.1820 9882 9889 9884 9871 9853 9835 9819 9802 9785 9767 9753 9747 9751 9764
931.9316 9778 9784 9774 9747 9705 9656 9606 9561 9525 9498 9482 9473 9464 9451
938.6813 9427 9392 9349 9304 9266 9242 9236 9249 9278 9318 9365 9415 9466 9518
945.4309 9567 9611 9647 9676 9700 9724 9752 9782 9807 9823 9826 9819 9810 9804
952.1805 9805 9813 9823 9833 9838 9836 9827 9812 9793 9774 9759 9750 9747 9745
958.9302 9743 9740 9738 9740 9746 9755 9763 9766 9761 9749 9730 9708 9687 9673
965.6798 9667 9667 9667 9660 9643 9615 9581 9547 9517 9492 9472 9454 9435 9415
972.4294 9390 9359 9322 9279 9232 9185 9138 9091 9040 8984 8922 8854 8785 8715
979.1791 8646 8575 8500 8422 8341 8261 8185 8115 8051 7997 7958 7942 7954 7996
985.9287 8063 8147 8242 8341 8440 8537 8628 8711 8783 8846 8901 8950 8993 9032
992.6783 9069 9105 9144 9185 9226 9263 9292 9313 9324 9325 9318 9301 9272 9232
999.4280 9183 9128 9071 9013 8955 8896 8833 8764 8691 8615 8541 8472 8416 8377
1006.1776 8358 8361 8384 8423 8473 8529 8589 8651 8715 8780 8844 8907 8971
1012.4451 9037 9105 9174 9237 9288 9323 9341 9349 9352 9353 9352 9345 9329
1018.7126 9307 9284 9269 9265 9273 9288 9303 9314 9316 9308 9290 9263 9232
1024.9802 9205 9189 9189 9203 9226 9252 9274 9290 9297 9296 9288 9271 9245
1031.2477 9214 9176 9132 9081 9020 8954 8888 8832 8790 8759 8730 8689 8628
1037.5153 8546 8451 8353 8265 8191 8138 8111 8115 8156 8233 8337 8457 8579
1043.7827 8695 8803 8906 9006 9104 9198 9289 9373 9452 9528 9601 9673 9741
1050.0503 9802 9851 9883 9899 9905 9907 9912 9923 9935 9941 9936 9920 9900
1056.3177 9883 9875 9880 9893 9910 9928 9945 9962 9977 9986 9987 9980 9969
1062.5853 9962 9964 9978 9996 10011 10015 10005 9986 9968 9955 9951 9953 9956
1068.8528 9955 9951 9945 9943 9947 9955 9962 9962 9951 9930 9906 9888 9880
1075.1204 9885 9898 9915 9930 9938 9936 9924 9904 9881 9861 9851 9852 9860
1081.3878 9870 9877 9879 9877 9874 9870 9866 9862 9858 9855 9856 9860 9867
1087.6554 9875 9881 9881 9875 9864 9848 9829 9809 9789 9772 9757 9745 9735
1093.9229 9726 9721 9721 9729 9746 9768 9790 9803 9801 9784 9754 9719 9687
1100.1904 9664 9653 9654 9663 9676 9686 9691 9688 9681 9673 9664 9656 9647
1106.4579 9638 9629 9624 9626 9636 9650 9663 9668 9661 9643 9618 9594 9577
1112.7255 9569 9570 9575 9577 9568 9547 9514 9477 9441 9409 9380 9351 9319
1118.9929 9286 9254 9225 9199 9172 9138 9093 9037 8973 8910 8851 8801 8759
1125.2605 8723 8693 8666 8643 8623 8607 8594 8583 8575 8571 8574 8587 8614
1131.5280 8657 8716 8788 8869 8955 9038 9111 9171 9216 9250 9275 9295 9312
1137.7955 9323 9328 9326 9317 9306 9294 9280 9264 9243 9215 9181 9145 9110
1144.0630 9078 9048 9019 8987 8950 8905 8852 8793 8732 8671 8613 8559 8505
1150.3306 8447 8383 8309 8227 8139 8048 7957 7867 7783 7708 7649 7610 7598
1156.5980 7617 7667 7748 7852 7971 8096 8218 8330 8430 8519 8602 8682 8761
1162.8656 8840 8914 8981 9037 9081 9114 9140 9161 9180 9196 9208 9214 9213
1169.1331 9210 9207 9208 9213 9219 9219 9209 9190 9164 9135 9106 9078 9047
1175.4006 9012 8973 8930 8887 8846 8808 8772 8737 8701 8664 8623 8579 8530
1181.6681 8479 8425 8371 8318 8265 8214 8163 8115 8071 8033 8004 7983 7969
1187.9357 7957 7946 7934 7924 7917 7917 7921 7926 7927 7922 7909 7886 7855
1194.2031 7816 7769 7714 7655 7594 7531 7465 7396 7321 7240 7155 7065 6976
1200.4707 6883 6790 6699 6610 6524 6441 6359 6278 6198 6121 6051 5989 5937
1206.7382 5897 5871 5861 5868 5894 5938 5995 6062 6136 6214 6299 6393 6500
1213.0057 6621 6753 6894 7040 7189 7341 7497 7657 7823 7991 8157 8317 8465
1219.2732 8597 8709 8800 8869 8919 8953 8975 8986 8987 8980 8963 8939 8911
1225.5408 8885 8862 8844 8826 8805 8779 8749 8721 8701 8693 8698 8714 8736
1231.8082 8756 8773 8783 8789 8795 8806 8822 8846 8875 8904 8930 8950 8963
1238.0758 8971 8974 8972 8965 8951 8933 8912 8890 8867 8841 8809 8770 8722
1244.3433 8666 8605 8540 8471 8398 8321 8239 8152 8064 7974 7885 7796 7709
1250.6108 7623 7538 7453 7369 7286 7207 7130 7056 6987 6924 6871 6830 6803
1256.8783 6792 6798 6818 6853 6903 6965 7035 7108 7177 7238 7290 7334 7371
1263.1459 7402 7425 7436 7435 7422 7402 7380 7361 7345 7328 7309 7289 7269
1269.4133 7253 7244 7239 7236 7232 7225 7217 7210 7208 7212 7223 7241 7267
1275.6809 7302 7344 7391 7439 7488 7535 7580 7624 7669 7713 7757 7798 7833
1281.9484 7862 7885 7902 7915 7926 7936 7946 7956 7967 7979 7993 8007 8023
1288.2159 8038 8055 8072 8090 8108 8127 8148 8170 8194 8220 8247 8274 8299
1294.4834 8322 8345 8367 8392 8421 8457 8498 8544 8594 8647 8705 8766 8830
1300.7510 8897 8967 9036 9104 9171 9236 9299 9360 9419 9475 9526 9572 9613
1307.0184 9648 9679 9711 9743 9778 9813 9844 9869 9886 9897 9905 9912 9921
1313.2860 9933 9945 9957 9967 9975 9981 9986 9989 9993 9995 9998 10000 10001
1319.5535 10002 10003 10003 10003 10002 10000 9996 9989 9980 9970 9959 9951
1325.3389 9946 9943 9939 9931 9917 9897 9874 9851 9830 9814 9801 9790 9780
1331.6064 9771 9763 9755 9744 9729 9707 9679 9646 9611 9576 9543 9511 9480
1337.8739 9448 9414 9379 9342 9306 9269 9230 9187 9140 9085 9025 8959 8890
1344.1415 8820 8750 8680 8611 8544 8479 8419 8366 8322 8288 8265 8250 8241
1350.4089 8235 8231 8226 8218 8208 8192 8171 8142 8106 8063 8017 7972 7933
1356.6765 7902 7882 7875 7878 7890 7909 7933 7959 7987 8016 8043 8066 8081
1362.9440 8087 8084 8077 8070 8067 8068 8070 8067 8056 8036 8009 7981 7957
1369.2115 7940 7930 7925 7924 7929 7940 7959 7988 8023 8060 8092 8114 8121
1375.4790 8113 8092 8059 8019 7973 7926 7883 7848 7825 7818 7829 7858 7906
1381.7466 7972 8055 8153 8263 8379 8493 8599 8693 8778 8859 8943 9032 9119
1388.0140 9194 9251 9295 9329 9361 9392 9421 9447 9468 9484 9496 9502 9502
1394.2816 9496 9488 9481 9478 9476 9473 9468 9459 9445 9426 9406 9388 9370
1400.5491 9352 9332 9306 9274 9236 9192 9142 9087 9026 8965 8908 8855 8808
1406.8167 8765 8725 8691 8663 8643 8632 8627 8626 8628 8632 8638 8646 8654
1413.0841 8660 8664 8664 8660 8653 8643 8635 8632 8637 8654 8685 8736 8807
1419.3517 8889 8964 9020 9058 9085 9109 9130 9149 9163 9171 9173 9168 9156
1425.6191 9136 9110 9079 9046 9013 8980 8946 8908 8864 8817 8768 8718 8666
1431.8867 8611 8548 8479 8408 8341 8285 8241 8210 8196 8200 8225 8256 8281
1438.1542 8297 8310 8328 8353 8385 8422 8460 8495 8527 8555 8577 8592 8601
1444.4218 8606 8610 8617 8632 8660 8705 8767 8840 8912 8974 9023 9061 9095
1450.6892 9126 9155 9181 9203 9216 9219 9213 9199 9180 9157 9133 9111 9096
1456.9568 9092 9095 9096 9091 9081 9072 9066 9064 9066 9069 9071 9073 9073
1463.2242 9072 9069 9064 9059 9055 9054 9054 9055 9055 9055 9052 9046 9037
1469.4918 9026 9014 8999 8980 8957 8930 8900 8870 8836 8796 8751 8699 8640
1475.7593 8575 8506 8441 8386 8340 8304 8275 8256 8247 8252 8274 8313 8368
1482.0269 8435 8512 8596 8684 8771 8854 8930 8998 9059 9116 9171 9220 9261
1488.2943 9294 9319 9341 9363 9387 9409 9423 9428 9423 9414 9402 9391 9380
1494.5619 9368 9350 9320 9280 9235 9194 9157 9122 9083 9040 8997 8956 8923
1500.8293 8898 8881 8873 8874 8885 8904 8931 8963 8997 9029 9056 9083 9122
1507.0969 9173 9226 9273 9313 9348 9378 9404 9428 9455 9486 9521 9555 9582
1513.3644 9598 9604 9601 9593 9582 9571 9565 9569 9582 9599 9613 9622 9629
1519.6320 9634 9632 9623 9610 9603 9601 9600 9595 9589 9581 9572 9564 9558
1525.8994 9554 9552 9549 9543 9534 9524 9514 9502 9488 9472 9454 9435 9417
1532.1670 9401 9387 9373 9358 9342 9323 9302 9281 9261 9244 9232 9223 9216
1538.4344 9212 9216 9239 9277 9318 9355 9389 9425 9462 9499 9534 9572 9616
1544.7020 9669 9724 9774 9812 9838 9859 9877 9895 9911 9924 9937 9953 9970
1550.9695 9988 10003 10016 10026 10034 10034 10026 10012 9999 9991 9990 9996
1556.7549 10006 10012 10006 9985 9969 9978 10000 10010 10008 9998 9989 9983
1562.5403 9977 9969 9957 9939 9920 9907 9900 9896 9893 9887 9880 9873 9867
1568.8079 9865 9868 9876 9885 9891 9895 9897 9899 9899 9898 9895 9892 9890
1575.0753 9884 9873 9859 9846 9834 9823 9812 9801 9791 9778 9763 9745 9727
1581.3429 9708 9689 9669 9648 9624 9599 9576 9555 9539 9527 9515 9504 9493
1587.6104 9482 9475 9473 9478 9488 9502 9518 9534 9550 9563 9575 9585 9594
1593.8779 9601 9608 9613 9617 9619 9619 9617 9614 9609 9602 9592 9579 9561
1600.1454 9541 9519 9498 9478 9459 9440 9421 9401 9383 9366 9349 9331 9308
1606.4130 9279 9244 9205 9163 9120 9077 9036 8996 8957 8918 8877 8833 8788
1612.6804 8745 8708 8679 8659 8649 8646 8653 8675 8715 8765 8806 8831 8846
1618.9480 8859 8874 8889 8901 8908 8909 8904 8894 8879 8860 8837 8809 8778
1625.2155 8743 8707 8667 8625 8578 8528 8479 8432 8389 8348 8309 8271 8231
1631.4830 8188 8141 8095 8053 8017 7988 7964 7941 7916 7886 7851 7815 7783
1637.7506 7759 7743 7735 7732 7732 7735 7740 7750 7763 7780 7799 7819 7839
1644.0181 7860 7883 7908 7937 7968 8001 8035 8068 8100 8126 8142 8148 8146
1650.2856 8140 8136 8138 8146 8163 8197 8247 8281 8280 8262 8243 8231 8228
1656.5531 8231 8241 8256 8278 8307 8343 8384 8428 8474 8522 8577 8646 8731
1662.8207 8828 8922 9004 9073 9134 9193 9248 9299 9342 9379 9411 9444 9479
1669.0881 9516 9549 9577 9599 9622 9648 9674 9698 9716 9729 9737 9742 9747
1675.3557 9755 9765 9771 9769 9763 9754 9741 9726 9711 9701 9700 9707 9720
1681.6232 9735 9748 9754 9744 9715 9680 9663 9661 9656 9643 9626 9608 9591
1687.8907 9574 9556 9538 9520 9502 9484 9465 9443 9416 9385 9352 9319 9289
1694.1582 9258 9221 9167 9092 9013 8943 8885 8838 8802 8772 8738 8673 8554
1700.4258 8403 8270 8163 8069 7976 7876 7767 7651 7536 7436 7360 7309 7280
1706.6932 7270 7275 7291 7316 7348 7390 7442 7504 7572 7641 7708 7771 7830
1712.9608 7888 7944 7997 8044 8080 8105 8121 8129 8131 8125 8111 8094 8079
1719.2283 8070 8073 8091 8124 8171 8230 8300 8378 8465 8558 8653 8742 8822
1725.4958 8891 8951 9004 9051 9092 9127 9157 9185 9212 9240 9265 9285 9298
1731.7633 9307 9312 9316 9316 9316 9318 9318 9309 9295 9280 9270 9263 9259
1738.0309 9255 9251 9250 9257 9274 9295 9313 9326 9333 9338 9341 9345 9351
1744.2983 9358 9365 9370 9374 9377 9380 9384 9391 9399 9408 9415 9422 9429
1750.5659 9439 9454 9472 9490 9504 9514 9522 9531 9540 9548 9554 9558 9559
1756.8334 9560 9562 9565 9570 9576 9583 9592 9602 9614 9627 9640 9651 9660
1763.1010 9666 9673 9682 9693 9704 9713 9720 9725 9732 9740 9749 9753 9751
1769.3684 9743 9733 9726 9725 9731 9744 9761 9773 9777 9775 9774 9775 9782
1775.6360 9791 9800 9809 9815 9819 9819 9816 9810 9802 9796 9795 9799 9806
1781.9034 9812 9815 9816 9816 9817 9822 9829 9835 9838 9837 9833 9827 9823
1788.1710 9822 9824 9828 9833 9835 9835 9833 9830 9828 9828 9829 9827 9821
1794.4385 9815 9811 9810 9813 9820 9829 9837 9842 9845 9847 9848 9851 9855
1800.7061 9859 9860 9857 9853 9848 9846 9847 9850 9852 9852 9848 9840 9832
1806.9735 9824 9819 9816 9816 9818 9821 9823 9822 9821 9819 9819 9823 9830
1813.2411 9840 9850 9858 9860 9858 9851 9843 9836 9833 9837 9845 9856 9866
1819.5085 9873 9876 9875 9872 9866 9860 9853 9844 9835 9827 9824 9827 9839
1825.7761 9855 9867 9869 9861 9846 9829 9814 9808 9814 9827 9840 9847 9849
1832.0436 9848 9847 9848 9852 9858 9864 9869 9871 9873 9873 9873 9873 9871
1838.3112 9867 9860 9851 9843 9839 9838 9841 9844 9848 9849 9845 9839 9835
1844.5786 9835 9840 9848 9855 9860 9861 9859 9855 9853 9854 9859 9867 9874
1850.8462 9879 9880 9880 9878 9877 9875 9871 9866 9859 9853 9849 9848 9848
1857.1136 9850 9854 9858 9863 9868 9871 9872 9871 9868 9867 9869 9872 9877
1863.3812 9881 9883 9882 9878 9871 9861 9852 9845 9841 9841 9844 9850 9858
1869.6487 9866 9874 9881 9888 9896 9902 9906 9905 9898 9889 9879 9871 9868
1875.9163 9868 9871 9875 9879 9885 9893 9901 9906 9907 9901 9888 9873 9857
1882.1837 9845 9838 9837 9843 9855 9871 9887 9898 9903 9900 9891 9880 9872
1888.4513 9868 9867 9866 9863 9857 9849 9842 9839 9840 9843 9847 9851 9856
1894.7188 9861 9868 9876 9883 9887 9887 9886 9884 9884 9885 9888 9890 9890
1900.9863 9889 9886 9882 9876 9869 9861 9855 9852 9852 9857 9865 9873 9879
1907.2538 9883 9884 9881 9875 9870 9868 9871 9878 9884 9885 9877 9862 9846
1913.5214 9836 9839 9856 9883 9910 9929 9935 9928 9911 9894 9884 9882 9884
1919.7888 9886 9884 9879 9872 9866 9864 9868 9876 9886 9894 9900 9901 9898
1926.0564 9891 9883 9877 9875 9875 9877 9878 9876 9873 9870 9870 9873 9880
1932.3239 9886 9891 9894 9895 9896 9900 9907 9915 9924 9930 9935 9939 9943
1938.5914 9947 9948 9945 9935 9922 9908 9896 9886 9879 9873 9868 9866 9871
1944.8589 9881 9897 9913 9923 9922 9909 9888 9868 9856 9857 9872 9895 9919
1951.1265 9935 9939 9932 9919 9906 9898 9896 9900 9907 9917 9929 9943 9958
1957.3939 9970 9976 9973 9963 9950 9937 9928 9924 9923 9923 9923 9922 9922
1963.6615 9921 9919 9913 9903 9891 9881 9879 9889 9910 9933 9951 9954 9943
1969.9290 9923 9906 9900 9907 9923 9936 9939 9928 9911 9894 9887 9891 9901
1976.1965 9913 9921 9925 9924 9923 9923 9925 9926 9926 9924 9921 9918 9918
1982.4640 9923 9933 9946 9957 9960 9952 9935 9915 9897 9889 9892 9905 9921
1988.7316 9934 9941 9940 9933 9924 9914 9905 9900 9899 9902 9906 9910 9911
1994.9990 9908 9903 9899 9898 9904 9915 9929 9944 9953 9953 9941 9919 9893
2001.2666 9870 9859 9862 9877 9899 9921 9936 9945 9949 9950 9951 9951 9948
2007.5341 9942 9933 9925 9920 9921 9928 9938 9947 9950 9944 9932 9919 9911
2013.8016 9912 9923 9938 9951 9956 9951 9938 9920 9904 9892 9885 9883 9882
2020.0691 9884 9886 9890 9896 9904 9913 9924 9933 9941 9947 9952 9955 9957
2026.3367 9956 9950 9940 9929 9919 9916 9918 9925 9930 9932 9928 9921 9914
2032.6041 9912 9916 9926 9939 9952 9961 9964 9959 9950 9939 9931 9930 9939
2038.8717 9957 9982 10008 10028 10034 10023 9997 9964 9934 9914 9907 9909 9913
2045.1392 9913 9909 9904 9903 9911 9927 9948 9967 9980 9984 9981 9972 9960
2051.4067 9948 9937 9928 9921 9916 9916 9918 9923 9928 9934 9937 9937 9935
2057.6743 9931 9925 9920 9916 9916 9920 9926 9933 9938 9941 9944 9944 9943
2063.9417 9939 9933 9927 9924 9925 9932 9943 9956 9970 9983 9991 9993 9988
2070.2092 9976 9962 9950 9943 9939 9936 9933 9931 9934 9942 9955 9968 9974
2076.4768 9970 9957 9941 9927 9919 9918 9922 9929 9938 9947 9956 9960 9958
2082.7444 9947 9929 9910 9896 9891 9898 9911 9926 9940 9950 9958 9963 9964
2089.0117 9959 9948 9934 9921 9914 9914 9920 9928 9934 9937 9938 9940 9941
2095.2793 9943 9943 9941 9938 9937 9939 9945 9950 9952 9950 9946 9940 9935
2101.5469 9931 9928 9927 9930 9935 9940 9943 9941 9935 9927 9922 9921 9923
2107.8145 9928 9933 9937 9938 9935 9928 9920 9912 9911 9918 9934 9952 9966
2114.0818 9970 9962 9946 9929 9916 9910 9910 9912 9914 9914 9913 9912 9914
2120.3494 9919 9926 9932 9938 9942 9945 9946 9945 9943 9940 9936 9933 9932
2126.6169 9937 9946 9958 9970 9978 9981 9978 9972 9966 9961 9956 9950 9941
2132.8845 9930 9920 9914 9911 9913 9918 9925 9935 9945 9954 9958 9956 9949
2139.1519 9940 9934 9932 9936 9941 9946 9949 9950 9951 9952 9955 9958 9958
2145.4194 9955 9947 9935 9924 9917 9915 9919 9925 9931 9936 9938 9940 9943
2151.6870 9949 9958 9967 9973 9974 9968 9957 9944 9933 9930 9936 9951 9970
2157.9546 9985 9992 9991 9984 9976 9969 9966 9966 9970 9977 9986 9994 9999
2164.2219 10001 10000 9999 10000 10003 10004 10000 9989 9969 9944 9919 9899
2170.0073 9887 9886 9895 9915 9939 9965 9987 10001 10006 10003 9993 9979 9963
2176.2749 9949 9939 9937 9944 9958 9977 9994 10004 10005 9996 9980 9960 9938
2182.5425 9916 9896 9882 9876 9879 9889 9904 9921 9936 9950 9962 9969 9970
2188.8101 9963 9949 9933 9918 9910 9908 9910 9913 9915 9917 9924 9937 9955
2195.0774 9973 9983 9981 9968 9952 9941 9938 9942 9946 9944 9934 9920 9912
2201.3450 9916 9934 9959 9982 9993 9988 9971 9949 9933 9929 9937 9952 9967
2207.6125 9977 9982 9984 9986 9990 9993 9992 9985 9972 9958 9946 9940 9941
2213.8801 9949 9960 9973 9984 9990 9991 9987 9980 9973 9967 9960 9952 9940
2220.1475 9927 9916 9910 9910 9914 9921 9929 9937 9948 9959 9970 9976 9975
2226.4150 9968 9959 9951 9949 9954 9964 9973 9978 9974 9961 9942 9920 9900
2232.6826 9887 9883 9888 9904 9926 9950 9973 9989 9999 10003 10003 10000 9995
2238.9502 9986 9973 9960 9949 9945 9947 9952 9956 9954 9946 9936 9929 9927
2245.2175 9929 9935 9938 9939 9935 9931 9929 9933 9944 9961 9978 9990 9992
2251.4851 9982 9960 9932 9905 9886 9882 9893 9917 9943 9962 9966 9953 9930
2257.7527 9906 9892 9890 9898 9910 9919 9923 9923 9923 9924 9930 9938 9947
2264.0203 9956 9963 9967 9966 9960 9949 9936 9925 9919 9921 9928 9939 9950
2270.2876 9958 9962 9961 9957 9952 9947 9943 9941 9941 9941 9940 9938 9934
2276.5552 9930 9927 9925 9925 9927 9931 9935 9940 9944 9945 9942 9937 9931
2282.8228 9926 9923 9921 9920 9917 9912 9907 9902 9900 9901 9903 9905 9905
2289.0903 9904 9904 9905 9907 9910 9910 9907 9904 9904 9909 9918 9926 9929
2295.3577 9924 9915 9905 9900 9900 9905 9911 9915 9915 9912 9907 9903 9900
2301.6252 9901 9904 9912 9922 9933 9941 9944 9939 9927 9910 9892 9879 9875
2307.8928 9882 9898 9918 9938 9952 9959 9960 9958 9954 9947 9936 9917 9893
2314.1604 9868 9852 9851 9865 9890 9916 9933 9938 9932 9922 9913 9910 9911
2320.4277 9915 9920 9926 9929 9930 9927 9920 9914 9911 9913 9920 9924 9922
2326.6953 9909 9887 9863 9845 9841 9850 9868 9887 9900 9906 9907 9909 9912
2332.9629 9918 9922 9924 9924 9922 9919 9913 9903 9890 9877 9867 9863 9866
2339.2305 9873 9881 9890 9900 9912 9925 9937 9944 9943 9933 9918 9901 9889
2345.4978 9884 9886 9889 9889 9885 9877 9870 9867 9870 9880 9893 9907 9917
2351.7654 9921 9920 9916 9912 9909 9906 9900 9890 9876 9866 9867 9887 9928
2358.0330 9979 10027 10057 10062 10043 10010 9972 9934 9898 9865 9838 9821
2363.8184 9819 9832 9857 9884 9905 9917 9921 9923 9926 9929 9929 9922 9910
2370.0859 9898 9894 9903 9926 9955 9980 9993 9993 9982 9964 9944 9927 9913
2376.3533 9903 9898 9899 9902 9907 9910 9909 9906 9902 9901 9904 9910 9917
2382.6208 9922 9924 9926 9928 9931 9933 9935 9933 9931 9929 9929 9933 9938
2388.8884 9942 9943 9938 9928 9918 9912 9913 9922 9936 9950 9958 9957 9951
2395.1560 9945 9943 9946 9950 9951 9948 9943 9942 9948 9960 9972 9979 9978
2401.4233 9972 9964 9959 9958 9959 9959 9957 9953 9948 9945 9946 9952 9963
2407.6909 9976 9989 9999 10003 10000 9992 9981 9971 9963 9959 9958 9959 9961
2413.9585 9963 9963 9962 9958 9952 9945 9940 9940 9946 9957 9970 9980 9986
2420.2261 9986 9983 9980 9977 9976 9976 9976 9977 9977 9976 9974 9972 9970
2426.4934 9969 9971 9977 9985 9992 9993 9988 9976 9962 9950 9943 9941 9942
2432.7610 9944 9945 9947 9951 9959 9969 9978 9984 9986 9983 9979 9973 9966
2439.0286 9959 9951 9942 9934 9928 9924 9925 9930 9939 9948 9956 9961 9961
2445.2961 9957 9950 9944 9942 9946 9954 9963 9966 9962 9952 9940 9934 9937
2451.5635 9949 9964 9976 9981 9979 9974 9969 9967 9967 9967 9965 9962 9959
2457.8311 9958 9963 9973 9987 10001 10012 10016 10012 10001 9986 9968 9952
2463.6165 9940 9934 9935 9943 9957 9973 9988 9999 10003 10000 9993 9981 9968
2469.8840 9954 9940 9929 9923 9921 9925 9933 9942 9953 9963 9970 9975 9976
2476.1516 9973 9969 9964 9960 9958 9960 9966 9974 9982 9987 9987 9982 9974
2482.4189 9966 9961 9959 9960 9963 9964 9964 9963 9963 9964 9967 9971 9973
2488.6865 9970 9963 9951 9941 9935 9938 9946 9958 9969 9976 9979 9979 9978
2494.9541 9977 9975 9974 9974 9974 9974 9972 9969 9965 9962 9962 9965 9969
2501.2217 9974 9976 9975 9972 9969 9969 9973 9977 9981 9979 9973 9963 9954
2507.4890 9949 9950 9958 9969 9978 9982 9980 9974 9968 9964 9963 9965 9968
2513.7566 9971 9972 9972 9974 9977 9981 9986 9990 9996 10002 10008 10009 10005
2520.0242 9994 9978 9963 9952 9949 9952 9958 9965 9971 9975 9978 9980 9980
2526.2917 9978 9972 9966 9961 9961 9964 9970 9974 9976 9974 9970 9965 9963
2532.5591 9963 9968 9976 9987 9997 10002 9998 9988 9973 9960 9952 9950 9953
2538.8267 9956 9959 9960 9960 9959 9958 9957 9955 9955 9958 9966 9976 9987
2545.0942 9995 9997 9991 9978 9960 9941 9925 9916 9915 9922 9935 9949 9962
2551.3618 9969 9971 9968 9963 9958 9954 9955 9959 9967 9976 9982 9983 9977
2557.6292 9967 9955 9945 9940 9937 9937 9936 9935 9934 9934 9936 9940 9947
2563.8967 9954 9961 9967 9971 9974 9974 9971 9966 9960 9955 9952 9951 9953
2570.1643 9957 9962 9968 9973 9975 9973 9967 9957 9946 9937 9930 9925 9922
2576.4319 9921 9921 9925 9933 9945 9961 9977 9990 9998 9999 9993 9983 9971
2582.6992 9959 9949 9941 9937 9937 9942 9952 9965 9977 9985 9987 9984 9976
2588.9668 9968 9962 9960 9960 9961 9961 9960 9958 9955 9954 9955 9960 9966
2595.2344 9972 9976 9979 9981 9984 9987 9989 9990 9988 9984 9979 9976 9975
2601.5020 9976 9977 9976 9973 9969 9966 9966 9968 9971 9974 9975 9974 9971
2607.7693 9968 9965 9962 9959 9956 9954 9952 9952 9956 9961 9968 9974 9976
2614.0369 9974 9969 9964 9961 9963 9968 9974 9980 9984 9985 9984 9982 9980
2620.3044 9977 9973 9971 9969 9968 9968 9965 9961 9956 9952 9951 9952 9955
2626.5720 9956 9956 9956 9957 9960 9966 9970 9971 9970 9967 9966 9967 9969
2632.8396 9971 9969 9965 9959 9954 9951 9953 9957 9963 9968 9972 9971 9968
2639.1069 9964 9961 9960 9962 9964 9967 9969 9969 9969 9969 9969 9969 9968
2645.3745 9968 9968 9968 9970 9971 9973 9974 9975 9975 9973 9969 9963 9957
2651.6421 9952 9952 9957 9964 9970 9972 9970 9964 9959 9956 9960 9966 9974
2657.9097 9979 9979 9976 9973 9971 9971 9973 9975 9974 9971 9967 9964 9962
2664.1770 9962 9964 9965 9965 9964 9963 9963 9963 9965 9967 9968 9970 9971
2670.4446 9972 9973 9973 9973 9971 9968 9964 9961 9960 9962 9964 9966 9966
2676.7122 9964 9960 9955 9951 9948 9948 9950 9953 9957 9960 9962 9961 9960
2682.9797 9959 9959 9960 9962 9964 9964 9962 9959 9956 9953 9950 9947 9944
2689.2471 9939 9935 9931 9930 9932 9938 9945 9952 9957 9959 9960 9961 9964
2695.5146 9969 9974 9977 9977 9974 9970 9967 9966 9969 9975 9981 9985 9987
2701.7822 9987 9983 9978 9973 9968 9965 9962 9960 9959 9958 9957 9955 9952
2708.0498 9950 9949 9951 9957 9965 9975 9981 9983 9980 9975 9970 9966 9962
2714.3171 9960 9958 9957 9958 9961 9965 9968 9968 9966 9963 9962 9964 9969
2720.5847 9974 9976 9976 9974 9971 9969 9970 9971 9973 9973 9973 9970 9966
2726.8523 9961 9955 9951 9949 9950 9952 9954 9954 9952 9949 9948 9950 9954
2733.1199 9961 9968 9973 9976 9975 9973 9969 9966 9967 9971 9978 9984 9988
2739.3872 9987 9983 9980 9979 9980 9982 9983 9982 9981 9982 9984 9989 9992
2745.6548 9991 9985 9975 9965 9958 9958 9963 9971 9978 9980 9977 9970 9964
2751.9224 9960 9960 9963 9966 9965 9961 9954 9948 9944 9943 9943 9944 9946
2758.1899 9949 9952 9955 9958 9959 9959 9957 9956 9955 9956 9956 9954 9949
2764.4573 9943 9938 9936 9937 9941 9943 9945 9944 9945 9949 9957 9967 9975
2770.7249 9979 9976 9969 9958 9948 9940 9937 9940 9947 9955 9960 9958 9950
2776.9924 9940 9934 9934 9941 9950 9957 9956 9948 9937 9928 9924 9926 9935
2783.2600 9948 9959 9966 9965 9957 9945 9934 9930 9935 9945 9956 9962 9960
2789.5273 9953 9945 9939 9938 9940 9942 9941 9939 9935 9931 9930 9931 9934
2795.7949 9939 9945 9950 9952 9951 9947 9942 9938 9936 9936 9936 9934 9928
2802.0625 9918 9906 9896 9889 9889 9893 9902 9913 9926 9938 9948 9954 9955
2808.3301 9949 9940 9930 9921 9914 9910 9906 9903 9901 9900 9900 9900 9901
2814.5974 9901 9905 9912 9923 9934 9939 9935 9922 9906 9892 9886 9889 9897
2820.8650 9906 9912 9913 9911 9907 9904 9902 9902 9901 9898 9893 9887 9880
2827.1326 9876 9878 9885 9896 9906 9912 9911 9903 9891 9880 9872 9868 9866
2833.4001 9865 9864 9863 9863 9864 9865 9862 9856 9847 9837 9829 9825 9824
2839.6675 9825 9826 9826 9825 9826 9829 9833 9836 9835 9831 9824 9818 9814
2845.9351 9812 9814 9816 9816 9814 9811 9809 9811 9819 9829 9840 9847 9849
2852.2026 9844 9836 9828 9823 9823 9827 9832 9839 9844 9849 9855 9859 9862
2858.4702 9863 9860 9857 9855 9856 9861 9868 9875 9879 9880 9879 9875 9870
2864.7375 9866 9865 9866 9870 9873 9874 9872 9869 9868 9871 9878 9885 9888
2871.0051 9886 9878 9868 9859 9853 9850 9851 9853 9858 9864 9870 9873 9873
2877.2727 9871 9867 9862 9859 9858 9859 9862 9867 9874 9879 9882 9880 9874
2883.5403 9866 9860 9857 9857 9857 9855 9850 9844 9837 9834 9835 9839 9843
2889.8076 9846 9847 9845 9841 9837 9834 9834 9837 9841 9845 9845 9840 9833
2896.0752 9825 9820 9818 9817 9817 9816 9814 9814 9816 9819 9821 9820 9814
2902.3428 9804 9792 9780 9770 9761 9755 9752 9752 9754 9758 9762 9765 9767
2908.6104 9767 9765 9761 9755 9747 9739 9734 9730 9728 9726 9724 9724 9727
2914.8777 9731 9733 9729 9719 9706 9695 9692 9699 9712 9725 9732 9731 9724
2921.1453 9712 9700 9688 9679 9674 9674 9680 9690 9700 9707 9711 9713 9713
2927.4128 9714 9714 9712 9710 9708 9707 9709 9712 9716 9719 9721 9721 9721
2933.6804 9719 9717 9714 9712 9712 9714 9718 9723 9727 9729 9726 9721 9713
2939.9478 9705 9698 9691 9685 9678 9670 9661 9652 9646 9643 9641 9640 9636
2946.2153 9631 9625 9622 9622 9626 9632 9636 9637 9635 9631 9627 9625 9623
2952.4829 9623 9624 9628 9636 9646 9657 9665 9668 9667 9664 9664 9668 9674
2958.7505 9680 9683 9684 9684 9687 9692 9699 9704 9708 9709 9711 9714 9720
2965.0178 9729 9739 9747 9750 9744 9729 9709 9686 9667 9653 9646 9644 9644
2971.2854 9646 9650 9657 9668 9682 9699 9715 9729 9739 9746 9751 9755 9759
2977.5530 9760 9761 9763 9769 9778 9790 9800 9802 9795 9780 9765 9757 9761
2983.8206 9774 9792 9809 9819 9821 9820 9818 9819 9822 9823 9820 9812 9801
2990.0879 9792 9789 9794 9805 9814 9816 9808 9790 9768 9750 9741 9743 9754
2996.3555 9768 9778 9783 9781 9776 9772 9769 9768 9766 9764 9762 9759 9758
3002.6230 9757 9756 9754 9752 9751 9752 9754 9753 9749 9744 9743 9751 9770
3008.8906 9797 9825 9847 9857 9857 9848 9838 9829 9824 9822 9824 9827 9831
3015.1580 9836 9841 9845 9847 9846 9844 9839 9834 9829 9824 9823 9826 9832
3021.4255 9840 9847 9851 9849 9842 9831 9821 9815 9814 9820 9830 9839 9845
3027.6931 9845 9839 9830 9822 9820 9823 9830 9842 9855 9868 9879 9886 9887
3033.9607 9882 9874 9866 9862 9864 9869 9877 9884 9889 9893 9896 9898 9900
3040.2280 9902 9902 9904 9907 9912 9917 9920 9918 9914 9909 9906 9905 9906
3046.4956 9907 9907 9908 9911 9918 9924 9927 9922 9911 9897 9888 9886 9892
3052.7632 9902 9911 9916 9916 9915 9915 9918 9923 9927 9929 9925 9917 9907
3059.0308 9897 9892 9892 9897 9903 9906 9904 9895 9881 9867 9855 9849 9849
3065.2981 9856 9868 9881 9893 9902 9906 9904 9899 9895 9894 9898 9905 9912
3071.5657 9915 9912 9904 9893 9884 9880 9880 9884 9891 9897 9901 9904 9903
3077.8333 9902 9899 9896 9895 9895 9898 9903 9910 9916 9917 9913 9905 9896
3084.1008 9891 9894 9905 9919 9931 9936 9935 9929 9922 9915 9908 9901 9893
3090.3682 9886 9880 9877 9876 9878 9880 9882 9880 9875 9868 9862 9858 9860
3096.6357 9867 9876 9886 9894 9897 9897 9894 9890 9886 9885 9887 9894 9906
3102.9033 9918 9926 9926 9915 9894 9871 9852 9845 9850 9865 9882 9896 9899
3109.1709 9893 9879 9863 9850 9843 9843 9850 9860 9870 9876 9877 9874 9869
3115.4382 9866 9866 9868 9868 9866 9858 9847 9834 9825 9819 9819 9823 9831
3121.7058 9841 9852 9862 9868 9869 9863 9852 9840 9832 9833 9841 9852 9861
3127.9734 9863 9857 9843 9827 9810 9794 9780 9766 9753 9745 9745 9753 9765
3134.2410 9778 9786 9788 9786 9784 9785 9789 9796 9803 9811 9818 9825 9833
3140.5083 9839 9840 9837 9830 9822 9818 9821 9830 9843 9855 9863 9864 9862
3146.7759 9860 9865 9879 9900 9924 9941 9948 9944 9931 9916 9905 9899 9899
3153.0435 9902 9905 9905 9903 9900 9900 9904 9914 9925 9935 9936 9929 9916
3159.3110 9902 9894 9895 9904 9917 9930 9939 9944 9946 9947 9948 9950 9951
3165.5784 9948 9940 9926 9910 9894 9884 9879 9880 9884 9894 9897 9900 9905
3171.8459 9912 9918 9921 9919 9913 9905 9901 9901 9906 9914 9920 9922 9921
3178.1135 9917 9912 9908 9904 9900 9898 9899 9903 9911 9921 9929 9932 9928
3184.3811 9916 9901 9889 9884 9888 9900 9915 9925 9929 9925 9917 9910 9906
3190.6484 9905 9903 9898 9889 9878 9870 9871 9881 9898 9915 9927 9930 9924
3196.9160 9912 9901 9893 9891 9893 9894 9892 9886 9877 9868 9863 9863 9866
3203.1836 9870 9875 9880 9885 9892 9900 9904 9902 9893 9880 9869 9864 9867
3209.4512 9879 9894 9907 9914 9913 9904 9891 9877 9864 9855 9850 9849 9854
3215.7185 9863 9874 9884 9889 9888 9882 9873 9866 9863 9863 9864 9867 9872
3221.9861 9882 9896 9912 9925 9929 9922 9908 9893 9884 9882 9884 9884 9878
3228.2537 9866 9853 9845 9846 9855 9867 9877 9883 9887 9890 9894 9898 9900
3234.5212 9900 9897 9897 9901 9911 9921 9925 9919 9905 9888 9873 9865 9866
3240.7886 9874 9886 9901 9915 9926 9929 9921 9905 9885 9870 9864 9868 9879
3247.0562 9892 9904 9913 9918 9918 9912 9901 9887 9875 9869 9872 9883 9897
3253.3237 9909 9914 9912 9908 9905 9904 9904 9903 9897 9887 9876 9868 9869
3259.5913 9877 9892 9908 9921 9929 9931 9930 9926 9921 9914 9905 9895 9886
3265.8586 9880 9879 9882 9888 9892 9894 9895 9896 9899 9903 9907 9907 9904
3272.1262 9899 9895 9895 9897 9901 9904 9904 9899 9891 9880 9871 9865 9866
3278.3938 9874 9886 9898 9907 9911 9909 9902 9893 9883 9875 9872 9875 9884
3284.6614 9894 9903 9908 9910 9911 9912 9911 9907 9899 9889 9879 9875 9876
3290.9287 9881 9887 9892 9893 9893 9891 9890 9889 9890 9894 9902 9910 9916
3297.1963 9917 9913 9906 9898 9892 9889 9886 9885 9883 9883 9884 9886 9888
3303.4639 9889 9888 9884 9879 9877 9879 9888 9901 9915 9923 9925 9919 9910
3309.7314 9902 9896 9891 9884 9876 9868 9865 9871 9885 9902 9917 9923 9921
3315.9988 9913 9906 9901 9900 9900 9900 9898 9896 9893 9889 9882 9869 9853
3322.2664 9837 9826 9824 9829 9838 9847 9852 9851 9846 9837 9827 9820 9817
3328.5339 9823 9839 9861 9885 9901 9904 9891 9867 9841 9823 9819 9830 9848
3334.8015 9866 9877 9879 9875 9869 9867 9866 9866 9865 9864 9864 9867 9871
3341.0688 9871 9865 9854 9843 9837 9841 9855 9872 9888 9897 9899 9894 9885
3347.3364 9874 9864 9856 9852 9855 9862 9869 9871 9863 9847 9826 9806 9794
3353.6040 9791 9796 9804 9812 9817 9818 9817 9816 9814 9813 9813 9815 9819
3359.8716 9826 9837 9850 9861 9869 9871 9869 9864 9857 9848 9836 9820 9802
3366.1389 9788 9782 9787 9802 9820 9838 9849 9852 9846 9834 9819 9804 9792
3372.4065 9784 9780 9777 9775 9774 9776 9781 9787 9794 9799 9800 9799 9794
3378.6741 9788 9784 9782 9784 9790 9798 9803 9802 9794 9780 9766 9756 9756
3384.9417 9764 9779 9795 9806 9809 9806 9800 9795 9792 9792 9791 9786 9776
3391.2090 9767 9764 9768 9780 9792 9799 9797 9790 9783 9780 9783 9788 9793
3397.4766 9794 9791 9788 9787 9786 9784 9779 9771 9762 9753 9748 9745 9743
3403.7441 9738 9728 9716 9705 9700 9704 9715 9726 9732 9729 9718 9708 9706
3410.0117 9716 9735 9753 9761 9757 9745 9733 9729 9736 9749 9760 9765 9759
3416.2791 9747 9734 9724 9721 9726 9736 9749 9762 9770 9772 9769 9764 9762
3422.5466 9766 9777 9792 9806 9813 9811 9802 9789 9780 9776 9778 9785 9794
3428.8142 9803 9811 9818 9823 9825 9822 9818 9816 9819 9830 9846 9862 9871
3435.0818 9868 9852 9831 9811 9802 9807 9821 9837 9847 9847 9839 9830 9827
3441.3491 9833 9847 9863 9873 9874 9865 9852 9836 9822 9809 9798 9790 9787
3447.6167 9791 9800 9811 9820 9822 9820 9816 9816 9821 9829 9835 9831 9817
3453.8843 9796 9776 9761 9756 9760 9772 9789 9809 9828 9845 9855 9857 9850
3460.1519 9835 9815 9796 9782 9777 9783 9797 9815 9828 9830 9821 9803 9784
3466.4192 9771 9768 9777 9795 9813 9824 9823 9808 9782 9755 9734 9727 9734
3472.6868 9750 9769 9785 9793 9796 9796 9797 9802 9811 9819 9824 9822 9813
3478.9543 9802 9792 9789 9792 9799 9801 9794 9775 9750 9726 9712 9713 9726
3485.2219 9745 9762 9769 9764 9754 9745 9743 9751 9764 9780 9796 9812 9828
3491.4893 9840 9845 9840 9823 9803 9787 9784 9795 9817 9844 9867 9884 9891
3497.7568 9889 9880 9864 9844 9824 9805 9790 9780 9779 9790 9815 9852 9891
3504.0244 9922 9935 9927 9905 9877 9853 9837 9827 9821 9817 9813 9811 9811
3510.2920 9812 9814 9815 9817 9821 9826 9831 9833 9828 9817 9803 9791 9783
3516.5593 9781 9784 9789 9793 9793 9788 9777 9764 9751 9744 9746 9759 9778
3522.8269 9798 9812 9816 9812 9804 9800 9801 9809 9819 9830 9841 9851 9859
3529.0945 9864 9861 9848 9825 9796 9766 9745 9736 9740 9754 9771 9788 9801
3535.3621 9813 9825 9841 9859 9874 9881 9878 9869 9859 9853 9853 9855 9854
3541.6294 9846 9831 9814 9798 9786 9777 9766 9752 9738 9732 9741 9767 9805
3547.8970 9843 9870 9883 9883 9876 9867 9860 9855 9853 9855 9864 9880 9896
3554.1646 9907 9905 9890 9869 9850 9841 9844 9856 9869 9877 9878 9870 9857
3560.4321 9844 9834 9830 9833 9841 9851 9857 9856 9848 9836 9821 9808 9799
3566.6995 9799 9811 9833 9859 9882 9894 9893 9880 9863 9851 9848 9859 9877
3572.9670 9897 9910 9911 9901 9886 9873 9867 9870 9877 9881 9878 9867 9858
3579.2346 9859 9874 9899 9923 9933 9925 9902 9877 9863 9869 9890 9917 9940
3585.5022 9951 9949 9937 9921 9903 9885 9869 9860 9860 9869 9884 9899 9911
3591.7695 9920 9929 9941 9959 9978 9994 10001 9998 9986 9968 9947 9929 9916
3598.0371 9911 9915 9926 9941 9957 9969 9975 9974 9967 9953 9935 9914 9896
3604.3047 9882 9875 9874 9879 9890 9909 9939 9982 10033 10080 10108 10106
3610.0901 10078 10037 9994 9961 9942 9939 9946 9954 9954 9943 9922 9896 9871
3616.3577 9854 9850 9859 9879 9903 9925 9941 9949 9949 9944 9941 9944 9960
3622.6252 9988 10021 10050 10062 10054 10026 9988 9949 9917 9894 9877 9871
3628.4106 9883 9917 9958 9981 9983 9973 9964 9964 9978 10000 10024 10042 10047
3634.6780 10042 10029 10013 9995 9975 9954 9936 9927 9930 9946 9966 9984 9992
3640.9456 9987 9973 9956 9939 9926 9917 9911 9910 9915 9926 9942 9961 9981
3647.2131 10002 10022 10038 10047 10044 10028 10005 9983 9968 9962 9963 9971
3652.9985 9983 9996 10005 10004 9989 9960 9928 9907 9901 9909 9925 9944 9963
3659.2661 9979 9989 9994 9995 9996 10001 10011 10023 10032 10033 10025 10010
3665.0515 9992 9974 9958 9941 9923 9907 9896 9899 9919 9955 10001 10044 10072
3671.3188 10083 10082 10077 10072 10065 10053 10031 10004 9989 9987 9982 9965
3677.1042 9941 9923 9918 9931 9961 9999 10033 10053 10057 10049 10033 10018
3682.8896 10005 9996 9988 9983 9980 9981 9989 10003 10018 10031 10039 10047
3688.6750 10059 10074 10086 10090 10080 10055 10020 9984 9951 9927 9915 9917
3694.4604 9937 9970 10007 10036 10049 10044 10027 10008 9994 9987 9984 9984
3700.2458 9990 10003 10025 10049 10064 10063 10048 10026 10003 9982 9963 9947
3706.0313 9936 9933 9939 9954 9973 9989 9996 9993 9984 9973 9962 9953 9948
3712.2988 9949 9955 9962 9974 9991 10014 10041 10066 10082 10084 10067 10034
3718.0842 9989 9945 9913 9899 9903 9920 9947 9975 10001 10018 10024 10022
3723.8696 10017 10014 10013 10013 10009 10001 9989 9976 9965 9960 9965 9981
3729.6550 10007 10041 10071 10083 10065 10018 9955 9896 9855 9845 9869 9925
3735.4404 9991 10037 10043 10017 9977 9945 9932 9938 9956 9975 9985 9984 9976
3741.7080 9970 9973 9987 10012 10044 10081 10104 10091 10046 9991 9945 9918
3747.4934 9912 9926 9958 9997 10027 10040 10035 10018 9994 9967 9944 9930 9925
3753.7610 9928 9940 9957 9974 9989 9998 10001 10000 9992 9976 9951 9924 9908
3760.0283 9910 9926 9946 9963 9972 9971 9965 9959 9957 9963 9979 10000 10015
3766.2959 10018 10009 9996 9989 9998 10021 10050 10067 10061 10033 9999 9975
3772.0813 9966 9972 9983 9989 9986 9974 9959 9947 9940 9938 9939 9944 9950
3778.3489 9957 9965 9973 9978 9977 9973 9966 9957 9950 9944 9940 9937 9935
3784.6165 9932 9933 9941 9959 9985 10013 10034 10037 10020 9987 9950 9921 9909
3790.8838 9914 9933 9956 9975 9986 9988 9981 9971 9960 9953 9952 9957 9964
3797.1514 9967 9961 9951 9940 9936 9942 9960 9992 10031 10062 10069 10049
3802.9368 10012 9971 9935 9909 9893 9882 9876 9879 9898 9934 9975 10008 10024
3809.2043 10021 10001 9969 9938 9917 9911 9919 9938 9964 9995 10027 10054
3814.9897 10065 10057 10036 10018 10011 10011 10012 10007 9992 9969 9945 9935
3820.7751 9952 9985 10009 10010 9995 9977 9964 9963 9972 9988 10005 10018
3826.5605 10022 10015 9997 9969 9936 9903 9877 9865 9873 9901 9938 9967 9973
3832.8281 9960 9937 9919 9915 9930 9956 9982 10001 10008 10004 9991 9979 9971
3839.0955 9971 9978 9989 9995 9989 9972 9950 9930 9923 9930 9948 9968 9981
3845.3630 9983 9975 9959 9939 9920 9911 9916 9935 9965 9997 10024 10044 10057
3851.6306 10064 10062 10044 10011 9980 9967 9966 9964 9954 9932 9906 9884 9877
3857.8982 9887 9909 9928 9937 9935 9930 9932 9951 9981 10011 10026 10021 9997
3864.1655 9963 9932 9914 9910 9911 9910 9904 9890 9872 9857 9860 9898 9962
3870.4331 10020 10047 10041 10010 9964 9915 9876 9861 9873 9902 9931 9949 9952
3876.7007 9942 9922 9900 9881 9867 9862 9867 9881 9898 9912 9920 9922 9922
3882.9683 9921 9924 9933 9949 9974 10001 10021 10026 10017 9998 9975 9951 9924
3889.2356 9898 9875 9864 9871 9893 9917 9928 9921 9906 9893 9893 9910 9939
3895.5032 9969 9991 10003 10003 9994 9981 9966 9956 9956 9965 9979 9990 9989
3901.7708 9968 9930 9885 9850 9837 9851 9886 9928 9966 9992 10010 10021 10028
3908.0383 10028 10019 10002 9980 9958 9942 9937 9944 9961 9985 10009 10026
3913.8237 10030 10018 9994 9963 9933 9911 9900 9898 9903 9915 9935 9963 9992
3920.0911 10013 10016 10002 9979 9957 9942 9937 9938 9944 9954 9967 9983 9998
3926.3586 10006 10003 9989 9968 9945 9925 9912 9907 9910 9921 9937 9953 9965
3932.6262 9972 9974 9977 9985 9997 10009 10016 10015 10008 9997 9987 9979 9973
3938.8938 9970 9971 9977 9990 10004 10014 10015 10005 9989 9977 9972 9976 9984
3945.1611 9991 9991 9984 9969 9951 9936 9931 9940 9960 9983 9999 10002 9993
3951.4287 9978 9965 9959 9956 9951 9940 9925 9911 9905 9911 9927 9947 9965
3957.6963 9978 9983 9980 9971 9958 9943 9929 9918 9911 9909 9908 9908 9908
3963.9639 9911 9920 9939 9970 10006 10040 10061 10063 10049 10026 10007 9995
3969.7493 9989 9985 9978 9969 9962 9962 9969 9981 9996 10013 10035 10058 10079
3976.0166 10089 10081 10056 10023 9995 9980 9981 9991 10003 10009 10005 9994
3981.8020 9977 9959 9942 9928 9923 9928 9947 9977 10012 10042 10062 10068
3987.5874 10062 10048 10029 10007 9983 9961 9946 9941 9949 9967 9984 9990 9979
3993.8550 9953 9924 9902 9895 9905 9924 9945 9964 9980 9996 10012 10027 10039
4000.1226 10039
##END= 
