##TITLE=X8743
##JCAMP-DX=4.24
##DATA TYPE=INFRARED SPECTRUM
##DATE=2/11/2018
##SAMPLING PROCEDURE=ATR platinum Diamond 1 Refl
##ORIGIN=ComPlat
##XUNITS=1/CM
##YUNITS=TRANSMITTANCE
##RESOLUTION=4
##FIRSTX=3997.453
##LASTX=373.96442
##DELTAX=-1.4165319
##MAXY=1.0052898
##MINY=0.45140564
##XFACTOR=1
##YFACTOR=9.3624908e-010
##NPOINTS=2559
##FIRSTY=0.94984639
##XYDATA=(X++(Y..Y))
3997+1014523173+1014255533+1013671869+1013199169+1013206299+1013682373
3989+1014335876+1014844991+1015031652+1014920496+1014658458+1014349182
3980+1013989230+1013570453+1013208973+1013096480+1013289316+1013646085
3972+1014025200+1014369745+1014595686+1014670363+1014752807+1015014081
3963+1015451320+1015995704+1016501254+1016603115+1016037149+1015134213
3955+1014539662+1014436273+1014482938+1014469887+1014559207+1014812205
3946+1014966206+1014887073+1014770187+1014714736+1014535842+1014199191
3938+1013978534+1014040351+1014258080+1014459892+1014598933+1014678703
3929+1014750197+1014928326+1015260012+1015605894+1015741242+1015610032
3921+1015357926+1015081500+1014740838+1014370000+1014184676+1014328937
3912+1014725750+1015186608+1015514346+1015584440+1015449665+1015359963
3904+1015565341+1015887349+1015705400+1014759619+1013628068+1013035682
3895+1013123537+1013687403+1014545201+1015421971+1015945856+1016062296
3887+1015981634+1015891360+1015964318+1016189877+1016155881+1015572598
3878+1014972127+1014935966+1015121544+1014807939+1014012467+1013575292
3870+1013931424+1014535142+1014773879+1014556788+1013941228+1013268307
3861+1013262514+1014178246+1015491491+1016576758+1017168508+1017069639
3853+1016033775+1014738546+1014155518+1014400431+1015212073+1016180964
3844+1016732733+1016464265+1015626967+1014884717+1014620897+1014774452
3836+1015117597+1015430948+1015565977+1015592525+1015776957+1016181091
3827+1016454334+1016276077+1015855199+1015596918+1015450683+1015131794
3819+1014865300+1014969134+1015208826+1015240785+1015201951+1015344238
3810+1015631996+1015917271+1016172879+1016509275+1016977964+1017438950
3802+1017633377+1017466898+1017205306+1016982357+1016634692+1016099157
3793+1015594371+1015372950+1015539812+1016055420+1016748585+1017321364
3785+1017411001+1016913028+1016225528+1015897917+1016114882+1016630554
3776+1017179076+1017675331+1018021214+1018091816+1017933868+1017811316
3768+1017908593+1018093726+1018158471+1018134725+1018229201+1018467493
3759+1018526127+1018045215+1017149027+1016286199+1015805287+1016002261
3751+1016989042+1018104867+1018616592+1018686049+1018530519+1017946791
3742+1017077788+1016527419+1016553139+1017055124+1017810998+1018429104
3734+1018446102+1017902609+1017276545+1016825554+1016528438+1016341905
3725+1016346298+1016724584+1017569969+1018679555+1019601399+1019984970
3717+1019853951+1019525321+1019333122+1019316442+1019087445+1018489711
3708+1018151341+1018517596+1019275316+1019794426+1019692564+1019186442
3700+1018801597+1018636200+1018514858+1018521670+1018786828+1019048038
3691+1018889580+1018338447+1017886566+1017774137+1017850660+1018062786
3683+1018473286+1019107181+1019842682+1020313345+1019937923+1018429295
3674+1016832876+1016514814+1017283548+1018275166+1019048674+1019791815
3666+1020566151+1021004664+1020839458+1020315700+1019999167+1020200533
3657+1020678581+1020816730+1020352116+1019754318+1019573960+1019927163
3649+1020329961+1020097845+1019353430+1018679428+1018454760+1018805481
3640+1019554161+1020212184+1020290490+1019687344+1018779634+1018166175
3632+1018213668+1018801088+1019366927+1019365908+1019031422+1018853101
3623+1018992269+1019430527+1019978540+1020257958+1020144000+1020046214
3615+1020317992+1020952969+1021766267+1022417224+1022465735+1021823182
3606+1020994223+1020371978+1019839690+1019372593+1019262710+1019583318
3598+1020042267+1020558703+1021276569+1022058163+1022629222+1022995349
3589+1023195698+1023066143+1022642082+1022311543+1022221141+1022190710
3581+1021986605+1021426305+1020566597+1019832178+1019698549+1020232874
3572+1021020580+1021502065+1021388235+1020901084+1020657763+1020928331
3564+1021268229+1021298533+1021113846+1021057632+1021351437+1021813059
3555+1022019201+1021760792+1021232514+1020780569+1020529418+1020371278
3547+1020217977+1020122610+1020136870+1020140945+1020010499+1019882854
3538+1020041694+1020476577+1020763507+1020596901+1020240005+1020171185
3530+1020513120+1020984164+1021295350+1021379258+1021247157+1020922474
3521+1020573536+1020433668+1020538585+1020711686+1020761152+1020567998
3513+1020117771+1019620116+1019446251+1019765459+1020389932+1021041334
3504+1021469151+1021429425+1020975379+1020571563+1020563668+1020835956
3496+1021103087+1021254988+1021315786+1021244674+1020935653+1020397507
3488+1019909338+1019886419+1020445064+1021196035+1021633083+1021680194
3479+1021669053+1021825219+1022064657+1022145191+1021819744+1021075521
3471+1020335245+1020078682+1020238795+1020379618+1020387449+1020473967
3462+1020664447+1020852572+1021165986+1021727623+1022241449+1022283849
3454+1021877487+1021399057+1021056358+1020804379+1020618674+1020484217
3445+1020272091+1019982168+1019893167+1020189456+1020689212+1021117666
3437+1021371428+1021469851+1021534151+1021751815+1022106356+1022281112
3428+1022038109+1021568338+1021319606+1021532241+1022001248+1022303012
3420+1022234765+1021972409+1021804529+1021855523+1022058736+1022301420
3411+1022584785+1023026863+1023669225+1024297263+1024544276+1024221121
3403+1023530057+1022867832+1022445999+1022232346+1022181033+1022264814
3394+1022314089+1022106738+1021656321+1021232260+1021077813+1021212206
3386+1021502383+1021804401+1022020029+1022090377+1022002394+1021790459
3377+1021514543+1021307637+1021396129+1021910528+1022632405+1023093645
3369+1022993821+1022439888+1021802364+1021450115+1021564200+1022017164
3360+1022481778+1022822822+1023248029+1023858941+1024290769+1024116968
3352+1023418264+1022667420+1022211400+1022056635+1022047276+1022102727
3343+1022208981+1022220631+1021915876+1021372765+1021033058+1021180502
3335+1021546247+1021631492+1021308592+1020901466+1020732185+1020814311
3326+1021035095+1021373210+1021776644+1022074970+1022185808+1022240813
3318+1022409966+1022668566+1022700461+1022097889+1020829208+1019396912
3309+1018345005+1017796801+1017594606+1017601800+1017676222+1017518847
3301+1016782836+1015454949+1014065689+1013243351+1013021421+1012903071
3292+1012614422+1012351621+1012227095+1011981673+1011459762+1010940079
3284+1010698414+1010548487+1010109847+1009292347+1008261703+1007145114
3275+1005983705+1004835157+1003801966+1002975172+1002298304+1001542813
3267+1000587037+999643038+998997366+998598579+998054131+996966318+995236078
3257+993111127+990961028+989004721+987176949+985116934+982399788+979038432
3247+975629139+972737746+970274488+967707204+964666139+961157085+957415660
3237+953760117+950483880+947823266+945976077+945037681+944899150+945330278
3227+946164966+947308103+948623513+949951337+951262290+952692867+954381216
3217+956323454+958416701+960557123+962646168+964599802+966405928+968097524
3207+969641803+970925890+971904776+972747168+973755976+975077370+976540160
3197+977870785+978976997+979910046+980720988+981522699+982493882+983671906
3187+984916013+986130453+987320574+988453716+989472391+990385322+991248913
3177+992175214+993301225+994542276+995564008+996229479+996808114+997506564
3167+998125370+998411855+998475709+998648810+999076117+999571544+999870252
3157+999962373+1000083142+1000425714+1001027905+1001854190+1002786283
3149+1003662289+1004511621+1005536599+1006642365+1007248057+1006904403
3140+1005987398+1005460839+1005909856+1007006837+1007964523+1008306395
3132+1008125591+1007830067+1007795816+1008133231+1008636616+1008986446
3123+1009000643+1008676724+1008129347+1007537025+1007043889+1006736905
3115+1006741871+1007118630+1007591902+1007677975+1007174972+1006302022
3106+1005362798+1004469157+1003534263+1002418246+1001204825+1000320861
3098+1000151198+1000495616+1000590411+999766481+998057951+996155439+994868550
3088+994664701+995526064+997011964+998498437+999559130+1000151899+1000411199
3078+1000407634+1000167878+999717970+999045623+998229078+997599448+997554693
3068+998210616+999349805+1000588310+1001535683+1001993358+1002081595+1002043906
3058+1002006218+1002033465+1002192369+1002414172+1002561870+1002718355
3050+1003083654+1003565649+1003816482+1003703034+1003460286+1003414003
3041+1003717358+1004258177+1004689368+1004677209+1004226091+1003685526
3033+1003387773+1003348875+1003356642+1003212636+1002821362+1002243236
3024+1001773910+1001704581+1001892961+1001899518+1001621373+1001415359
3016+1001548606+1001895953+1002213123+1002426650+1002646351+1002986695
3007+1003340472+1003381725+1002910108+1002077584+1001177322+1000372937
2999+999655771+998839290+997601040+995722975+993270858+990420018+987169055
2989+983263634+978356472+972343670+965668326+959230126+953881078+949900852
2979+946750222+943235312+938082091+930562508+920702983+909034594+896197858
2969+882649940+868633524+854382509+840283967+826804869+814245195+802468197
2959+790952154+779416058+768528499+759847507+754942637+754439952+757607580
2949+762686124+767817126+771938174+774922070+776994881+778179718+778234404
2939+776813696+773524662+768087694+760735546+752312581+743754842+735593661
2929+728050395+721377915+716025620+712666875+712108803+714996758+721466025
2919+730978395+742420779+754455295+765982988+776429997+785693062+793878498
2910+801078237+807335951+812778648+817648504+822121546+826188799+829785390
2900+832905462+835585111+837975347+840414222+843153205+846033521+848734943
2890+851287457+853995563+856955649+860008556+863033897+865902180+868215384
2880+869377938+868848833+866200315+861097134+853465312+843889789+833962972
2870+825930072+821368538+819978324+819817447+818741729+815679336+810930059
2860+805637289+801004070+797861079+796784279+798307040+802773271+810035527
2850+819465898+830228614+841475106+852439443+862583288+871657018+879544765
2840+886170326+891646382+896348358+900689999+904876366+908879256+912565039
2830+915870498+918927861+921984842+925160619+928343781+931363264+934210539
2820+937044826+939986959+942934121+945631086+947947982+949998575+951922033
2810+953680220+955199225+956573396+957933370+959190209+960078885+960472323
2800+960585708+960840488+961497938+962452887+963447879+964386594+965317477
2791+966270325+967267291+968341672+969417835+970340316+971107330+971898601
2781+972803064+973668184+974315066+974774715+975195847+975605838+975922244
2771+976139909+976323514+976448230+976444410+976396917+976551492+977048447
2761+977714046+978217177+978447319+978610679+978904740+979250622+979408507
2751+979245847+978884240+978638245+978753667+979190015+979736818+980241540
2741+980597736+980694631+980591179+980580738+980908031+981527792+982219493
2731+982823721+983300559+983665413+983957181+984259136+984705734+985418571
2721+986400194+987498194+988489303+989179413+989469781+989446926+989383963
2711+989520966+989858763+990261433+990642076+990915573+990949887+990752149
2701+990562687+990618838+990930852+991355931+991775663+992181198+992676625
2691+993386980+994275909+995113908+995714062+996107246+996384945+996529079
2681+996533535+996527551+996621772+996780930+996937160+997062067+997106377
2672+997052390+996996494+997017121+997034183+996952184+996857008+996900426
2662+997042522+997103257+997103703+997325060+997888416+998481948+998729407
2652+998656958+998575088+998634804+998721386+998671728+998443305+998115375
2642+997822397+997665276+997646623+997716143+997877402+998184132+998612394
2632+999009271+999234639+999337009+999552382+1000068118+1000768159+1001295927
2622+1001452093+1001453430+1001739023+1002589309+1003884347+1005118076
2614+1005761139+1005765914+1005621844+1005868793+1006665793+1007748769
2605+1008667174+1009209840+1009647397+1010326366+1011097773+1011474723
2597+1011232866+1010555681+1009772814+1009196152+1008997650+1009085378
2588+1009223782+1009288528+1009342259+1009548019+1009998946+1010542057
2580+1010886475+1010969619+1011051617+1011399919+1012016434+1012662488
2571+1013076108+1013204390+1013203053+1013237303+1013444846+1014006674
2563+1014930491+1015812609+1016165112+1015934651+1015443362+1014919095
2554+1014383942+1013928368+1013753103+1013841977+1013879220+1013651560
2546+1013290208+1012984688+1012727234+1012420504+1012019617+1011554048
2537+1011129668+1010840765+1010724516+1010912067+1011569008+1012512498
2529+1013247426+1013493484+1013338146+1012966225+1012665608+1012869203
2520+1013722545+1014772861+1015379953+1015284331+1014733007+1014269221
2512+1014314676+1014741411+1015042856+1015051642+1015137778+1015551844
2503+1016010347+1016123858+1015891424+1015652941+1015749773+1016226611
2495+1016757817+1016981848+1016929007+1016944477+1017237264+1017655214
2486+1017870332+1017765860+1017674758+1018070871+1018960756+1019806522
2478+1020097144+1019774754+1019122906+1018449858+1017887903+1017433347
2469+1017175447+1017338234+1017944627+1018560250+1018667523+1018346851
2461+1018295793+1018980937+1020062511+1020939282+1021510150+1022031615
2452+1022573580+1022993121+1023142984+1022881392+1022207262+1021480674
2444+1021154463+1021284782+1021631301+1022140543+1022924174+1023813868
2435+1024360353+1024324192+1023866899+1023264518+1022723444+1022457331
2427+1022645838+1023204228+1023747912+1023937438+1023879186+1024009759
2418+1024494173+1024981451+1025125012+1025044733+1025051099+1025182054
2410+1025223945+1025055619+1024827450+1024818792+1025168494+1025755151
2401+1026290240+1026495554+1026297307+1025908006+1025609362+1025442118
2393+1025228083+1024867112+1024471572+1024216792+1024148291+1024168408
2384+1024188653+1024272179+1024631558+1025486619+1026814889+1028180720
2376+1029048068+1029410057+1029778540+1030369462+1030783910+1030702739
2367+1030309873+1029809607+1029107975+1028207522+1027457760+1027196168
2359+1027401164+1027782506+1028051292+1028069437+1027877683+1027649196
2350+1027560895+1027680581+1027963501+1028314094+1028681495+1029064238
2342+1029338690+1029250581+1028726568+1028071983+1027728584+1027754240
2333+1027615008+1026783503+1025579249+1024938288+1025296011+1026323472
2325+1027659636+1029299474+1031214337+1032906696+1033638760+1033247868
2316+1032424766+1031863065+1031505469+1031051104+1030661612+1030581078
2308+1030683067+1030901368+1031449827+1032300113+1033046947+1033408108
2299+1033391046+1033069674+1032645104+1032519879+1032855257+1033244876
2291+1033200439+1032785609+1032422092+1032258859+1032131151+1032015984
2282+1032158972+1032757406+1033680650+1034484462+1034769546+1034674497
2274+1034802588+1035421521+1036061019+1036228262+1036122836+1036193757
2265+1036392640+1036421735+1036356225+1036461015+1036751064+1037183529
2257+1037849319+1038689228+1039493358+1040261455+1041036046+1041497286
2248+1041256448+1040432009+1039659201+1039635964+1040601863+1042085980
2240+1043368603+1044259188+1045092030+1046025970+1046785791+1047103470
2231+1047044582+1046832201+1046603841+1046511848+1046800433+1047393838
2223+1047696684+1047276889+1046424311+1045656851+1045197966+1045199494
2214+1045804677+1046826472+1047980431+1049286037+1050649576+1051455234
2206+1051275831+1050621373+1050249962+1050093924+1049622306+1049099376
2197+1049588565+1051491459+1053786837+1055004396+1054551496+1052982452
2189+1051317022+1050146000+1049306919+1048566515+1048464145+1049845446
2180+1052397259+1054441677+1054756746+1054071220+1054100124+1055460416
2172+1057371141+1058978892+1059909330+1059926837+1059137604+1058231231
2163+1057680544+1056933519+1055141272+1052813362+1051813404+1052945463
2155+1054806849+1055630142+1055111987+1054021499+1052939797+1052039918
2146+1051409333+1050956497+1050522313+1050348322+1050813445+1051639285
2138+1052095114+1052103708+1052342000+1053085841+1053801798+1053989159
2129+1053534157+1052353905+1050641045+1049285528+1049058823+1049496062
2121+1049486322+1048775394+1048040784+1047647282+1047164396+1046233003
2112+1045286331+1045012069+1045470572+1046206328+1046917765+1047474245
2104+1047604309+1047189607+1046672407+1046702392+1047469279+1048550472
2095+1049341806+1049723085+1050291725+1051637184+1053408422+1054521701
2087+1054351912+1053299686+1052144644+1051338540+1051037285+1051326826
2078+1052135922+1053160773+1054063581+1054699959+1055172021+1055661210
2070+1056143586+1056308283+1055796112+1054599562+1053341067+1052864293
2061+1053190885+1053391042+1052960424+1052553935+1052853534+1053749084
2053+1054972628+1056369782+1057548506+1058476080+1059952366+1062237940
2044+1064272235+1065316949+1066000310+1067020386+1068039443+1068299126
2036+1067611054+1066608994+1066109747+1066224914+1066585566+1067317821
2027+1068833388+1070516644+1070688025+1068513798+1065332928+1063313403
2019+1063087781+1063294368+1062467446+1060902667+1060292710+1061918287
2010+1065423903+1069071361+1071155440+1071206626+1069874536+1068047147
2002+1066389165+1065381376+1065343369+1066357333+1068236099+1070513206
1993+1072438637+1073146317+1072302525+1070722785+1069869316+1070396065
1985+1071357762+1071363365+1070348827+1069419726+1069264133+1069748228
1976+1070797908+1072388725+1073741823+1073715976+1072053474+1069754213
1968+1068311349+1068414866+1069230774+1069363066+1068334523+1066736384
1959+1065252331+1064079463+1063263619+1062967839+1063231469+1063842508
1951+1064491937+1064825851+1064536438+1063676793+1062716624+1062121436
1942+1061975584+1062013846+1061940315+1061724114+1061653002+1061957567
1934+1062335409+1062192548+1061365181+1060153861+1058703612+1056850439
1925+1054657050+1052747407+1051840906+1051981538+1052589013+1053161345
1917+1053698982+1054511834+1055686166+1056870366+1057615034+1057991984
1908+1058650326+1059967136+1061460421+1062329424+1062341775+1061986789
1900+1061815089+1061898933+1061955212+1061698522+1061032477+1060102866
1891+1059208334+1058669489+1058777907+1059715666+1061314887+1062927859
1883+1063836588+1063904453+1063560162+1063239681+1063067727+1062946576
1874+1062840895+1062934607+1063372101+1063909036+1064040501+1063601479
1866+1062867570+1062123792+1061591631+1061425406+1061565465+1061826739
1857+1062181598+1062805625+1063779354+1064784915+1065267037+1065002007
1849+1064367221+1063974610+1064152294+1064716859+1065179309+1065395573
1840+1065635583+1066066392+1066632168+1067249064+1067862651+1068394111
1832+1068829950+1069239177+1069567297+1069526044+1068827658+1067596220
1823+1066522922+1066157940+1066250125+1066095932+1065220435+1063684942
1815+1061908801+1060360257+1059426253+1059368447+1060180153+1061487605
1806+1062734131+1063495034+1063611984+1063125979+1062222661+1061168461
1798+1060178307+1059422625+1059096287+1059386655+1060296212+1061440685
1789+1062351070+1062897491+1063184294+1063343134+1063498727+1063780246
1781+1064199914+1064537074+1064525106+1064099071+1063361342+1062460189
1772+1061548467+1060731668+1060036593+1059460504+1058998245+1058613911
1764+1058231167+1057844668+1057664819+1057814491+1057949139+1057615034
1755+1056845155+1055971441+1055045905+1053891181+1052490590+1051032893
1747+1049624025+1048225853+1046803935+1045414166+1044111871+1042934547
1738+1042070701+1041767282+1042122905+1042994136+1043912669+1044517342
1730+1044834194+1045042628+1045331595+1045820147+1046536677+1047361243
1721+1048068987+1048532455+1048796339+1049038514+1049448506+1049966406
1713+1050361564+1050551344+1050617617+1050502069+1049902679+1048753940
1704+1047506713+1046409159+1045076624+1043231218+1041630151+1040994410
1696+1040937941+1040799346+1040392092+1039612536+1038238492+1036482278
1687+1034844924+1033195473+1031178176+1029667384+1029305204+1029319464
1679+1028948053+1027663265+1025147230+1021817962+1018244990+1013647931
1670+1006375680+996441351+985992240+975202532+961648565+944122904+926514099
1660+914278280+907928000+904995735+902733335+895806966+876684376+852792647
1650+834719482+816054440+788045609+753206795+725041480+706726968+693383281
1640+682518896+673685367+665664627+656113551+645105986+635466863+627568611
1630+620855196+616294807+614836728+614920318+613543028+609272498+603829482
1621+599951055+598365776+598885077+602010878+607614516+614385547+621752911
1611+629813313+638342723+646721695+654430740+661200689+666863151+671233760
1601+674169972+675898492+677185636+679042310+682290599+687196806+693262767
1591+699433198+704541473+707627994+708233176+706699529+704125052+701910144
1581+701162929+702326311+705596627+711399276+718912748+725682569+730755192
1571+734476053+736963885+738643257+740830790+744427317+749032079+753530523
1561+756784542+756787916+752180162+747382246+745132897+745191212+748227121
1551+755104660+765450763+777417287+789392914+801263943+813086842+824331552
1541+835895788+848695599+859122364+865607737+870549087+876031573+882197485
1531+887420481+890890509+893126234+894690631+895857960+896855372+897966104
1521+899498797+901556520+903945228+906550582+909278043+911644914+912916333
1511+912553452+910110248+904180973+892794103+880104047+872349292+867753634
1502+863954021+861444608+862845708+870813926+883977636+897480863+909142058
1492+920137462+931860156+943398544+952160515+957205826+958902897+956850013
1482+949626718+935482912+912371312+878385394+833801140+781318442+725905390
1472+679914687+655298152+649482515+654991550+668422328+687141037+705371323
1462+719183444+729679983+739917732+752382802+764728504+771598467+772784004
1452+770511226+767299353+766847025+772905537+785388369+799591255+810568770
1442+816172344+817550526+817862412+819544713+821757393+821022337+816504348
1432+810837238+807264903+807040490+807465442+804127006+794317456+778602696
1422+759847125+739658495+719760487+707484369+709180931+721918607+740506617
1412+761599901+782066995+798300356+807292151+807962206+802734436+798173602
1402+800649720+811976492+829906732+849300400+865143887+875912332+882256628
1392+884800738+883873674+879360460+871264470+861965500+856262993+856822466
1383+862163493+868575272+872104952+869868272+859781151+839632374+809782147
1373+777522713+752722827+740001449+738185837+742935751+750713807+761427374
1363+774978603+787421136+796003641+803459879+812287168+820618712+826553335
1353+833077416+844588429+860530276+875540603+884389474+884771772+876716972
1343+861585940+841712506+820470695+801334354+785032556+769305699+752877911
1333+738174696+730198138+733134605+747639700+770846986+798347530+825945606
1323+850421255+869790157+883110161+890011447+890596003+885342640+874521482
1313+858114320+836669932+811786457+785612591+760198546+736941730+716134357
1303+697326709+680505864+666836349+658089785+655393137+658522504+666185393
1293+676858406+689510647+703720663+719167464+735119752+750588263+764819861
1283+777317908+787655608+795929473+803358845+811562999+820754315+829281177
1273+835707917+841046589+848081949+858395457+870721296+882192838+890493250
1264+894992777+896767835+897935355+900502257+905311505+911942349+919364909
1254+926467180+932342468+936622675+939589891+941829245+943830308+945840602
1244+947683971+948514649+946893974+941012319+928708253+908211874+880389195
1234+849951229+822093980+796779568+767901543+729387069+681319289+629709861
1224+581688492+541739812+511532944+491606861+482142685+482324093+489942131
1214+502232159+517075433+533399960+550520691+567083764+580740737+589071390
1204+591003760+587707596+582631090+580483347+585131654+597677322+616454157
1194+638844452+662914758+687577958+711967280+735148591+756275109+774741203
1184+790165849+802190498+810120454+812718487+808494558+796346913+776148606
1174+749020874+717097263+682866497+648691181+616794882+589204191+567338862
1164+551725836+542295974+538878850+541126098+547976199+557694010+568744929
1154+580478508+593014563+606809240+622170860+638568663+654225617+667004293
1145+676501829+685314412+697315823+714096433+733533710+751967336+766894263
1135+777206243+781694883+778331745+765796391+746235098+725685752+709821892
1125+698419998+684819812+661782762+628324867+591171067+559919358+540861132
1115+534653648+538286846+548145543+561621968+577168975+593862939+611147126
1105+628624784+645714352+661541733+675314382+686722324+696089605+704431272
1095+713089153+722748840+732888165+742472856+750914473+758113957+764016240
1085+768594326+772149791+775292781+778539415+782004223+785458144+788520537
1075+790718064+791602347+791198340+790393382+790530130+792244454+794574210
1065+795319834+792739754+787480152+782816247+782372578+787318129+795972382
1055+805809434+815217651+823621643+830864546+836740981+840659771+841614401
1045+838935898+833370585+826816010+820020087+810685529+795234907+773268545
1035+749650376+731424356+722629344+721860801+723971683+723927564+720350709
1026+716709809+718830495+730069857+748363169+767849976+783047600+791785251
1016+795500192+797611710+801170613+807236191+814959560+822873027+829913799
1006+835214909+837437393+835632922+831468137+829228719+832094074+839066981
996+846491578+851487996+853059650+851459347+848112253+845474494+845605640
986+848721001+853374210+857862532+861451356+864611217+868232827+872527167
976+876749249+880021348+882194111+883796706+885425657+887338482+889386083
966+891193928+892597447+893998166+896079954+899100074+902601679+905754537
956+907788195+908103583+905726589+898178803+881772151+855268510+823811487
946+797178355+782865777+781613458+789333007+801324232+814155111+825473416
936+833888231+839503074+844181239+850377836+858979567+868459850+876370135
926+881130553+882092441+878805699+871551655+862814195+857024533+857580822
916+864177288+873666166+883133908+891494291+898768006+905021519+910166272
907+914172281+917125746+919092685+919952648+919264639+916402086+911401211
897+905918152+902502683+902212378+903632833+904995035+906465783+909423640
887+914194245+919643181+924627057+928837680+932387415+935377231+937881488
877+939938065+941554029+942664698+942854860+941542061+939063460+937176163
867+937682923+940666118+944557533+947796910+950033335+951808330+953511576
857+954923245+955631244+955516713+954678587+953125841+950735414+947294734
847+942200020+934191885+922050925+906151859+889415177+876415590+870719386
837+871985775+875464971+874924215+865993027+846967843+818986960+787652170
827+762486157+751053450+752850281+760218091+764910772+762784165+753466987
817+738127522+718357031+696017220+672936879+650231004+627878588+605445192
807+583825603+566169814+556292591+555542129+561310654+569007858+575459363
798+580316103+584891707+590442887+597419359+605661456+614868051+624770103
788+635087558+645718809+657069390+670027532+685466503+703552719+723376241
778+743369170+762189869+779212272+794332799+807449908+818009092+824851999
768+826370367+821130755+809644698+796339082+788013523+787717170+790284263
758+785901177+768943392+743610900+721656951+714368466+725144996+748463375
748+775019920+797262072+811112582+815020740+809164678+796023504+781269231
738+771691734+769412335+768658372+761024895+744279555+723810933+705150221
728+687842415+668702382+649524533+638604824+643994681+666208566+697376367
718+727233978+750336347+767872449+783704922+799747930+814968664+827604606
708+836949223+842773836+843982483+839282417+830004710+821145653+817559312
698+818826146+819764924+817150212+814260474+817185227+827943995+842880854
688+856860218+867284627+874389826+879484094+883604061+887187091+890480518
679+893945134+897985967+902519936+907113365+911432916+915530791+919619626
669+923068709+924082036+922192894+917637471+908244534+889605084+858601598
659+818835569+782594572+764131788+767736910+784045139+799110725+804363578
649+796952478+775552272+741682668+704191580+677069514+670156832+683103070
639+708261061+737348793+765125953+789048241+808044650+822064122+831852790
629+838988738+845855646+854308850+863904237+872466305+878566516+882410311
619+884586130+885075764+883448022+879471744+873625485+867199828+861828879
609+858925899+859373261+863179367+869308418+876295203+883135308+889445226
599+895201656+900778046+906842796+913653744+920496587+926247860+930549457
589+933677232+935107745+933686590+929983491+927039703+927510875+931199013
579+936110632+940339462+941929324+938895962+931600919+923986414+920512885
569+921791879+923690571+921122778+911949670+896852443+877494555+856099824
560+835663862+819282166+808916264+804561889+804513187+806813085+810620592
550+816015287+822705593+829593382+835884264+842152610+849791498+859429984
540+870214091+880887487+891315907+902212315+913329380+922750265+928404770
530+929685674+926640089+917619836+898819765+867063397+822919947+772185060
520+726310161+698588642+695007776+709806868+732684060+756788616+779177448
510+798945201+816590676+832827856+847223642+858750952+867117511+873147693
500+878372789+884004248+890032456+895347763+898389083+897371171+890652727
490+878491330+864513175+854434585+852733249+859188319+868348885+873510000
480+870804440+860311402+846161611+834789511+830549476+832960658+838161053
470+843261433+848405104+854109011+859271845+863042236+866885331+873042776
460+881852239+891609012+900031594+905816545+909808739+914083598+919726325
450+925585125+929815356+932477116+935090046+937352192+936252091+930654501
441+924938116+924632214+930635784+938955933+944522137+945860210+945583148
431+946818087+950470893+955425739+959970211+962411123+961922572+958929572
421+952515692+939745930+923713554+913457470+910566586+911930126+916349946
411+924291170+935254807+947079680+956841864+961505323+959077780+950368459
401+939254259+931686037+933217774+942505031+953078985+964058155+977143751
391+989373458+995138610+993615785+990307780+990488711+994002157+998930583
381+1005831805+1014496308+1022678943+1028387880+1029093778+1020977098
##END=
