##TITLE=X9402
##JCAMP-DX=4.24
##DATA TYPE=INFRARED SPECTRUM
##DATE=5/11/2018
##SAMPLING PROCEDURE=ATR platinum Diamond 1 Refl
##ORIGIN=ComPlat
##XUNITS=1/CM
##YUNITS=TRANSMITTANCE
##RESOLUTION=4
##FIRSTX=3997.453
##LASTX=373.96442
##DELTAX=-1.4165319
##MAXY=1.0881492
##MINY=0.37532946
##XFACTOR=1
##YFACTOR=1.0134179e-009
##NPOINTS=2559
##FIRSTY=1.0126375
##XYDATA=(X++(Y..Y))
3997+999229923+998442031+997789414+997582854+997578267+997554741+997667078
3988+998063965+998585070+999009012+999236981+999148287+998627417+997810706
3978+997056574+996601224+996347377+996041419+995643591+995401036+995562779
3968+996171636+997011051+997601793+997556505+997105155+996789081+996621692
3958+996288208+995938139+995840858+995530548+994225903+992090784+990507119
3948+990623456+991762241+992295109+991926101+991970565+993265446+995034851
3938+996212337+996326556+995130014+992663411+989962841+988779003+989665234
3928+991219021+991829879+991361943+990968114+991228667+991289012+990327261
3918+988968036+988880989+990847778+993869128+996502414+998033381+998218297
3908+996612752+992703759+986860207+981038947+977571716+977035143+978785726
3898+982130973+985743654+987856423+987582579+985870755+985315007+987105232
3888+988981210+988387998+985553092+983100311+982185789+982171321+983821741
3878+987630219+990940118+990803666+987082412+982125209+978229685+976906925
3869+978638452+981088116+981335141+979627375+979290480+982011284+985520273
3859+987163224+986015970+981759024+974388388+968477081+970942625+978892594
3849+986329868+990668156+991370177+988816057+984007951+978415248+973670192
3839+971460436+972738261+976202786+979675781+982515274+985106977+987283326
3829+988188260+987619280+986519019+985280894+982506275+977400975+973192434
3819+973242192+975861010+979267366+983986660+989395742+993250860+994119094
3809+991978564+988298951+985536389+984116466+981871597+978291617+976589851
3799+978604222+982043691+985410112+989075668+992833741+995594657+996862365
3789+996963763+996215748+994828173+993552113+993045241+992586363+991212434
3779+989949783+990958233+994045222+996752968+997175263+994995562+991411583
3769+988645845+988058396+989140130+990988817+992642591+992564484+989857326
3759+985993150+984016421+984450185+984390546+980904965+973482512+966043179
3750+964504626+967715597+970451869+971041376+971561599+973990678+976820643
3740+977641177+975012832+969211745+963930116+964492039+971271815+979563443
3730+985306597+987059356+985375117+982437755+980911141+981841013+984541878
3720+987933354+990969055+992540605+991628730+987639042+981349081+976554561
3710+977684112+983548897+989635238+993188163+993575404+991855757+990611810
3700+991612026+993744910+995238823+995564778+994452578+990918357+984463653
3690+977544426+975362725+979383762+985575560+990642747+993376608+993217571
3680+990128935+984491944+976812644+969892416+969047414+973186200+976079627
3670+976221725+978102232+984468712+991992445+997172205+999304148+999486476
3660+998695408+996847308+993945000+991249135+989518431+986822801+980378802
3650+969876771+961331590+963001185+972471827+982257721+988926747+992453205
3640+994165676+995159775+995452676+994622672+992836917+990648629+987741969
3631+983065786+978021654+977855265+983222824+988912749+991535213+990202455
3621+985485337+980121425+977754279+978439009+979623141+980491786+981698974
3611+982779590+982824231+983084548+985606203+989484200+991948333+991917984
3601+990765789+990252330+990396310+990357610+990437246+991631200+993351788
3591+993232980+989549721+983911317+981491767+984624573+989696524+993169224
3581+994524215+994932747+995441972+996225982+997008698+997530156+997288307
3571+995145659+989844386+981985758+976221842+977475259+983802097+990011422
3561+993800667+995848739+997435228+998621536+998524490+996854954+994727481
3551+993568111+993186398+992135484+990099057+988886988+990259741+993462361
3541+996293737+997435345+997180557+996776024+997109978+997793767+997731305
3531+996430307+994534919+993216865+992970546+993249684+993583403+994318479
3521+995773220+997479810+998807510+999623163+1000032871+999969586+999278151
3512+998073493+996981996+996755909+997260781+997338417+996217512+994753831
3502+994603145+996012482+997544977+998032322+997823998+998014913+998901615
3492+999681390+999507649+998408153+997151384+996326086+995733814+994908398
3482+994053103+993965939+994851347+995864972+996204338+996016952+995801334
3472+995465145+994698779+993864541+993769730+994709131+996155874+997313127
3462+997816469+998034557+998648944+999838310+1001042380+1001625359+1001536312
3452+1001018619+999950765+998173715+996385254+995744165+996367845+997309951
3442+997998445+998567190+999122643+999624457+1000153443+1000725718+1001184243
3432+1001452089+1001536077+1001397625+1001130368+1000974860+1000908751
3424+1000553506+999727737+998862914+998603068+999095118+999933356+1000659727
3414+1001030382+1000973448+1000602205+1000239196+1000238373+1000658197
3405+1001106724+1001062730+1000461636+999717032+999144640+998753753+998512139
3395+998341221+998051731+997688252+997613439+997973389+998445089+998635887
3386+998498141+998358278+998595892+999206749+999800550+1000089217+1000142033
3376+1000157560+1000243666+1000401644+1000507395+1000358827+999890185+999314146
3366+998966312+998981486+999140288+999081590+998715640+998434502+998805981
3356+999921828+1001148483+1001729698+1001538312+1001043203+1000729482
3347+1000729717+1000837938+1000743009+1000287307+999542115+998734579+998164892
3337+998049026+998311696+998664000+998906908+999029009+999073709+999087589
3327+999156051+999349789+999609635+999742794+999618340+999362846+999250743
3318+999378138+999539292+999435424+998950549+998260644+997765300+997850935
3308+998552721+999399076+999797727+999627751+999246273+998949726+998763163
3298+998715876+998878912+999145346+999340378+999500709+999766320+1000092863
3288+1000313774+1000416348+1000541272+1000714307+1000774887+1000637377
3279+1000439874+1000323537+1000241902+1000115801+1000041576+1000191438
3271+1000526804+1000745480+1000647846+1000509277+1000836173+1001707230
3262+1002602872+1002935885+1002569935+1001831566+1001161893+1000786768
3254+1000720071+1000976154+1001528784+1002077062+1002219160+1001943551
3245+1001629947+1001532901+1001570425+1001593952+1001550193+1001429503
3237+1001319519+1001362924+1001482555+1001387156+1000998386+1000615733
3228+1000545272+1000770653+1001004621+1000922749+1000414113+999726561+999277563
3218+999277916+999625868+1000066514+1000310363+1000157678+999746440+999571876
3208+1000019932+1000904517+1001647591+1001867326+1001636769+1001252469
3200+1000947452+1000814647+1000837702+1000920162+1000956862+1000947334
3191+1000998151+1001106607+1001050497+1000717248+1000394469+1000401056
3183+1000572797+1000498102+1000122624+999804315+999892538+1000428111+1001117782
3173+1001521491+1001376922+1000792767+1000132975+999760673+999802080+1000033224
3163+1000087923+999871129+999653865+999721738+1000076630+1000507983+1000822175
3153+1000982153+1001100254+1001275172+1001445384+1001489730+1001424563
3145+1001338222+1001202946+1000929454+1000543625+1000183321+999993347
3136+1000031930+1000193202+1000304717+1000351063+1000446227+1000603029
3128+1000716072+1000689134+1000427170+999899243+999315676+998994426+998963018
3118+998938433+998753282+998596245+998744695+999204632+999729619+1000074630
3108+1000103921+999772789+999195810+998661530+998404036+998394508+998421328
3098+998328282+998127250+997926572+997836467+997944922+998245940+998541311
3088+998582012+998335575+997932571+997452049+996991406+996731912+996710503
3078+996797786+996979173+997306069+997613791+997645081+997329595+996722737
3068+995945902+995329869+995249998+995654178+996032949+995963782+995516432
3058+995092372+994997209+995161069+995174714+994628318+993535762+992406858
3048+991773533+991680723+991743420+991598851+991204317+990790962+990560994
3038+990389958+989953901+989160009+988213433+987314615+986597243+986250056
3029+986336161+986633709+986930786+987275444+987698563+987959468+987848307
3019+987500237+987159695+986813390+986310047+985734950+985413170+985543447
3009+985967741+986338396+986395330+986021675+985173144+983949253+982656784
2999+981508235+980264406+978522468+976338650+974193532+972374840+970817113
2989+969456064+968310045+967286656+966245269+965135833+963861478+962185532
2979+959991833+957562107+955475687+954226447+953960601+954621863+956259050
2969+958963915+962488490+966173985+969370605+971822387+973659782+975125052
2959+976296538+977031555+977200649+976891751+976274541+975341022+973878223
2949+971611063+968358803+964127618+958875750+952037923+942910234+932279515
2939+923218405+919169666+921188742+927561691+935671520+943566673+950294398
2929+955741533+960272912+964182140+967425578+969846246+971448438+972399131
2919+972884241+973019693+972844129+972357549+971658880+971112543+971228174
2910+972231625+973870577+975702855+977406856+978811723+979852697+980568952
2900+981050298+981379665+981619690+981776787+981753554+981359726+980456850
2890+979182378+977964192+977178358+976845698+976738772+976635727+976381820
2880+975858245+975019890+973978268+973067040+972738967+973232546+974346570
2870+975663919+976918864+978009127+978765670+979006990+978862657+978787843
2860+979171320+980070021+981329319+982771709+984261975+985747301+987230627
2850+988660313+989932256+991004227+991930571+992795040+993605282+994213317
2840+994448814+994418582+994519980+995036380+995828742+996483476+996705092
2830+996563112+996392429+996463949+996786728+997190085+997503218+997684252
2820+997857876+998190183+998669764+999098058+999341672+999486593+999686566
2810+999964881+1000253077+1000539978+1000850524+1001132485+1001302462
2802+1001387862+1001502082+1001708054+1001976840+1002242451+1002450305
2793+1002587933+1002686860+1002778965+1002858955+1002894479+1002861189
2785+1002776142+1002705093+1002725326+1002884598+1003168441+1003519805
2776+1003896342+1004255587+1004487790+1004526138+1004532960+1004739873
2768+1005088884+1005308501+1005325557+1005320146+1005400606+1005501180
2759+1005556467+1005566818+1005525412+1005429896+1005317088+1005189458
2751+1004965254+1004605186+1004242412+1004064672+1004102196+1004236413
2742+1004347574+1004330282+1004101019+1003782240+1003699075+1003985506
2734+1004376511+1004569896+1004575190+1004538371+1004467910+1004316166
2725+1004146660+1004069142+1004096314+1004144308+1004154659+1004188890
2717+1004337105+1004525550+1004541430+1004298051+1003956451+1003749891
2708+1003804119+1004107489+1004508728+1004780809+1004801865+1004670706
2700+1004589070+1004650121+1004763282+1004792219+1004747872+1004776692
2691+1004930200+1005072533+1005086061+1005019482+1004945021+1004824097
2683+1004632711+1004492378+1004538724+1004716229+1004827155+1004773751
2674+1004633417+1004492730+1004360396+1004282877+1004343104+1004487202
2666+1004548488+1004497436+1004456147+1004442855+1004335693+1004142896
2657+1004079140+1004247352+1004434268+1004397332+1004229943+1004191831
2649+1004262409+1004178421+1003886225+1003638848+1003613439+1003725306
2640+1003840467+1003937865+1004040440+1004187243+1004470616+1004930788
2632+1005376962+1005478007+1005150523+1004758576+1004751283+1005135113
2623+1005506944+1005596109+1005539999+1005603872+1005867130+1006263194
2615+1006709132+1007099079+1007307286+1007302698+1007233413+1007330812
2606+1007682999+1008114587+1008406194+1008594639+1008844016+1009051047
2598+1008907184+1008397136+1007887559+1007629947+1007481615+1007229296
2589+1006939924+1006831586+1006923456+1006954746+1006679725+1006174029
2581+1005745853+1005551879+1005456010+1005325557+1005286857+1005533882
2572+1006008876+1006431053+1006601030+1006567622+1006527040+1006657492
2564+1007044263+1007618890+1008117998+1008299855+1008248686+1008222925
2555+1008235158+1008185518+1008289622+1008812962+1009461814+1009630849
2547+1009226552+1008784024+1008809550+1009291014+1009810119+1010018914
2538+1009971273+1009910341+1009822705+1009484046+1008884716+1008312442
2530+1008032480+1008067417+1008213161+1008174343+1007842977+1007522080
2521+1007672530+1008350202+1009095158+1009466049+1009456168+1009306659
2513+1009215848+1009320657+1009621086+1009881050+1009922339+1009949865
2504+1010239590+1010643887+1010755519+1010466852+1010129722+1010172187
2496+1010648004+1011192282+1011449424+1011458364+1011555409+1012027109
2487+1012847467+1013571838+1013631713+1012986272+1012277663+1012101687
2479+1012356005+1012498927+1012210025+1011627046+1011079004+1010734816
2470+1010554840+1010549900+1010873620+1011505651+1011984880+1011758087
2462+1010849976+1009971038+1009823411+1010440621+1011300032+1011885834
2453+1012052400+1012047812+1012229787+1012584797+1012630438+1012024521
2445+1011098648+1010508494+1010527315+1010955256+1011565761+1012290485
2436+1012970156+1013286466+1013114019+1012722778+1012507749+1012659728
2428+1013077906+1013451973+1013497849+1013250588+1013045087+1013167776
2419+1013589130+1014008955+1014139525+1014000838+1013846860+1013763695
2411+1013577367+1013213888+1012853819+1012655846+1012583386+1012582798
2402+1012711486+1013008269+1013383394+1013747579+1014132232+1014535942
2394+1014767086+1014642750+1014266684+1013917438+1013713701+1013548195
2385+1013313991+1013078259+1013054498+1013511141+1014681216+1016540961
2377+1018593032+1020205282+1021408176+1022940789+1025168248+1027480755
2368+1029155466+1030257198+1031305877+1032532297+1033718017+1034434272
2360+1034318288+1033305603+1031627363+1029492361+1026802848+1023542354
2351+1020441132+1018586210+1018432231+1019607011+1021320894+1022834451
2343+1023819022+1024303426+1024417175+1024330834+1024200028+1024027816
2334+1023646928+1022879503+1021751658+1020536413+1019536668+1018898520
2326+1018612559+1018530923+1018456580+1018318952+1018107452+1017681157
2317+1016969490+1016167247+1015376767+1014372787+1013066143+1011831842
2309+1011058418+1010766576+1010836566+1011206163+1011725974+1012117685
2300+1012125919+1011642691+1010860798+1010314638+1010445326+1011089120
2292+1011704095+1012028521+1012168854+1012153915+1011821843+1011181343
2283+1010627889+1010672001+1011373316+1012082631+1012034520+1011237688
2275+1010370042+1009776359+1009148092+1008294092+1007633006+1007671942
2266+1008360671+1009187498+1009717543+1009832586+1009552507+1009021404
2258+1008718269+1009159385+1010211476+1011206516+1011783495+1012015934
2249+1011847016+1011130173+1010118900+1009354770+1009117390+1009220788
2241+1009288191+1009206908+1009197262+1009283721+1009083395+1008502651
2232+1008024011+1007739579+1006873345+1005108175+1003678607+1004077964
2224+1006040871+1007901792+1008730502+1008950237+1009025168+1008901302
2215+1008606872+1008189753+1007291406+1005742677+1004171480+1003335477
2207+1003292072+1003566622+1003750126+1003735775+1003511806+1002903890
2198+1001740520+1000240608+998993367+998594833+999272623+1000613498+1001788748
2189+1002272329+1002122232+1001573837+1000809000+1000041811+999400723+998769162
2179+997922102+996884362+996127995+996091294+996453362+996492886+996138464
2169+995948608+996207514+996719208+997253017+997564975+997072219+995122368
2159+992106547+989601008+988350356+987422718+986071845+984762436+984054592
2149+983810390+983597125+982974681+981748379+980510019+980087724+980143011
2139+979330475+977026203+973960564+971080724+968648057+966528054+964510507
2129+962137480+959011791+955503566+952351704+949413754+945722907+940984204
2119+936080935+931850986+928120791+924215444+919965439+915902819+912429884
2109+908966771+904248770+897367420+887894484+874976784+857220337+833836367
2099+805148889+771708357+733903599+693079609+652502644+617144551+593011213
2089+585692452+597688219+626785288+667540993+714086317+761507520+805879377
2079+844491082+876415469+902261278+922971909+939124459+951444181+961192374
2070+969412835+976197258+981196454+984686329+987703974+991021166+994338946
2060+996893772+998593657+1000016050+1001591246+1003468283+1005828077+1008603814
2050+1011294857+1013713701+1016340871+1019160837+1021089043+1021450876
2041+1021080926+1021157387+1021862231+1022865152+1024111099+1025437388
2033+1026193755+1025832510+1024569154+1023316737+1023039011+1023855370
2024+1024838999+1025107904+1024808062+1024447994+1023782556+1022122078
2016+1019620891+1017649044+1017672688+1019900618+1023071830+1025603365
2007+1026746738+1026487714+1025213066+1023985352+1023978529+1025098023
1999+1026114119+1026347028+1026270450+1026473128+1026880719+1026880484
1990+1026071654+1025192127+1025756638+1028179835+1030854057+1031756286
1982+1030443878+1028050324+1026091651+1025620069+1026642870+1028001272
1973+1028387689+1027500870+1025904618+1024127567+1022551666+1021770008
1965+1022198773+1023522709+1024943691+1025627832+1025058616+1023483303
1956+1021838117+1020914126+1020669336+1020408313+1019653357+1018743247
1948+1018153916+1017323795+1015249138+1012492457+1011157934+1012042048
1939+1013675824+1014745089+1015353006+1015959864+1016473558+1016648593
1931+1016648828+1016768694+1016740228+1015674256+1013179657+1010561428
1922+1009807178+1010838684+1011671746+1011594698+1012012052+1013549841
1914+1014787436+1014456776+1013026501+1012063928+1012608206+1014345497
1905+1016191832+1017217221+1017049009+1015979155+1014719799+1013748167
1897+1013181774+1013244119+1013878502+1014131762+1013282113+1012203791
1888+1012341772+1013689822+1015153857+1015968804+1015978214+1015445346
1880+1014832724+1014497006+1014494888+1014473009+1013685117+1011380374
1871+1007385746+1002922710+1000941217+1003302305+1007968724+1011808080
1863+1013589248+1013705938+1013068260+1012504220+1012417291+1012751363
1854+1013339870+1013902146+1013822510+1012536098+1009972332+1006457755
1846+1002916947+1001280583+1002742618+1005626340+1007600069+1008025775
1837+1007731698+1007698409+1007616655+1006133211+1002730854+999015011+997270074
1827+997402526+997848818+998407094+999751616+1001361395+1002010247+1001501611
1817+1000517511+999203809+996948471+993382489+989101900+985583617+983836210
1807+983243056+982540094+981057356+978800783+976540328+975611573+976248133
1798+976999206+976483924+974153597+970361058+967465043+967979032+970427049
1788+971708638+970765943+968373860+965536308+962675818+960074468+957995518
1778+955872633+952189197+945690441+936781192+928105911+922082972+917571179
1768+911825496+903465172+892029564+876334833+856144249+835127660+816144028
1758+796428379+773282611+747645715+718546882+680470103+629817872+573274508
1748+523207903+484434014+455205051+433693471+419244012+411898048+412190743
1738+419800641+434759619+461889223+506170063+556654787+599862509+637857770
1728+673317907+704221434+730105120+752322662+770478525+783412340+791681794
1718+798169611+807570733+821053002+834532213+845304500+853218356+859015855
1708+864080690+870340597+878683394+887238926+893669515+898351579+903967574
1698+911717805+921096519+932694811+944586592+952788585+956435320+957293085
1689+956927900+955025749+950814209+947342685+950429673+958237544+965543248
1679+970276775+972153341+972028417+971539014+970972856+969291734+967678779
1669+969810016+975205276+979094037+979182201+977314163+977207237+979426756
1659+980995658+979396289+973567148+964170201+958004752+961320298+965664643
1649+965505371+963718439+966862479+975099643+982403348+986119426+986280581
1639+983099076+977614710+974465789+979122033+987813371+993942648+995906378
1629+994982623+993328144+991950921+990516765+989868148+991428404+993700916
1619+993860424+991791884+991336770+995053789+999777024+1002303501+1002418544
1609+1001755812+1001880030+1002815313+1003596853+1003722483+1003606381
1601+1003804590+1004165481+1004139485+1003683900+1003357004+1003542155
1592+1004055967+1004658590+1005434954+1006421172+1007252470+1007569603
1584+1007521374+1007341987+1006486928+1003766712+998795276+994235196+994476575
1574+997884695+999181576+996897419+994190967+994773122+997421347+999163461
1564+998878324+995607243+986972898+972692268+964841638+971113955+980284638
1554+986817860+990513589+992166068+993153579+993751850+992074080+986306224
1544+977071314+966974993+959971424+962691874+973705599+982610261+985597674
1534+985044162+985610202+988505393+990170812+988332829+984199690+980210884
1524+976654430+972919942+970872694+971952487+974088664+976585440+980919551
1514+986045789+988426345+985739478+977851619+966937821+961523564+970997794
1504+985276189+993833369+996203044+994233079+990469477+988662078+990973055
1494+994474810+994721129+990090941+983410327+981335435+986290873+993348729
1485+998088432+999703622+999430366+998499905+996652394+992688820+986176183
1475+978545524+973748476+975708266+981938764+986461497+986450263+982718187
1465+978689504+976677486+974408679+968124541+955776646+940395520+932295807
1455+934036921+938458256+941807738+943571967+944283692+944947896+945843831
1445+945886473+944023728+940411459+935790387+930179979+923414319+917612409
1435+915653148+916109968+915901878+914303862+912518225+911144884+909496110
1425+907725000+907304469+908686221+910928325+914939363+923659168+936141103
1415+947972304+956765275+962623295+966682209+969665624+971269110+971283814
1405+970773119+970907865+970809055+968561422+963829365+958198667+952976383
1395+948046529+942948287+936693910+926918838+910424159+884855136+851618576
1385+815658154+780354406+747334170+720085788+702908850+696945667+700316734
1375+711779927+731024112+754938245+777962029+796397795+808710871+813892043
1366+811558833+802965953+792739238+788464353+794784604+810629549+832550720
1356+856784397+879680375+898658831+913027390+923596647+931617547+937986791
1346+942994693+946294946+947225466+945996752+945032355+947903137+955464512
1336+964925509+973211079+979058924+982657136+984714443+985883576+986576364
1326+986929845+986758574+985636845+983254113+979794529+975820133+971490138
1316+965972248+958027749+947133243+933744432+918310842+899978591+876456934
1306+846377941+813496156+788101991+781587061+797752021+829770866+865783751
1296+896548767+918541046+932370032+940043980+943399872+943609550+941115774
1286+935897254+928027980+918124338+907318526+896931950+888294370+882552510
1276+879931105+879002585+877361457+873635851+868854565+865528903+865276703
1266+867334126+869028188+867310189+859978723+846027519+825487747+799264696
1256+769036253+736866311+704433699+672693758+642570418+615726746+594408551
1247+580811298+576511123+581701294+594494716+611166077+627278220+638747530
1237+642470020+636812678+622038115+600285804+574805416+548681704+523716539
1227+500066958+476819175+453120572+429171591+406572602+387874254+375454016
1217+370360009+372010077+378847080+389254065+402128888+416906685+433183747
1207+450422677+468035909+485623409+503025258+520241192+537442304+554988368
1197+573201459+592043934+611155490+630225287+649184746+668046218+686707718
1187+704900047+722163445+737873290+751484600+762968438+773086403+783110852
1177+794084700+806235328+818958760+831258309+842338789+851989289+860439013
1167+867894226+874378690+879982686+885037170+889997725+895222302+900769718
1157+906373891+911727568+916757879+921515697+925910682+929719395+932814265
1147+935266635+937219838+938730513+939808777+940607608+941433848+942485645
1137+943606844+944343096+944198057+942808012+939932995+935468842+929664991
1128+923390205+918126162+915511755+916536615+920863904+926905664+932695458
1118+936857417+938971597+939226386+937816991+934672246+929563652+922108792
1108+911704219+898088909+882417176+867529982+856642181+851320852+850388450
1098+850720993+849458048+846012403+842371491+841495317+845081001+852333772
1088+860407018+865768400+865310933+856726169+838584480+810867752+776158746
1078+740517516+712430132+699331693+703565407+720915792+743095457+761979750
1068+772262692+771780053+761112457+743425294+723829981+707576621+697817489
1058+694600224+695723952+698176793+698895988+695239431+685710502+670238624
1048+649623274+625167216+599058266+574366358+553719248+537669684+524454908
1038+511423283+496933976+481450746+467259310+457111613+452823995+454713089
1028+461847817+472630456+485419967+499052980+513107641+527825034+543720031
1018+561079886+579691863+598963515+618239754+637032236+655062352+672164595
1009+688143757+702678940+715316560+725602620+733449662+739630285+745844197
999+753916208+764625857+777281004+790385678+802557068+812840364+820445085
989+824359137+823154361+815273736+799958483+778464783+754796793+735010212
979+724618402+725566272+735600014+750680299+767738430+785302199+802628764
969+819175024+834669429+849082453+862384452+874430389+885070636+894337071
959+902473661+909751192+916310646+922197603+927465881+932278398+936966166
949+941833381+946804523+951440711+955405697+958756414+961725124+964361998
939+966423421+967488922+967150439+965134245+961216429+954964934+945714437
929+933263321+918871942+905066541+893385378+881488774+862685293+830204512
919+784722160+738411099+709083768+707686253+731091514+766629406+801734063
909+828999677+845263388+849730070+844284758+834412347+827621925+829154303
899+838609359+850491260+857231335+852067279+832050141+801517034+772516658
890+758854355+767283963+793872317+828438989+861756715+889265943+910361520
880+925973321+936768958+942429359+941457315+931749999+912763074+887826846
870+863415311+845751321+838722050+843965390+860445836+883778930+908045191
860+929070426+945557165+957829129+966644450+972847364+977145892+979964329
850+981558052+982123563+981714089+980068197+976501804+969991461+959462905
840+944205056+924390538+901598428+878930536+860355966+849537567+848803432
830+858435347+876160681+897587449+918169450+935301101+948534404+958313769
820+965201295+969959231+973519625+976679897+979858814+982990914+985761828
810+988119799+990397957+992979015+996094000+999764555+1003643435+1007089433
800+1009578151+1010933847+1011226631+1010684352+1009722719+1008946590
792+1008989055+1010210064+1012511631+1015466755+1018573741+1021412646
783+1023711860+1025348694+1026252217+1026290212+1025280939+1023088298
775+1019609834+1014574407+1007440326+997768123+985912219+973346766+962079252
765+953634998+948884356+948821188+954523406+965616826+979442048+992620947
755+1003233374+1011149818+1016988782+1021425232+1025037207+1028134900
747+1030672317+1032507830+1033760247+1034787282+1035822905+1036853352
738+1037878976+1038999175+1040141372+1041007488+1041404022+1041349677
730+1040840923+1039887877+1038852842+1038344206+1038657105+1039645087
721+1041126413+1042957456+1044742388+1045990452+1046595428+1046815751
713+1046780696+1046259944+1045057639+1043506792+1042290371+1041756444
704+1041676690+1041601407+1041121355+1039966690+1038206696+1036103102
696+1033580859+1030227202+1025867564+1020624166+1014244687+1005876423+995020265
686+982729244+971483904+963514997+958913098+955352645+950028787+942113108
676+933637270+928319117+929000318+936046410+948528287+963830189+974993481
666+978344728+977963604+977857383+980043730+985401525+993537880+1002959058
656+1011856191+1018834646+1023239807+1025250472+1025544197+1024453758
647+1021568271+1016135722+1007705819+997173616+987795020+984047063+988128857
637+997916926+1008978468+1017937357+1023824785+1027455346+1030169563+1032676160
628+1034722115+1035846666+1036028053+1035321444+1033390650+1029671513
619+1023448955+1013623478+998725286+976890280+945950346+905408435+859546606
609+816874457+784669697+765002747+756193249+755197444+758188622+762889684
599+771975908+790893138+820978953+857149229+892017036+919821223+936859299
589+940574436+929575768+905925423+878561058+861576563+865076318+887408844
579+917190349+942621097+957552167+960304554+951158456+932644289+911097537
569+896109122+895635128+909997982+931794993+951631685+962982187+963609219
560+955776587+945928820+941808620+947330922+959995244+973933333+984718736
550+990561700+990278680+982178731+965642764+942890413+918137219+895766992
540+880447211+877507673+890241809+915970457+946454689+973321887+992601185
530+1004956549+1013565369+1021655083+1030288840+1037966729+1042941223
521+1045081753+1045471700+1045421942+1045826945+1046932558+1048440939
513+1049603251+1049466916+1047586351+1044267159+1039419471+1031326227
504+1017087709+993966997+960113581+915019294+861147857+806123226+760834377
494+732820807+724112766+735228771+764733607+805751042+848830546+887352617
484+919142669+945097993+966775079+984577050+998094431+1007671589+1014728386
475+1020562409+1025740758+1030606679+1035655751+1041208049+1046611543
466+1050202110+1051252319+1051214794+1051368303+1050745800+1048670084
458+1047518831+1049115906+1051341130+1052678241+1054550807+1057299137
449+1058297588+1055623837+1049802753+1040368282+1024147329+1000129446+973549091
439+952110737+941824206+945926467+961920745+981779022+998738814+1010899499
429+1018597502+1021854820+1020992586+1018172972+1016767988+1018428820
421+1022290878+1027437114+1033828590+1039230908+1039041052+1030063930
412+1014202223+998550134+988915219+985843994+987726559+993030420+999135465
402+1003148209+1005163933+1008991525+1017859133+1028652124+1037079086
394+1045031054+1055288236+1066233676+1073184605+1073741823+1070382048
385+1066619270+1062683575+1057781070+1052911738+1047894426+1039634029
377+1022975373+993940295+959085545
##END=
