##TITLE=CHS- 248
##JCAMP-DX=5.0
##DATA TYPE=LINK
##BLOCKS=1


$$ === CHEMSPECTRA SPECTRUM ORIG ===
##TITLE=CHS- 248
##JCAMP-DX=5.00
##DATA TYPE=INFRARED SPECTRUM
##DATA CLASS=XYDATA
##ORIGIN=Marie
##OWNER=
##XUNITS=1/CM
##YUNITS=TRANSMITTANCE
##XFACTOR=1
##YFACTOR=9.0830116e-010
##FIRSTX=3997.453
##LASTX=373.96442
##MAXX=3997.453
##MAXY=0.9752809433714146
##MINX=373.96442
##MINY=0.5654421461010114
##NPOINTS=2559
##XYDATA= (X++(Y..Y))
2559A066896911A067361319A067475961A067267151A066962140A066717828A066535858
2552A066426138A066505147A066784238A067029730A067048105A066894352A066596624
2545A066009241A065173084A064521194A064505969A065175643A066160631A066943765
2538A067195754A066945209A066452715A066040477A066007797A066441625A067083278
2531A067588831A067819886A067765420A067441575A067009978A066765076A066858457
2524A067148047A067396427A067512447A067503785A067290053A066785879A066213326
2517A066000841A066238000A066526540A066534939A066421676A066491629A066710544
2510A066888183A067018640A067109068A066894943A066140288A065154447A064552364
2503A064505444A064649419A064824630A065217182A065729756A065991457A065903130
2496A065692811A065539190A065515894A065731331A066185699A066636916A066844873
2489A066789553A066589209A066365766A066262280A066445497A066769079A066623398
2482A065742224A064728625A064479655A065110480A065881212A066394180A066778660
2475A067044167A067063920A066922635A066874600A067046202A067158284A066679046
2468A065555923A064522637A064262511A064843136A065796560A066566504A066909773
2461A066840214A066558104A066411701A066647941A066988257A066951706A066773542
2454A066849662A067190242A067447678A067244643A066666381A066216672A066109511
2447A066060557A065929051A066011800A066428172A066873090A067036358A066963058
2440A066904917A066850844A066522471A065969671A065764339A066310118A067108674
2433A067423660A067443478A067614948A067903030A068063738A068011569A067697698
2426A067122192A066503179A066144685A066102359A066283344A066673993A067099880
2419A067266101A067253305A067302718A067333101A067077503A066540649A066004779
2412A065734678A065824777A066184649A066530412A066551608A066271204A066056554
2405A066178940A066416426A066334005A065926032A065604877A065665447A065950443
2398A066103934A066062329A066012259A066082606A066341945A066793753A067255995
2391A067420313A067156447A066729903A066532183A066676421A066813637A066432307
2384A065794328A065573444A065624302A065632964A065983845A066967258A067869693
2377A068054420A067579841A067006763A067034127A067791144A068533067A068513118
2370A067792259A066985173A066575888A066504819A066423579A066286757A066271467
2363A066329673A066281113A066125654A065978989A065856801A065639329A065272961
2356A065053717A065336549A065979580A066552592A066871121A067105655A067354297
2349A067328574A066859179A066396280A066587831A067473205A068267495A068010650
2342A066544717A065102015A065005747A065905820A066717960A066929329A066655422
2335A066170606A065589522A064982255A064535696A064336796A064178253A063947722
2328A063817462A063965309A064218545A064254177A064035853A063871272A064068270
2321A064525131A064850814A064824434A064514369A064071420A063621580A063434754
2314A063932432A064932776A065290744A064738403A064131595A063916027A063905593
2307A063871207A063872060A064004026A064118011A063940700A063408439A062783258
2300A062389328A062280002A062196202A062045665A062016922A062188393A062497867
2293A062877032A063217610A063292682A062988392A062488024A062061611A061811263
2286A061644386A061537290A061674769A062146198A062734500A063178500A063343474
2279A063119505A062470503A061660660A061161998A061223026A061672866A062213264
2272A062699196A063053424A063245631A063431407A063728150A063919505A063725132
2265A063111892A062304938A061643926A061381438A061508745A061750890A061809557
2258A061606653A061273752A060933764A060542328A060043469A059619812A059529057
2251A059829409A060321050A060706908A060864795A060938685A061089485A061184047
2244A060953975A060503348A060278527A060442845A060583079A060301429A059844634
2237A059685237A059843387A059983293A059895688A059619812A059299183A059179553
2230A059485877A060062237A060370923A060044453A059233889A058366167A057826228
2223A057787774A058124678A058559753A058928418A059207115A059368742A059384098
2216A059295639A059147399A058896131A058501021A058037729A057631725A057359065
2209A057252363A057292721A057349024A057284059A057209774A057415762A057887060
2202A058186100A057980703A057395813A056732177A056154505A055786168A055802114
2195A056248082A056873133A057255316A057153996A056779359A056581180A056638534
2188A056518183A055937755A055172667A054616651A054376671A054465064A054949617
2181A055720677A056439961A056842356A056891376A056638862A056135868A055471313
2174A054808464A054379755A054382905A054748289A055077515A055009858A054600901
2167A054184660A053991731A053998359A054033336A053970339A053888901A054005971
2160A054344778A054598145A054502928A054196538A053997047A054011549A054181051
2153A054462242A054721581A054690738A054312886A053918891A053841588A054026839
2146A054146731A053971192A053558166A053138972A052855747A052618195A052263442
2139A051854813A051766092A052301831A053158134A053548848A053135822A052461620
2132A052129507A052062835A051904161A051606236A051334364A051255814A051541336
2125A052167436A052732705A052803643A052403020A051975754A051908360A052196048
2118A052596474A052931672A053079781A052920975A052555919A052314299A052306162
2111A052310427A052228268A052203332A052247233A052176820A051912954A051553607
2104A051223134A050983809A050795672A050578069A050389996A050383893A050535743
2097A050715482A051010453A051567847A052123732A052190142A051754542A051310871
2090A051188683A051330230A051646266A052038358A052181480A051829942A051284885
2083A051116826A051458061A051904882A052098730A052079306A051977526A051718187
2076A051303062A051027449A051022856A050956643A050628335A050442559A050783925
2069A051335545A051510362A051264017A051029549A051057045A051237374A051464689
2062A051762942A052068413A052204841A052099714A051810058A051428794A051139335
2055A051155412A051432338A051671924A051735380A051798903A052033502A052319942
2048A052353344A051964205A051318549A050752296A050465789A050494335A050837998
2041A051386271A051828039A051920435A051799231A051832370A052173605A052575081
2034A052670299A052378871A051924897A051514037A051195639A051039589A051216178
2027A051797262A052551982A053022624A052904242A052374409A051901864A051711363
2020A051646528A051532871A051420722A051474533A051783678A052260095A052681783
2013A052881996A052837635A052579018A052154837A051669758A051242361A051041952
2006A051320452A052076419A052780413A052888689A052491282A052040917A051703685
1999A051417310A051287969A051495728A051961842A052361415A052425003A052180233
1992A051916235A051899370A052172227A052630532A053148093A053551079A053637700
1985A053336560A052804299A052335101A052171899A052335560A052578034A052571471
1978A052238505A051880012A051856388A052151425A052406235A052402954A052309902
1971A052405317A052731852A053076172A053212862A053153868A053118629A053194094
1964A053133657A052651925A051850744A051228581A051276157A052033895A052987844
1957A053489197A053338726A052882914A052577115A052611764A052878452A053082209
1950A052945059A052497516A052122026A052175311A052648643A053258207A053704306
1943A053796112A053484866A052896761A052344879A052268363A052959955A054167533
1936A055117019A055202656A054552341A053734821A053117645A052738086A052566944
1929A052557166A052532033A052339432A052105227A052078387A052290280A052607761
1922A053008187A053520958A053991994A054141349A053821704A053158002A052491085
1915A052123601A052042426A051995244A051814849A051513840A051145372A050792653
1908A050614030A050695270A050890693A050923241A050647038A050186370A049786469
1901A049551870A049411176A049309528A049285904A049342076A049397133A049404745
1894A049413014A049494845A049678586A049918172A050081834A050049745A049888183
1887A049821380A049954659A050152509A050223250A050096665A049852354A049670712
1880A049612308A049415245A048824974A048106084A047774298A047841036A047815903
1873A047416592A046850208A046400565A046090960A045787982A045416364A044995989
1866A044582176A044222764A043878641A043370923A042536275A041414859A040139559
1859A038766875A037348322A035928194A034344010A032341748A029962553A027505398
1852A025108813A022691950A020264588A017980873A015872500A013726788A011269305
1845A008398600A005205756A001793734I98123883I94036019I89321069I83755198
1838I77159323I69490919I60815216I51117054I40194778I27832949I14118977H99574097
1830H84957361H70908387H57765590H45678915H34819439H25469927H18019258H12924029
1822H10548967H10916517H13525652H17404444H21455494H24825912H26839199H26666284
1814H23431442H16720268H06743935G94036343G79196885G62799362G45293744G26975658
1806G08090531F89030719F70576336F53910812F40207404F30203050F24247187F22527165
1798F25025531F31347303F40694583F52018795F64306930F76812077F89033737G00610463
1790G11367044G21375270G30817045G39774464G48197522G56083004G63629679G71186197
1782G79100224G87614103G96742336H06183522H15522533H24586982H33453383H42075407
1774H50067459H56896162H62138057H65482684H66611189H65277879H61595428H56170644
1766H49946846H43999054H39354321H36595567H35395601H34554653H32617620H28461246
1758H21473147H11550361G99102305G84950370G70184147G56246797G45102127G38925839
1750G39256378G46305571G59042168G75847008G95106180H15495891H36086799H56306482
1742H75760880H94091041I10950347I26062267I39362558I51077353I61466843I70463373
1734I77787261I83455371I87945892I91830197I95425829I98801628A001918482
1727A004720021A007190628A009347365A011182553A012722441A014154578A015704245
1720A017347029A018871431A020237355A021593436A022932324A024052296A024902759
1713A025675788A026517523A027374876A028150857A028844221A029504248A030168803
1706A030898127A031780023A032823677A033897320A034831451A035547126A036047692
1699A036359200A036543139A036729243A037061816A037565137A038086374A038468163
1692A038777178A039233777A039908306A040595107A041018173A041117656A041106369
1685A041209068A041394975A041488684A041473853A041486256A041581014A041701628
1678A041831625A042017861A042280743A042564624A042759719A042768512A042577748
1671A042251344A041890816A041613825A041512373A041588954A041756488A041887994
1664A041900003A041832675A041807738A041841075A041788052A041518936A041074280
1657A040630675A040384526A040425343A040640846A040834628A041008724A041387954
1650A042048506A042699740A043036447A043150170A043328137A043579667A043676919
1643A043576714A043496852A043605325A043837562A043987180A043898787A043649226
1636A043532550A043742213A044127808A044375007A044338718A044094801A043794382
1629A043607950A043683940A044005554A044354598A044526988A044508614A044387541
1622A044223617A044099591A044138308A044359126A044623977A044792823A044842630
1615A044826093A044806210A044809294A044786392A044677984A044553696A044589198
1608A044874654A045316750A045725773A045956959A046022713A046083938A046236510
1601A046315256A046095750A045678525A045448650A045632458A046080001A046498539
1594A046742390A046840824A046845811A046752956A046594872A046531284A046736550
1587A047243218A047970640A048762108A049322652A049381843A049049533A048755546
1580A048722866A048757580A048630536A048415623A048354595A048577513A049039886
1573A049597674A050068644A050318861A050391440A050472745A050672433A050941812
1566A051231403A051528671A051712150A051635110A051410485A051339876A051494875
1559A051608139A051421313A050982759A050595131A050544208A050803350A051017803
1552A050973508A050991423A051499731A052296515A052717350A052542073A052206088
1545A052035470A051847660A051502553A051332986A051704407A052447052A053009499
1538A053079650A052890461A052915463A053323304A053788893A053881224A053572209
1531A053244295A053231302A053510262A053872037A054223509A054575834A054840553
1524A054839372A054523533A054060963A053709162A053651546A053878468A054134984
1517A054108014A053804840A053622804A053836273A054149815A054127372A053960101
1510A054239520A054932818A055246361A054718299A053841588A053365762A053507768
1503A054025920A054611204A055053694A055331341A055618372A056023195A056340478
1496A056266522A055817273A055330160A055108817A055241570A055624672A055943005
1489A055853300A055453005A055272609A055580574A056056400A056289293A056168417
1482A055754013A055215518A054878155A054963661A055361987A055839060A056304452
1475A056748254A057067112A057049525A056584264A055893592A055411663A055343284
1468A055540938A055799227A055976603A055865965A055314608A054489672A053786400
1461A053491494A053636191A054050726A054453055A054611532A054509687A054297399
1454A054124090A054158280A054636337A055550650A056358196A056458204A055989334
1447A055694100A055947730A056362790A056380770A055897659A055262372A054885242
1440A054898957A055123516A055287899A055235008A055000278A054800196A054865424
1433A055220899A055715231A056214812A056655202A056995518A057171385A057041913
1426A056513917A055798702A055261782A054954080A054654843A054383102A054448002
1419A054989450A055775472A056439502A056782771A056905419A057048935A057272443
1412A057453626A057631593A057984968A058467619A058892719A059204424A059214924
1405A058540656A057319691A056328666A055961707A055860977A055758804A055785971
1398A055944580A056074971A056156080A056207921A056192763A056193813A056384970
1391A056590827A056299136A055349190A054183282A053421606A053324420A053563153
1384A053653252A053642687A053929718A054405873A054502009A054075596A053615388
1377A053646756A054230924A054898629A054984003A054215568A053034239A052238440
1370A052293759A052983251A053734558A054225609A054488163A054514805A054188598
1363A053672545A053375933A053347388A053178673A052730343A052443771A052628694
1356A052916775A052799049A052355116A052114151A052463523A053401592A054580099
1349A055455958A055723105A055673036A055827576A056222818A056370074A055863996
1342A054824542A053825379A053470495A053898482A054710359A055460092A056001015
1335A056260222A056128322A055828626A055881911A056316592A056400260A055716740
1328A055088014A055579918A056850034A057508486A057083780A056511621A056497381
1321A056570418A056155293A055570599A055480238A056021292A056793730A057300661
1314A057278284A056875692A056600276A056942299A057932733A059109535A059954485
1307A060228260A059816022A058655495A057120266A056113622A056357146A057691506
1300A059250688A060316522A060942295A061590510A062260381A062417086A061765196
1293A060571070A059306598A058429361A058199159A058383229A058618484A059066093
1286A059984802A060918343A061122099A060593185A060166248A060692143A062130711
1279A063353842A063411655A062936748A063244778A064278589A064796741A064364357
1272A063815822A063775530A063824024A063284742A062134058A061073605A060925824
1265A061718079A062566376A063073307A064414492A067709182A071615666A073741823
1258A073665504A072533589A071124682A069581184A068079094A066795788A065607765
1251A064432604A063536796A063047780A062577204A061883119A061543393A062220942
1244A063437444A063918783A063141489A061841646A061008179A060862958A060791298
1237A060026276A058430477A056745695A056037829A056718002A058034579A058708846
1230A058147974A056852003A055726190A055333966A055629659A056008693A055876333
1223A055413106A055246295A055318217A055035845A054613698A055103961A056803573
1216A058601226A059243666A058649327A057783902A057609741A058149942A058547416
1209A058196534A057514458A057239370A057425080A057636777A057676413A057560984
1202A057170139A056398422A055432990A054612517A054175801A054288737A055157836
1195A056790187A058535275A059245569A058257694A056054431A053870921A052789600
1188A053022886A053794668A054269313A054700188A056060009A058430674A060436545
1181A060655526A059156126A057552191A057580933A059211643A060531828A060110600
1174A058782933A058400684A059502086A061095916A062314781A063206061A063828093
1167A063711679A062777877A061911271A061952088A062731022A063427076A063322475
1160A062340177A061352170A061525347A062846977A063858738A063359551A061819794
1153A060461547A059681431A059264534A059369989A060119262A060677313A059953041
1146A058208937A056873264A056675348A056968088A057062584A057129584A057343315
1139A057353618A057168760A057569055A058972253A060493702A060788083A059717195
1132A058654051A058906697A060493243A062633180A064657425A066202760A067035768
1125A066935956A065714204A063586275A061451457A060191184A059687075A059232051
1118A058596435A057888504A057082205A056421981A056423359A056873198A056796158
1111A055867802A054884455A054575834A054799146A055128635A055522170A056062043
1104A056547122A056617535A056186726A055568106A055046082A054499122A053767172
1097A053199607A053349356A054163005A054942858A055145434A054720268A053808186
1090A052769060A052141909A052001216A051812552A051324061A051149769A051825217
1083A052734149A052794915A051776132A050386190A049457309A049358219A049919682
1076A050664886A051186386A051387911A051316186A050897189A050072779A049148032
1069A048650747A048777989A049208273A049434341A049245480A048917698A048906608
1062A049332102A049846710A050097518A050101259A049964568A049574050A048957137
1055A048550214A048528690A048528493A048291925A048009816A047974446A048214426
1048A048569573A048870908A048985617A048867825A048615246A048405058A048384190
1041A048611177A048997101A049284001A049296075A049233800A049374034A049672877
1034A049791653A049477455A048884231A048375003A048108052A047939272A047652372
1027A047184749A046602025A046073570A045814297A045837921A045926904A045867451
1020A045601747A045227766A044892569A044612822A044225520A043665238A043222420
1013A043248144A043706383A044233919A044506186A044462612A044287008A044196777
1006A044228079A044249997A044118293A043797729A043421058A043169987A043048784
999A042948907A042821272A042693637A042573614A042364805A041966675A041459548
992A041035497A040737573A040446342A040098545A039806789A039666817A039515033
985A039127469A038552816A038067934A037819751A037661996A037350422A036749717
978A035756854A034377609A032897436A031520684A030013410A027975318A025389216
971A022668261A020127044A017886180A016075272A014757974A013793263A012985914
964A012334680A011957287A011927364A012232507A012678868A013073782A013439100
957A013851010A014314171A014774642A015164700A015452256A015686199A015962861
950A016274304A016307837A015742831A014836261A014112712A013855801A013996626
943A014276373A014491810A014590769A014641035A014769720A015076897A015456521
936A015645316A015652141A015669662A015787716A016003613A016265576A016432388
929A016379562A016178693A015963780A015637310A014993295A014190277A013532940
922A013188818A013164734A013253652A013142817A012746787A012204617A011643548
915A011161554A010787442A010432098A010016054A009599354A009360358A009346052
908A009373876A009247816A008910584A008500708A008413562A008797648A009282267
901A009765574A010333009A010979255A011652407A012377597A013152726A013902261
894A014569507A015153675A015632848A015970802A016254027A016586665A016962155
887A017285344A017438572A017398608A017305490A017407992A017840048A018443837
880A018981413A019318777A019419047A019337216A019116989A018738152A018232337
873A017732624A017347160A017031649A016653928A016076125A015140026A013786176
866A012329037A011438151A011666713A012971477A014742290A016317483A017417507
859A018165993A018840982A019578509A020267738A020719874A020871527A020793896
852A020573012A020283684A020121335A020355475A020910178A021497496A022015255
845A022504533A022958967A023261616A023338262A023276315A023237992A023267456
838A023241929A023117050A023082336A023129190A023138640A023065406A022896954
831A022680269A022581180A022748713A023137196A023499299A023553831A023303155
824A023178079A023413989A023709815A023868227A023851296A023629428A023257022
817A022865061A022538657A022357671A022395929A022585117A022776340A022961460
810A023212530A023431249A023479087A023346859A023032332A022478547A021749748
803A021102583A020799015A020811089A020709900A020316823A019798605A019128538
796A018055091A016178496A013252471A009851211A006990021A004809530A002602133
789I99715810I96437329I93719917I91813266I90254282I88617403I86728865
782I84493907I81678783I77920080I72728189I64924473I52389533I34874662
775I16104374H99133904H84295627H71723939H62493467H57098213H54387495
768H53006805H52475200H53381048H56554402H61445875H67364137H74194087
761H81600002H89110716H96389127I02829544I07727185I11129364I13914039
754I17283537I22452854I30382565I40382523I49581890I56561721I62364226
747I67962251I73212874I77539800I80865332I83482670I85587893I87280747
740I88687225I89837122I90649064I91211708I91737145I92324659I92979371
733I93642286I94206242I94627536I94962078I95244187I95397940I95282839
726I94788376I93917177I92719311I90959785I88103385I84054370I79535368
719I75227867I71146237I67012896I62803303I58671407I54235417I48440656
712I40492899I31140566I22929008I18779394I20223146I26242663I33270857
705I37378211I36545466I31536793I25991921I24297886I28690236I38094804
698I48727556I57182769I62729938I66160399I68311492I69745861I70833285
691I71826279I72861271I73886288I74646980I74796533I74043322I72262731
684I69616979I66773638I64896518I64905377I66761432I69707866I72869408
677I75637742I77815609I79475849I80706460I81559679I82150016I82614620
670I82975345I83136776I83012159I82627285I82131576I81693811I81367472
663I81067382I80693270I80239493I79782567I79381944I78974955I78417167
656I77696177I77031622I76652917I76532106I76439973I76233001I75974187
649I75767018I75584785I75324331I74941754I74435348I73762722I72895066
642I71902728I70893198I69898432I68883717I67813617I66662015I65373262
635I63832914I61855720I59179978I55508027I50665180I44820284I38602260
628I33033699I29280573I28154497I29592081I32672515I36179951I39134127
621I41017482I41803438I41803176I41361080I40648489I39694278I38475675
614I36952848I35112935I32989207I30584156I27828552I24709796I21441420
607I18458764I16185286I14758727I14003613I13663231I13578906I13647219
600I13750508I13782794I13684821I13437688I13046580I12497913I11747328
593I10804075I09754712I08617678I07244075I05464010I03349140I01320170
586H99925306H99397245H99439703H99550998H99506309H99374671H99150047
579H98645413H97783400H96749590H95739796H94735581H93648026H92536978
572H91536831H90621534H89578536H88266881H86848000H85660633H84847181
565H84208152H83471151H82593324H81728818H80991357H80331723H79606271
558H78713416H77652963H76479246H75246469H74027275H72935258H72062024
551H71419190H70980178H70722808H70561903H70321791H69857843H69164677
544H68344728H67540595H66865737H66300993H65674695H64809665H63660162
537H62295813H60821349H59335074H57908777H56548759H55137621H53459729
530H51379639H49009303H46620986H44393115H42279033H40089157H37654052
523H34920365H31930162H28776363H25608915H22591216H19774650H17089064
516H14495153H12038196H09720488H07460922H05239154H03170088H01362462
509G99786678G98345354G97002725G95770801G94602793G93387931G92074373
502G90758977G89616168G88728367G87982506G87062156G85505796G82927306
495G79433913G75879031G73534878G73319112G75192624G78220888G81252433
488G83618504G85272378G86457710G87417565G88316522G89231688G90166738
481G91099294G91978302G92741290G93447975G94329936G95570457G97064082
474G98508228G99691460H00598948H01314951H01964282H02683041H03490849
467H04271293H04994449H05824241H06895259H08150479H09487923H10876619
460H12236375H13382465H14253664H15137528H16467951H18341528H20399503
453H22280430H24064630H26126411H28349754H29412307H27483739H22480709
446H17278515H15625494H18734670H24301854H28552133H29186699H27238247
439H26379056H29723356H37127565H45864100H53354274H58667435H62099734
432H64310477H65867034H67104733H68118791H68821670H69084289H68916625
425H68459961H67770535H66737839H65281028H63567701H62065610H61410505
418H62089825H64071482H66719728H69207134H71088979H72458447H73606113
411H74692290H75736207H76728282H77702901H78767423H80001119H81283572
404H82395867H83366549H84503518H85978178H87573058H88972647H90119065
397H91129515H92047306H92864892H93640020H94386012H94974773H95325787
390H95600021H96065873H96829517H97766076H98695810H99562154I00393455
383I01180460I01942596I02849559I04038960I05356062I06512126I07455838
376I08357552I09256903I09896390I09937404I09339980I08535650I08116062
369I08307613I08899065I09657788I10503067I11235081I11501113I11241447
362I10886169I10937813I11543965I12531446I13626614I14561270I15150687
355I15379381I15317105I14880784I13758777I11673700I08689140I05179276
348I01570781H98233962H95508938H93633589H92681543H92662447H93587457
341H95377431H97791406I00487163I03105092I05347203I07060137I08252228
334I09038972I09571167I09991148I10420842I10912089I11314681I11244465
327I10302985I08396859I05881563I03349862I01103420H98845626H96093303
320H92775383H89159604H85415731H81572572H77668975H73708221H69725220
313H65986794H62772557H59901590H56798910H53078793H48828973H44346064
306H39780667H34732621H27763420H17071150H03139115G90487236G84881073
299G88115784G96596524H05208246H11625498H16954539H23320738H31436225
292H40325265H48778116H56363836H63060704H68684126H73090257H76600647
285H79840345H83118498H86125959H88364724H89747841H90596532H91193562
278H91533944H91290617H89728614H85756966H78620824H69072346H59679328
271H53236614H50708456H51076924H52906863H55476690H58744016H62918567
264H67937805H72987690H76800007H78765455H79558826H80391702H81733740
257H82951818H83099664H81760644H79084378H75346149H70786855H65840654
250H61267645H57822419H55627949H53732192H50434156H44985420H39621731
243H38732617H44738222H55264797H65175639H71056693H72811429H71369908
236H66406120H56957519H43876341H30880471H22734535H22518048H30230156
229H43093403H57030032H68613648H76452603H81154690H84219768H86858696
222H89422749H91696687H93552874H95165537H96768686H98396377H99755542
215I00401920I00215619H99592930H99000034H98477420H97795081H97206910
208H97645725H98920763H99714397H99416276H98505506H97988601H98287641
201H98853632H98904554H98285278H97681489H97992866H99495481I01716593
194I03975569I05870145I07305629I08133649I07950301I06631952I05019814
187I04428821I05222258I06349777I06704071I06616531I07273737I08768607
180I09791329I09470043I08303741I06925218I05417287I04191400I03990990
173I04643012I05019748I04483090I03425393I02451627I01803674I01463029
166I01298187I01120679I00809564I00331704H99587615H98471973H97200085
159H96225728H95721882H95558023H95750034H96317140H96795722H96635407
152H95931610H95169540H94564176H94007241H93234541H91952219H90353796
145H89335537H89456085H90026079H90072539H89645799H89187494H88364920
138H86559197H84021720H81797000H80803284H81198132H82274597H83102158
131H83461898H83746502H83997375H83648395H82226825H80006763H78047089
124H77311990H77462067H77242825H76371822H75812066H75907218H75723345
117H74684547H73570480H73375451H74196187H75568739H77047205H78177612
110H78546146H78145457H77400712H76620333H75657788H74312928H72657348
103H70817435H68915509H67469526H67131244H67577278H67338151H65191651
96H61295666H56823584H53164101H51392435H51404313H51362052H49340104
89H45566241H41552137H37749138H33389205H28310775H23767362H20941739
82H19380786H17499596H14229515H09933104H05712552H01847409G97534986
75G92388703G87227786G82749339G78397017G73698015G69851837G68111801
68G67723646G67515821G67801211G69080186G70302661G70087879G68547335
61G66503993G64205185G62132576G61428779G62439294G64268773G65894101
54G66907569G67367121G68223621G71536684G78165896G85234055G88585901
47G87833872G85997896G85369433G85835284G86319248G85816516G83558525
40G80454402G79552951G83130013G89864614G95950409G99007678G99777491
33H00737805H03468210H06401715H07064958H04714374H00940511G98593405
26G98650496G99335329G99189451G99149356H00552357H03054200H05678035
19H08233425H10498438H11373509H10999857H11401924H13688395H16472151
12H17436534H16279878H15442606H17250364H19916000H18760460H12242609
5H02753191G93426845G87835775G91481608H05228261
##END=


$$ === CHEMSPECTRA PEAK TABLE AUTO ===
##TITLE=CHS- 248
##JCAMP-DX=5.00
##DATA TYPE=INFRAREDPEAKTABLE
##DATA CLASS=PEAKTABLE
##$CSTHRESHOLD=0.93
##MAXX=3997.453
##MAXY=0.9752809433714146
##MINX=373.96442
##MINY=0.5654421461010114
##NPOINTS=44
##PEAKTABLE= (XY..XY)
2953.4689955199374, 0.7362225669629017
2920.888762001564, 0.5654421461010114
2852.8952311806097, 0.6711671967176732
1459.0278493510555, 0.774304213031232
1376.8689996090693, 0.834528389354297
1365.5367444722438, 0.8395408420393478
1338.6226385222826, 0.8764166265793608
1259.2968525645033, 0.8430438062843165
1225.3000871540262, 0.829804780071331
1201.219044988272, 0.8169235609343042
1069.481579022674, 0.7024066464797699
1002.9045800938229, 0.740833582325773
994.4053887412038, 0.7506010551645049
966.0747508991399, 0.7824201609276857
896.6646881860825, 0.8248428725292318
885.3324330492569, 0.827358963930656
858.4183270992962, 0.8108063360985385
797.5074557388584, 0.7129083890679446
755.0114989757622, 0.7726994774066089
716.7651378889755, 0.7618218089509357
699.7667551837371, 0.7470940971193356
668.6030535574664, 0.8149340771130156
660.1038622048472, 0.8156440879550771
653.0212027443313, 0.8153651377692271
637.4393519311961, 0.8214937472517323
631.7732243627834, 0.8234808467824759
619.0244373338542, 0.8210960648465484
594.9433951680999, 0.8134363911382066
577.9450124628615, 0.8077844998863228
563.7796935418291, 0.8000346445890094
548.197842728694, 0.7968634981989083
542.5317151602812, 0.7955011154897965
535.4490556997653, 0.7932879352588231
514.2010773182169, 0.787616314797443
504.28535407349455, 0.7733207363257245
467.4555248788115, 0.6971355105326523
454.7067378498823, 0.6916066432230836
436.2918232525408, 0.7133519670224422
427.7926318999216, 0.7080688496747232
410.79424919468283, 0.7253633161298497
405.12812162627006, 0.725868287068053
395.2123983815477, 0.7366321108729341
386.71320702892854, 0.7406674649432229
376.7974837842062, 0.7155921483219989
##END=

##END=

