##TITLE=SG-V3051(8-12)
##JCAMP-DX=4.24
##DATA TYPE=INFRARED SPECTRUM
##DATE=25/9/2018
##SAMPLING PROCEDURE=Diamant-ATR
##ORIGIN=Lara
##XUNITS=1/CM
##YUNITS=TRANSMITTANCE
##RESOLUTION=4
##FIRSTX=3997.453
##LASTX=373.96442
##DELTAX=-1.4165319
##MAXY=1.0123836
##MINY=0.34810796
##XFACTOR=1
##YFACTOR=9.4285568e-010
##NPOINTS=2559
##FIRSTY=1
##XYDATA=(X++(Y..Y))
3997+1060607702+1060198877+1059820523+1059227988+1058473049+1058052782
3989+1058282070+1058791221+1059009194+1058864426+1058635833+1058425952
3980+1058188825+1058042793+1058143941+1058388907+1058519830+1058457245
3972+1058364885+1058411096+1058533232+1058462176+1058051770+1057571067
3963+1057442610+1057655904+1057745483+1057481741+1057154719+1057035428
3955+1057033721+1056997308+1056974676+1057065393+1057203080+1057146564
3946+1056767703+1056372343+1056483858+1057131581+1057646358+1057515309
3938+1056949769+1056430124+1056228967+1056379171+1056660234+1056541639
3929+1055703885+1054635136+1054206334+1054671612+1055289750+1055314784
3921+1054997054+1054992692+1055351450+1055538509+1055304669+1054978785
3912+1054845396+1054742163+1054352808+1053717666+1053259278+1053342535
3904+1053860157+1054273724+1054257730+1054083883+1054081038+1054048734
3895+1053619806+1052935290+1052608205+1052899762+1053243411+1053404741
3887+1053987540+1055183419+1056099561+1056249323+1056212594+1056128009
3878+1055464545+1054386566+1053605013+1053347403+1053381920+1053675121
3870+1054136163+1054205070+1053915283+1054067699+1054749433+1054914366
3861+1054066245+1053041495+1052511103+1052280614+1051923500+1051406194
3853+1051153009+1051361057+1051631690+1051751929+1051789227+1051983619
3844+1052607446+1053516572+1054106198+1054086411+1053820583+1053608932
3836+1053239302+1052640762+1052139387+1051851559+1051433504+1050709415
3827+1050083691+1049954286+1050199189+1050630456+1051200738+1051421998
3819+1051086126+1051257507+1052522546+1053461131+1052654037+1050805884
3810+1049274702+1048806073+1049349298+1049882598+1049425601+1048510027
3802+1048469947+1049506013+1050276883+1050168529+1049745353+1049675056
3793+1050147351+1050749810+1050857406+1050356916+1049830380+1049714061
3785+1049721015+1049511197+1049379263+1049677837+1050005365+1049669366
3776+1048879531+1048411471+1048443523+1048605042+1048732172+1048994650
3768+1049372751+1049735744+1050169983+1050559969+1050535441+1050154621
3759+1049966676+1050112898+1049996389+1049283489+1048303560+1047593631
3751+1047431795+1047378440+1046942874+1046604599+1047135876+1048081162
3742+1047947142+1046921570+1046313231+1046736596+1047857563+1048911709
3734+1049526432+1049694400+1049316109+1048578870+1048048858+1048111380
3725+1048526211+1048779016+1048937691+1049423515+1050000118+1049875960
3717+1048730908+1047056222+1045631055+1044995407+1045134168+1045557597
3708+1046014973+1046486699+1046752464+1046664782+1046449907+1046466849
3700+1046820865+1047416244+1048049806+1048309818+1047912688+1047188852
3691+1046851399+1047183542+1047581810+1047451077+1047052366+1046727809
3683+1046474751+1046166947+1045716398+1045218310+1045016584+1045266482
3674+1045373761+1045132019+1045506644+1047100727+1048878836+1049314844
3666+1048451930+1047089158+1045867171+1045156421+1044876685+1044717314
3657+1044598466+1044544415+1044409826+1044225548+1044361275+1045201874
3649+1046651885+1047650463+1047274258+1045771966+1043897578+1042279219
3640+1041116971+1040248115+1039580226+1039342972+1039777463+1040726606
3632+1041850038+1043119880+1044478986+1045208069+1045031187+1044483158
3623+1043682134+1042566730+1041741241+1042088745+1043115076+1043304854
3615+1042336683+1041136316+1040672365+1041093075+1041797125+1042154049
3606+1042040068+1041751356+1041584273+1041718672+1042157336+1042570081
3598+1042549282+1042154428+1041887905+1041943030+1041784292+1040938509
3589+1039734096+1038935348+1038751828+1038688675+1038599412+1038685767
3581+1038878895+1038940152+1038845959+1038758656+1038814161+1039036685
3572+1039278680+1039333237+1039185182+1038966008+1038725151+1038555223
3564+1038699295+1039151487+1039609179+1039834296+1039797250+1039528388
3555+1039115327+1038797724+1038787862+1038983393+1039061592+1038864987
3547+1038537649+1038270999+1037968252+1037434699+1036839573+1036562619
3538+1036721610+1037167986+1037759888+1038310004+1038453317+1037949224
3530+1037025115+1036187931+1035691170+1035402647+1035209013+1035187899
3521+1035358395+1035634528+1036000049+1036375496+1036436753+1035915275
3513+1034973213+1034047651+1033457772+1033238092+1033215713+1033220518
3504+1033199909+1033105905+1032859548+1032569761+1032529934+1032860117
3496+1033321160+1033552471+1033440197+1033189668+1033039780+1032999700
3488+1032965310+1032985413+1033163180+1033359280+1033291448+1032962529
3479+1032701821+1032607312+1032293755+1031524339+1030787227+1030693096
3471+1031067532+1031310475+1031327923+1031462639+1031781759+1031994485
3462+1031897826+1031592044+1031344359+1031333739+1031497345+1031637877
3454+1031613981+1031367054+1030918086+1030427332+1030109918+1030022742
3445+1030020213+1029914704+1029637939+1029292457+1029079985+1029162230
3437+1029563596+1030105367+1030400211+1030092534+1029227470+1028310063
3428+1027913944+1028232875+1028970745+1029619732+1029859894+1029724610
3420+1029428690+1029121581+1028868586+1028789755+1028997739+1029351123
3411+1029518459+1029439437+1029491528+1029970651+1030546875+1030518554
3403+1029650519+1028528162+1027967679+1028258162+1029031623+1029645019
3394+1029671760+1029265084+1029028020+1029321980+1029912491+1030458181
3386+1030893242+1031100341+1030783750+1029991829+1029283923+1029078783
3377+1029146426+1028934206+1028142411+1026770220+1024817632+1022341479
3369+1019802236+1017974502+1017326906+1017599624+1017982215+1017679215
3360+1016537071+1015209195+1014457037+1014323775+1014306138+1014241783
3352+1014543455+1015536406+1016950953+1018222566+1019098882+1019759249
3343+1020382127+1020860997+1021086619+1021249909+1021607275+1022113139
3335+1022550159+1022862894+1023121958+1023344040+1023567829+1023909897
3326+1024390790+1024871493+1025218681+1025393856+1025438487+1025494498
3318+1025704252+1026026660+1026271563+1026281488+1025963569+1025261985
3309+1024257212+1023244094+1022620267+1022601049+1022983513+1023290558
3301+1023272668+1023152935+1023289800+1023719866+1024126732+1024240965
3292+1024241407+1024616348+1025498733+1026361458+1026588660+1026148416
3284+1025474521+1024896274+1024451225+1024144938+1024064905+1024174081
3275+1024234580+1024076158+1023816209+1023779606+1024223327+1025037122
3267+1025724924+1025926397+1025891691+1026065159+1026313539+1026044487
3258+1025104321+1024168455+1024012308+1024576964+1025057857+1024897475
3250+1024288757+1023707349+1023434757+1023563720+1023977349+1024337750
3241+1024422651+1024335727+1024223580+1024108588+1024078939+1024284395
3233+1024662244+1024989962+1025224750+1025500946+1025791555+1025905788
3224+1025819813+1025632690+1025243462+1024556166+1023966223+1024052515
3216+1024786466+1025568209+1025975896+1026014143+1025765383+1025284174
3207+1024795063+1024586257+1024702893+1024969795+1025225003+1025372362
3199+1025343345+1025197567+1025115195+1025187705+1025384437+1025689839
3190+1026023625+1026153473+1025986453+1025788457+1025831129+1026009528
3182+1026078182+1026065917+1026179076+1026424991+1026600166+1026630952
3173+1026659147+1026748599+1026760484+1026598648+1026371636+1026228638
3165+1026190898+1026170858+1026082227+1025948270+1025888467+1025896938
3156+1025730867+1025246560+1024725840+1024604084+1024942675+1025422114
3148+1025783210+1026057257+1026402612+1026878384+1027350047+1027548928
3139+1027315594+1026813650+1026439468+1026504708+1026968279+1027403529
3131+1027322295+1026686141+1026029631+1025915714+1026317142+1026672928
3122+1026505909+1025792883+1024781155+1023771451+1023149142+1023195796
3114+1023653425+1023892702+1023723216+1023592610+1023833467+1024211885
3105+1024333894+1024017050+1023171647+1021757543+1019980445+1018307151
3097+1017225821+1016973964+1017402008+1018154039+1019018028+1019963946
3088+1020898105+1021665119+1022274785+1022812763+1023210083+1023432544
3080+1023743193+1024351342+1024977634+1025226078+1025141177+1024906831
3071+1024277757+1022897221+1021007029+1019345872+1018442246+1018359115
3063+1018958098+1019985882+1020936162+1021233915+1020677035+1019484886
3054+1017910337+1016084373+1014200755+1012510897+1011122965+1010018498
3046+1009181693+1008571458+1008171356+1008153719+1008689231+1009502899
3037+1009981832+1009860771+1009534318+1009553536+1009940931+1010028044
3029+1008886532+1005947187+1001370456+995946677+990658121+986381102+983875300
3019+983585576+985098679+986894994+986911620+983618323+977033435+969156895
3009+963193748+961725024+965227507+972135497+980100099+987257923+992777476
2999+996657554+999114552+1000146698+999676995+997900087+995228404+992003761
2989+988505261+985112776+982232097+980172925+979194640+979437457+980662668
2979+982230896+983458130+983939908+983549290+982222615+979774151+975915630
2969+970491851+963744685+956437921+949786972+945053778+942759312+942061457
2959+941111873+938326083+933494523+927870536+923250564+920572433+918924362
2949+915861744+908911777+897020190+881052740+863532045+847753172+836254732
2939+829544168+826307893+824889111+824468021+824844037+825305522+823999266
2929+818531995+807244700+790332154+770400357+752057270+740295657+738346103
2919+746323538+761571197+780341379+799515266+817306593+832982802+846407595
2910+857798250+867469588+875602853+882353875+888017689+892805945+896514263
2900+898580895+898476270+896107713+892063713+887530664+883842323+882006181
2890+882526015+885348535+889770005+894620973+898868533+902058786+904109424
2880+904931246+904576598+903615761+902954699+903173051+904183704+905426869
2870+906176940+905821597+904169290+901404741+897565754+892314495+885483377
2860+877556579+869180813+860344700+850481940+839485444+828374146+818815713
2850+812060898+808384568+807432075+808876461+812683018+818893217+827281500
2840+837245344+848029684+859008985+869681240+879553229+888278649+895853201
2830+902454904+908190406+913175331+917645099+921719950+925225594+927984327
2820+930147554+932056080+933903475+935661670+937198226+938364772+939075965
2810+939370367+939302472+938767844+937576580+935768570+933743156+932011638
2800+930902051+930509599+930770306+931465821+932258122+932893391+933419927
2791+934154447+935408169+937259926+939541116+941953419+944203823+946094964
2781+947501672+948267105+948196998+947170794+945164218+942152996+938112662
2771+933190828+927928443+923350636+920681293+920649052+922915260+926275251
2761+929493826+931961001+933652186+934675672+934995108+934581352+933710662
2751+932991694+933054215+934199773+936273991+938799010+941272128+943387121
2741+944978549+945870986+945935278+945216815+943891404+942245672+940776126
2731+940011958+940092686+940779730+941922886+943548704+945485741+947340785
2721+948921087+950386397+951974917+953771233+955643282+957262083+958313953
2711+958825127+959157523+959639301+960309845+961029130+961660037+962085425
2701+962229876+962166786+962060518+961964301+961834010+961733748+961804235
2691+962059190+962411183+962793773+963085710+963107773+962900104+962812485
2681+963117066+963674451+964150919+964456005+964768487+965166945+965497697
2672+965703848+966003877+966549188+967137613+967465520+967445101+967164733
2662+966790551+966562590+966639146+966888601+967037034+967015604+967031092
2652+967294960+967769405+968214454+968486098+968695852+968986335+969260129
2642+969291421+969014530+968582188+968205603+968046233+968196500+968658997
2632+969309880+969942494+970435525+970871976+971410649+972053188+972619741
2622+972946384+973033370+973001888+972996515+973126552+973404202+973709035
2612+973921887+974093079+974335896+974607161+974809266+975032992+975449340
2602+976023794+976558295+976932793+977132244+977137491+976997338+976950621
2592+977215311+977616044+977683940+977244580+976637443+976262123+976223624
2582+976495015+977029389+977592085+977831488+977693422+977527540+977669084
2572+978098771+978626254+979184082+979720227+979989595+979791662+979317028
2563+978947650+978771085+978586870+978332990+978228176+978480160+979037103
2553+979650246+980097697+980343611+980525677+980785878+981114924+981337764
2543+981263927+980876848+980377559+980040106+980021267+980263958+980553176
2533+980703886+980697122+980627646+980646485+980946576+981536329+982050790
2523+982149978+982005717+981998573+982124754+982112427+981886552+981616489
2513+981489801+981580644+981827002+982123553+982363209+982357899+982001355
2503+981547329+981324299+981268731+981175991+981144004+981348069+981674964
2493+981860191+981724969+981291236+980883486+980909152+981398516+982007297
2483+982406007+982384261+981814042+980898468+980242337+980306945+980927232
2473+981586524+982011280+982277740+982507218+982716720+982896636+983040075
2463+983150453+983269238+983359575+983246606+982922555+982773994+983141160
2453+983787365+984215978+984325090+984258523+983868789+983000249+982130697
2444+982013619+982706036+983499032+983780728+983591519+983397379+983591519
2434+984171220+984752122+984858327+984262695+983180544+982218063+981913736
2424+982164834+982295377+981862466+981164676+980782718+980868819+981105378
2414+981152538+980936651+980659760+980677398+981215565+982112111+982927739
2404+983306725+983157849+982609820+981947304+981484807+981330684+981304386
2394+981204439+981096844+981167710+981332896+981282449+980963266+980731701
2384+980906876+981388717+981838950+982063244+982084738+981964625+981752911
2374+981600558+981706699+982110214+982658939+983083569+982988870+982136892
2364+981018012+980663553+981558835+983073264+984112491+984113376+983362925
2354+982475420+981700694+980901187+980051422+979412929+979296103+979766123
2344+980465557+980921669+981130665+981427343+981896983+982264464+982287665
2334+982038589+981732492+981395608+980803706+979692032+978028473+976246318
2325+975186673+975445357+976643196+977770926+978363208+978773677+979382584
2315+980112742+980717730+981187876+981667758+982041055+981950654+981382901
2305+980839297+980641048+980466632+979918792+979191605+978777849+978727908
2295+978601157+978154022+977783443+978029168+978756039+979217145+979036407
2285+978652616+978544578+978543819+978306565+977921952+977569896+977091911
2275+976395321+975910003+976267370+977721554+979895275+981953499+983263927
2265+984033217+984907257+985879221+986091567+984894803+982844734+981433917
2255+981683562+983050443+984112491+984245500+983998763+984046429+984593194
2245+985582859+986672912+987247682+987138696+986955745+987177005+987480953
2235+987451684+987213861+986876218+986243731+985559089+985511170+986054901
2225+986295758+985862784+985356162+985344088+985875428+986787904+987654042
2215+987787873+987036600+986227547+986289690+987134840+987747098+987379869
2206+986316999+985267974+984557793+984341653+984875016+985955397+986764261
2196+986805036+986396274+985881180+985029835+983645000+982298096+981953120
2186+982996961+985011123+987246734+988919270+989626859+989815752+990012674
2176+989569774+987365582+983739194+980439259+978840877+979076360+980301066
2166+981201342+981059103+980973633+983335742+989052974+995410280+998617349
2156+998492179+997518761+996775454+995679269+994220723+993264690+993129848
2146+993301799+993228151+992579037+991331699+990051679+989480575+989700571
2136+990239118+990797831+991243006+991224483+990459619+989205454+988109774
2126+987635393+987701771+987879854+987912474+987836044+987590951+987009923
2116+986274391+985762711+985398454+984783288+983919300+983243255+983065615
2106+983370069+983990039+984748835+985543348+986340263+987033313+987394030
2096+987229096+986547489+985640639+985105822+985546951+986938045+988386413
2087+988858708+988021334+986200806+983997626+982227166+981660930+982419852
2077+983880674+985225113+986018488+986549575+987524700+989024653+990179567
2067+990410183+990320288+990733476+991521035+992000158+991916584+991397256
2057+990297404+988398930+986289374+985130603+985360145+986455571+987876314
2047+989252551+989929417+989605619+989042796+988992918+989036538+988562346
2037+988186836+988872363+990123051+990586812+990285519+990478900+991407623
2027+991974555+991795713+992105983+994090116+997080351+999138890+999262164
2017+998330027+997702787+997659672+997674149+997434493+997168602+997347506
2007+998163134+999133011+999291939+998053010+996066917+994779120+994703828
1997+994868193+994567027+994433133+994840694+994738092+993400481+992031008
1987+992263647+994165155+996397353+997712648+997789268+996959037+995890920
1977+995737113+997535893+1000734681+1003260206+1003507258+1001516234+998373900
1968+995449728+993929545+994007175+994792332+995534818+996297912+997252617
1958+998239816+999244590+1000279328+1000739801+999975190+998509943+997689827
1948+998095744+999150775+1000236087+1001266463+1002089551+1002332810+1002066224
1938+1001651456+1001084904+1000260615+999583560+999557135+999925375+999797740
1928+998560770+996448685+994216298+992311502+990497360+988414607+986090745
1918+983594743+980793781+977772507+975014280+972948470+971482970+970043073
1908+968228425+966213125+964229877+962116465+959747023+957614329+956625929
1898+957317841+959392375+962017720+964629536+967424808+970904912+974895621
1888+978328312+980565883+982246195+984160346+986195622+987863544+989226442
1878+990728102+992545848+994416064+995865570+996693588+997283594+998164777
1868+999161206+999466924+998907832+998219081+998133042+998651676+999179729
1858+999411103+999620984+999964949+1000145055+999900847+999420460+999196671
1849+999563141+1000411704+1001480454+1002617035+1003487471+1003770874
1840+1003708415+1003727507+1003924934+1004158395+1004372828+1004682086
1832+1005288970+1006151884+1006771539+1006965426+1007228156+1007752163
1823+1008053203+1007886373+1007715561+1008106748+1008986605+1009560047
1815+1009280501+1008582647+1008215355+1008320675+1008595543+1008830521
1806+1008865670+1008645674+1008398811+1008321497+1008280469+1008093599
1798+1007795404+1007531852+1007465726+1007674596+1008017675+1008208212
1789+1008108202+1007892063+1007924367+1008353422+1008916181+1009450871
1781+1010097835+1010842028+1011511308+1012094675+1012693721+1013472683
1772+1014500404+1015393662+1015872658+1016160676+1016346914+1016404378
1764+1016690183+1017542097+1018598139+1019440255+1020266945+1021200347
1755+1022013825+1022672548+1023464658+1024725904+1026392434+1027894347
1747+1029022457+1030022110+1030915621+1031802747+1033325332+1035651786
1738+1037891570+1039724993+1042044430+1045428381+1048737419+1051004955
1730+1052661054+1054172513+1055578526+1056786416+1057885888+1058972907
1721+1059866798+1060448206+1060607702+1059392985+1055150293+1048453384
1713+1039681120+1028436181+1015100840+1000301138+983897806+967148297+953177750
1703+941410890+925697573+900001321+862693533+806949286+727726192+644379380
1693+576708460+520175011+466542059+419511979+386098178+369205988+373269080
1683+396576578+426631020+457642033+488779985+520347182+553735792+586383465
1673+613289314+635955885+659083498+681761448+699762087+713685411+726657822
1663+740192992+752919236+762675285+769513673+774485133+778301299+782385442
1653+788791046+795416266+800078025+805000807+812141753+820650907+828036440
1643+834078165+839730157+845354777+850916811+856779379+863696915+870592894
1633+875411368+878746073+881939803+885349040+888784134+892210945+895756226
1623+899416372+902738370+905156552+906949517+909130698+912041595+914567057
1613+916148813+917228815+918108734+918893006+919556912+919873504+919680628
1604+918818157+916706009+912409203+904974803+893913320+880449143+868393001
1594+862404251+864700045+873835428+886122755+898038239+907948348+915805986
1584+921911751+926328417+928799702+928748180+924711954+913987671+897217806
1574+880940909+869200600+863294538+865396824+874755806+886488782+897525927
1564+906877702+914081233+920266525+928256413+936832135+939432573+936875060
1554+932129285+926151915+918981510+910610043+901710017+892824152+883143394
1544+871132263+854427195+826383691+784252245+746133128+722522219+707235808
1534+695954772+690044601+691142430+697955974+710266501+729077458+752023701
1524+774492213+795857459+817365891+836760532+852820089+867908189+882504522
1514+894830980+904742796+913295064+921022602+929101500+939656108+948959396
1504+949065601+937446922+912119352+872917199+829644937+803784130+808508347
1494+830901883+853867977+873321030+891481609+908348323+921389767+930465916
1485+937219720+942853252+947922066+952472752+956460237+960123291+963689623
1475+967178514+970487616+973032485+974248151+974457084+973930232+971769091
1465+965441876+952251366+931244182+900441249+852796889+784578508+723574785
1455+699799828+700431431+706281861+709217286+710158463+716305382+733342656
1445+758844895+785334269+804936389+812033904+804367308+781529862+749383880
1435+724093166+716034876+724984274+749350691+783636636+817149120+843732561
1425+864058897+879460174+889746678+894273342+891386151+879928044+862945327
1415+844460444+826730184+811877063+801367275+794712975+790733140+789629874
1405+793230660+802874625+817760998+836418907+857030035+876172503+891038457
1395+901892082+909972561+915896260+920522681+924909634+929490981+933828942
1385+937295707+939843610+941592639+941991982+939555783+931783804+913891645
1375+878044299+820259087+751985265+694338752+661860501+658657351+678813759
1366+710505652+745000846+778117084+806435584+828384766+845610237+860186088
1356+872881987+883667527+892512554+899698384+905672151+910813791+915415684
1346+919683031+923676521+927436108+931110667+934811905+938437661+941800118
1336+944846678+947629055+950091046+951824713+952070438+950209958+946224939
1326+940248769+931893928+921311884+911415619+907490972+912814804+925024121
1316+938555940+949728180+957925484+963849120+968298722+971852411+974761917
1306+977052274+978773993+980151558+981475009+982859464+984213322+985408126
1296+986279259+986591868+986283431+985635708+985038622+984701485+984565442
1286+984302206+983439165+981646264+978964024+975828769+972877098+970521311
1276+968550137+966176080+962508285+956934302+949074072+938617893+925541996
1266+910635329+895689216+882923588+874042275+869633068+869177209+871517635
1256+875390443+879624665+883080872+884548648+882556296+875432609+862521835
1247+846239690+832415807+826993926+831455223+841711320+851346371+855334362
1237+851265769+838756171+818729485+793143294+764833834+737143207+713404916
1227+696517025+688455448+689574455+698320863+711992013+727980072+744479620
1217+760413249+775038219+787739808+798100024+805955070+811271758+814056600
1207+814496149+813077683+810302703+806189353+800346066+792750020+784205211
1197+775863835+768703292+763808642+762741852+767001487+776927969+791029439
1187+806222036+819050691+827234404+830139295+827840972+820356252+808331971
1177+794272668+782519652+777537699+781589981+793142156+806728405+814811286
1167+812042186+799907528+786999599+782955219+791087535+806646349+821552383
1157+830547804+834019184+836430665+842333123+853242822+867556322+882684122
1147+896903744+909661596+921002499+931165477+940476857+949179518+957227187
1137+964328875+970156421+974479146+977227512+978276980+976641742+969424303
1128+951310442+915387994+856451029+776728962+689785853+616731930+575314143
1118+570656114+595140620+635549778+680229064+722025965+757810789+787102643
1108+810896754+830527385+846762622+859567129+868158212+871039081+866910053
1098+856866998+845688500+839711635+842615135+853301425+867659745+881788777
1088+893662854+902869166+909766094+914970698+919177420+923018177+926861021
1078+930738255+934537290+938199838+941693218+944915712+947736587+950055013
1068+951760485+952708616+952767787+951857081+950002163+947440857+944588626
1058+941818261+939363476+937452928+936375581+936434436+937955188+941144366
1048+945719834+950888784+955882685+960382039+964393420+967993636+971283456
1038+974378378+977292878+979913166+982251315+984679233+987633117+991064544
1028+994458546+997385500+999813733+1001972220+1004080259+1006106305+1007717836
1018+1008512729+1008306262+1007412118+1006837727+1007774226+1010483397
1010+1014024126+1017329561+1020117247+1022612871+1024904302+1026804989
1001+1028088550+1028626149+1028163146+1026006809+1021474203+1015233533
993+1009933028+1008540418+1011586410+1016531255+1020310755+1022081025
984+1022950197+1023432228+1021669797+1013632496+994588078+961733938+917701552
975+872105175+837770679+823226816+828144414+845749252+868672800+892282950
965+914316021+933780011+950665121+965428664+977940917+986752060+988353034
955+976628087+946327540+901762297+860565454+841585012+846589534+859250411
945+864626144+864259485+868961007+882059663+894694431+895358401+880857146
935+859154131+843434240+842633468+856205431+877068290+898379990+917161804
925+933318337+947429352+959779896+970418393+979327016+986469985+991934032
915+996157317+999758987+1002802387+1004281985+1002625190+996818189+987084519
905+974627833+960698251+945706179+929155108+910245722+888291735+863187385
895+836953155+815110493+804849718+810261422+829219296+854985656+880363041
885+900479811+912918480+916389860+909648889+891544763+861967737+822972809
875+779590739+739594895+711397456+700699408+708041384+728988891+756745200
866+785300385+811201082+833388909+852058133+867816966+881442284+893764001
856+905454368+916802857+927551732+936978673+944254840+948729539+949962526
846+947753150+942357377+934790980+926910015+920940040+918613776+920549738
836+926176000+934035156+942355291+949717496+955551617+960397148+965704291
826+972802375+981756325+991461927+1000762623+1009085603+1016099924+1021145474
816+1023112160+1020794809+1013018088+998060216+973489229+937385981+889359410
806+830130255+762092423+691981827+630983414+589476300+572109413+578453127
796+605827099+649495986+701865828+754206653+799848989+835772575+862110354
786+880647644+893034791+899532376+898908675+889092064+867840483+833412615
776+785948361+729615499+673524886+629017550+604282325+600664913+613578659
766+636393537+663852283+693136994+722828696+751494764+777590422+800446834
756+820598626+838789992+855157606+869696665+882843745+895056349+906338839
747+916583620+925929770+934590392+942624280+949805558+955524876+959009468
737+959811947+958177088+955219411+952857049+953179014+957112701+963017941
727+966154839+958722210+930160198+870990214+782843514+685335682+604996679
717+554733358+530457090+525414953+538566332+569266411+611720960+657479869
707+700320168+737684030+769378009+796092057+818676003+838010588+854964921
697+870159667+883818174+895972239+906788313+916710118+926222022+935266499
687+942997324+948395057+950963696+950720247+947872883+942571114+934699126
677+923486553+906895150+882887934+852768504+820175071+786122334+751832027
667+728096391+722666924+727836442+733822727+733337472+720796834+694299494
657+657678623+620690967+595369087+589745985+604100007+632458965+667085461
647+701894591+733668287+761549956+785699664+806278362+823216954+836755095
637+847613525+855773847+860271052+861912485+864684683+872228322+884060169
628+896914364+908573060+918827134+927764331+935105296+941080011+946424831
618+951415698+955881484+959958547+963975365+967943126+971743235+975554786
608+979755565+984341274+988725446+992589215+996546608+1001263745+1006465062
598+1011326018+1015268303+1018549715+1022507424+1028257909+1034854365
589+1038678813+1032237997+1004534916+949521081+874862011+796502842+728782360
579+685315895+679503521+713334113+769473151+823898877+864929081+894106954
569+915883111+932778273+945985788+956311866+964602036+971738051+978297083
560+984341337+989467489+993404463+996738788+1000427256+1004594024+1008461270
550+1011262548+1012610970+1012137473+1009469267+1004968776+999981196+995782250
540+992885450+991950279+994444765+1001425897+1012255500+1025079351+1037902443
530+1049004448+1056969809+1060607702+1058997246+1048684190+1021510616+963984721
520+865455932+734420571+607154722+526637984+509972522+544320167+604630967
510+668815335+724677987+769333441+804754324+834139739+859718660+881350177
500+897445641+907668486+913163067+914208868+909288299+897899730+884530884
490+877498798+881980325+896021043+913590605+928671750+934839152+923914154
480+891696927+847290422+812017278+803318789+821891986+855877713+891260728
470+919604641+940013348+955123637+967402682+977729519+985425511+990010714
460+992900117+996163133+999219303+998096187+988965545+970276597+943837796
450+916854695+899408407+898159995+912017256+933401151+955076856+973841349
441+988632896+999521038+1007639384+1013497148+1016168325+1015216085+1012272885
431+1010297602+1011940742+1017845097+1026030895+1033188151+1037266542
422+1039191124+1041419276+1045349170+1050146529+1054578936+1058406987
414+1060607702+1060613266+1057540786+1054430692+1053347087+1052504529
405+1048547957+1040423100+1028981113+1014160169+995933718+979291741+972572960
395+976496026+985992759+997687551+1009963373+1022421639+1035940309+1050912721
385+1064593670+1072314633+1073741823+1073095617+1072992700+1072783830
377+1070573506+1065782532+1060607702
##END=
