##TITLE=YM-286
##JCAMP-DX=4.24
##DATA TYPE=INFRARED SPECTRUM
##DATE=17/3/2020
##SAMPLING PROCEDURE=Diamant-ATR
##ORIGIN=Lara
##XUNITS=1/CM
##YUNITS=TRANSMITTANCE
##RESOLUTION=4
##FIRSTX=3997.453
##LASTX=373.96442
##DELTAX=-1.4165319
##MAXY=0.94918132
##MINY=0.36643139
##XFACTOR=1
##YFACTOR=8.8399399e-010
##NPOINTS=2559
##FIRSTY=0.92308331
##XYDATA=(X++(Y..Y))
3997+1044218983+1044217837+1044075230+1043641812+1043228555+1043108064
3989+1043218171+1043368870+1043556450+1043975101+1044715984+1045496379
3980+1045819015+1045514247+1044992568+1044781590+1044926355+1045103417
3972+1045139288+1045033361+1044696228+1044140364+1043710452+1043697372
3963+1043949345+1044228423+1044668111+1045474263+1046378857+1046826974
3955+1046687671+1046443789+1046547086+1046830682+1046793598+1046369417
3946+1046026082+1046090946+1046413649+1046660161+1046628740+1046306104
3938+1045772018+1045109823+1044373592+1043688943+1043330504+1043473111
3929+1043888998+1044182977+1044188978+1044000319+1043800399+1043703238
3921+1043721038+1043892302+1044337384+1045052173+1045763523+1046196468
3912+1046325186+1046251556+1046002954+1045517753+1044799458+1044054800
3904+1043649903+1043801074+1044340756+1044938761+1045384518+1045663934
3895+1045873967+1046036937+1046029588+1045766017+1045396925+1045114677
3887+1044962024+1044960338+1045144075+1045454709+1045764736+1045908625
3878+1045786245+1045485253+1045142187+1044776601+1044392067+1044209072
3870+1044492465+1045035114+1045379124+1045488085+1045569537+1045613836
3861+1045481612+1045159718+1044652334+1043931207+1043169961+1042927293
3853+1043722994+1045028304+1046005988+1046488223+1046424033+1045803439
3844+1044988252+1044572635+1044740190+1045103215+1045302528+1045372651
3836+1045454305+1045551736+1045620174+1045565558+1045297538+1044937143
3827+1044742146+1044777882+1044914218+1045161404+1045633861+1046036533
3819+1045825151+1045039901+1044247909+1044018322+1044405215+1044966743
3810+1045302393+1045378854+1045513101+1045880845+1046145696+1046025138
3802+1045747273+1045716257+1045950227+1046243397+1046536905+1046824749
3793+1047004912+1046893996+1046386611+1045726708+1045456530+1045799731
3785+1046281628+1046274683+1045723808+1044977734+1044327675+1043996948
3776+1044153579+1044693396+1045235910+1045445337+1045414860+1045657191
3768+1046387825+1047005047+1046772965+1045804788+1045021494+1045184531
3759+1046229979+1047297746+1047552214+1046880511+1045724415+1044946650
3751+1045470285+1046843291+1047498407+1047127696+1046607366+1046681467
3742+1047173209+1047596311+1047781936+1047622944+1047153251+1046880780
3734+1047285744+1047926903+1048055822+1047605818+1047036401+1046765211
3725+1046827648+1046899053+1046755232+1046611546+1046855765+1047512971
3717+1048102616+1048117922+1047546550+1046983538+1047307253+1048652480
3708+1049872630+1049890228+1048743977+1047253379+1046250477+1046104701
3700+1046656722+1047448916+1047983878+1047969449+1047517219+1047003294
3691+1046726239+1046750108+1046944768+1047201259+1047565699+1047971000
3683+1048073623+1047512971+1046390320+1045413512+1045424570+1046584104
3674+1047743772+1047978821+1048006466+1048684642+1049521608+1049343332
3666+1048233087+1047162758+1046834998+1047310018+1048128306+1048693947
3657+1048660975+1048113944+1047365172+1046585722+1045903972+1045600822
3649+1045745385+1046073752+1046685580+1047687943+1048670685+1049143749
3640+1049040115+1048654300+1048317572+1048300850+1048724019+1049342118
3632+1049721864+1049685454+1049407050+1049160808+1049004851+1048876875
3623+1048829811+1049005592+1049416894+1049726045+1049515135+1048933244
3615+1048520661+1048557678+1048826845+1048872492+1048536371+1048141993
3606+1048023862+1048044225+1047936949+1047797174+1047908428+1048244684
3598+1048481553+1048486678+1048455459+1048570489+1048713770+1048661717
3589+1048490791+1048570894+1048928389+1048995344+1048550531+1048006062
3581+1047740940+1047797916+1048088120+1048514120+1048909982+1049141255
3572+1049220211+1049226279+1049244485+1049398284+1049714110+1049925762
3564+1049727056+1049123117+1048428961+1048079084+1048231334+1048589099
3555+1048813899+1048926636+1049098843+1049266196+1049219604+1048886989
3547+1048331192+1047736086+1047463750+1047731770+1048275296+1048644321
3538+1048688485+1048546755+1048343936+1048148601+1048070656+1048179685
3530+1048386549+1048509805+1048455527+1048332271+1048329035+1048443795
3521+1048495241+1048481486+1048657469+1049127432+1049620657+1049816868
3513+1049691388+1049415681+1049094933+1048715119+1048234233+1047650454
3504+1047049009+1046632179+1046585250+1046831154+1047093106+1047250075
3496+1047446354+1047758067+1047946254+1047776744+1047447028+1047427272
3488+1047890627+1048500500+1048862783+1048984555+1049099046+1049235989
3479+1049279277+1049314810+1049524709+1049813969+1049849098+1049450473
3471+1048778567+1048199778+1048028110+1048285073+1048715658+1049096955
3462+1049427278+1049720381+1049794887+1049489715+1049059129+1049026832
3454+1049499424+1049927718+1049784908+1049172203+1048560847+1048311706
3445+1048555183+1049150559+1049634075+1049567458+1049039373+1048560240
3437+1048466787+1048652817+1048817135+1048759553+1048448177+1048008691
3428+1047691989+1047696978+1047980305+1048358095+1048766565+1049243810
3420+1049730495+1050124266+1050430787+1050616142+1050512440+1050155619
3411+1049973365+1050230328+1050506709+1050194861+1049346299+1048575883
3403+1048277521+1048374210+1048668595+1049007143+1049236124+1049349131
3394+1049531654+1049801091+1049830354+1049431593+1048959742+1048869189
3386+1049075311+1049183059+1049185352+1049406376+1049843232+1050090418
3377+1049939922+1049654977+1049591192+1049815183+1050115568+1050218730
3369+1049993121+1049558490+1049241990+1049304157+1049615263+1049686331
3360+1049170585+1048321415+1047819223+1048109022+1048987792+1049897982
3352+1050503203+1050820647+1050960422+1051026365+1051114357+1051139777
3343+1050903379+1050519722+1050350617+1050393635+1050275166+1049923470
3335+1049643447+1049517427+1049314810+1049004446+1048868919+1049071064
3326+1049409882+1049631378+1049807429+1050165801+1050648035+1050959950
3318+1050965547+1050689570+1050143482+1049514865+1049200657+1049296066
3309+1049408129+1049260734+1049074233+1049100124+1049172406+1049031552
3301+1048839319+1049009975+1049607104+1050245162+1050569686+1050551008
3292+1050359652+1050215359+1050279751+1050509339+1050687008+1050654104
3284+1050458297+1050325062+1050508058+1051053538+1051725848+1052196553
3275+1052212600+1051650128+1050636505+1049563345+1048824282+1048615260
3267+1048971609+1049764815+1050619311+1051061899+1050877892+1050266738
3258+1049600160+1049115565+1048931693+1049157774+1049715594+1050208886
3250+1050299035+1050141392+1050209223+1050741623+1051472257+1051867107
3241+1051604548+1050848494+1050083877+1049738788+1049908299+1050366125
3233+1050893131+1051544943+1052398158+1053184891+1053575560+1053671845
3224+1053754443+1053716279+1053216784+1052304233+1051438341+1050875600
3216+1050413526+1049906815+1049697321+1050195266+1051203427+1052022929
3207+1052175246+1051751133+1051107749+1050490662+1049981591+1049672036
3199+1049729888+1050201941+1050840133+1051281103+1051365588+1051177873
3190+1050873914+1050604410+1050532601+1050764953+1051240917+1051729287
3182+1051952604+1051759899+1051285418+1050952736+1051151914+1051800759
3173+1052349139+1052361208+1052000409+1051773384+1051893201+1052115169
3165+1052145713+1051957661+1051672514+1051363565+1051103569+1051040660
3156+1051224869+1051439825+1051440567+1051338011+1051481629+1051925700
3148+1052304031+1052333833+1052155895+1052025222+1051950985+1051847553
3139+1051794893+1051891852+1052053676+1052201138+1052420476+1052707983
3131+1052845668+1052779388+1052777297+1052942964+1052920511+1052398023
3122+1051640419+1051241928+1051500981+1052226018+1053014369+1053539352
3114+1053644740+1053374090+1052956989+1052637859+1052459314+1052271801
3105+1051941006+1051464031+1050925698+1050415144+1049971680+1049538801
3097+1048945650+1048002488+1046742758+1045544049+1044817866+1044577625
3088+1044496915+1044368738+1044264429+1044266856+1044332058+1044432186
3080+1044586053+1044759744+1044924804+1045143199+1045445674+1045742148
3071+1045952789+1046106319+1046294237+1046618558+1047054673+1047274551
3063+1046834391+1045642897+1044058036+1042524217+1041301303+1040438985
3054+1039830123+1039332515+1038931665+1038739904+1038836593+1039147227
3046+1039495822+1039754875+1039869365+1039670255+1038789732+1036903677
3037+1034000088+1030326219+1026214819+1022082720+1018451734+1015778002
3029+1014294551+1014100632+1015241085+1017487062+1020115685+1022138346
3020+1022832098+1022029318+1019956289+1016862827+1012768217+1007474695
3012+1000804930+992876515+984231557+975742760+968361308+962813588+959381039
3002+957860233+957733472+958469095+959797330+961799156+964724052+968608426
2992+972974766+976902833+979409280+979818154+977832510+973328081+966240474
2982+956733671+945252889+932190550+917707871+902114138+886177542+870788448
2972+856472111+843373092+831526723+821061519+812348596+806125802+803322679
2962+804365632+808449118+813683776+818277411+821680427+824617190+828046975
2952+832133966+836204438+839438147+841241402+841043371+838304573+832971134
2942+825652187+817241335+808502317+799895658+791541646+783414862+775781505
2932+769384683+765024007+763010786+763159191+765157916+768733882+773633835
2922+779758119+787226281+796058347+805830271+815782764+825251134+833951246
2912+841930636+849341351+856307995+862948024+869365681+875594207+881617958
2902+887415425+892891606+897849074+902148796+905847882+909093998+911942499
2893+914333646+916194550+917529326+918466757+919216338+919875702+920262663
2883+920014331+918830995+916521974+912856668+907532669+900417552+891950668
2873+883443868+876925004+874439325+877213792+885196014+897090592+910807980
2863+924263618+936149971+946049870+953926233+959748513+963579284+965659527
2853+966281132+965789526+964726074+963784193+963627966+964776779+967458265
2843+971466570+976326943+981638603+987159015+992627913+997692859+1002028722
2833+1005502199+1008239244+1010513137+1012531954+1014347885+1015956210
2825+1017383360+1018606410+1019490035+1019963032+1020217095+1020560026
2816+1021102742+1021733046+1022310891+1022735206+1022958253+1023084206
2808+1023336179+1023844305+1024571905+1025439684+1026385408+1027309422
2799+1028077679+1028606169+1028944650+1029263240+1029706570+1030268030
2791+1030836099+1031311388+1031636317+1031795376+1031852082+1031913575
2782+1032035482+1032249224+1032670842+1033407746+1034331625+1035107299
2774+1035518938+1035658511+1035802872+1036198665+1036912712+1037780761
2765+1038533848+1039003946+1039172040+1039095713+1038870779+1038602488
2757+1038357326+1038178173+1038104004+1038114455+1038156260+1038266165
2748+1038532028+1038912111+1039240478+1039416664+1039497643+1039586848
2740+1039704642+1039794927+1039825403+1039824257+1039831539+1039903011
2731+1040144938+1040605326+1041090258+1041239742+1040869503+1040166851
2723+1039515983+1039208181+1039312355+1039664524+1039943939+1039944681
2714+1039801265+1039792769+1039982979+1040233738+1040456988+1040658728
2706+1040842195+1040992287+1041074480+1041038002+1040895193+1040754406
2697+1040759665+1041017235+1041470678+1041824195+1041788729+1041431031
2689+1041067804+1040848938+1040643152+1040277903+1039732827+1039137518
2680+1038654339+1038356044+1038217618+1038199750+1038311745+1038594127
2672+1039044200+1039537829+1039868219+1039905911+1039720488+1039541403
2663+1039597367+1039946164+1040453077+1040937874+1041305281+1041536149
2655+1041630007+1041583415+1041433661+1041321193+1041392463+1041592315
2646+1041741058+1041834309+1042015215+1042281549+1042539928+1042845033
2638+1043269281+1043706946+1044067341+1044421533+1044774308+1044998299
2629+1045124117+1045362267+1045715987+1045887857+1045680521+1045258431
2621+1044916376+1044757923+1044672561+1044572163+1044582480+1044889810
2612+1045392946+1045735069+1045768243+1045709447+1045754083+1045842007
2604+1045901747+1046041118+1046382296+1046852259+1047205978+1047270775
2595+1047173614+1047197146+1047394638+1047549584+1047492474+1047215755
2587+1046783281+1046412031+1046455791+1046979021+1047518837+1047582690
2578+1047262482+1047110840+1047478516+1048161884+1048693745+1048859547
2570+1048833722+1048843364+1048843566+1048644254+1048297142+1048141319
2561+1048342790+1048585727+1048504478+1048248190+1048201396+1048297681
2553+1048166469+1047857791+1047849565+1048337935+1048991096+1049423097
2544+1049566851+1049528957+1049354727+1049113070+1049069782+1049489782
2536+1050250691+1050912145+1051192100+1051159533+1051031422+1050991101
2527+1051102423+1051263505+1051343944+1051385412+1051549798+1051910934
2519+1052365861+1052696588+1052744528+1052564230+1052361613+1052312392
2510+1052474755+1052729762+1052771701+1052369165+1051678313+1051126898
2502+1050979639+1051103838+1051177199+1051121167+1051244827+1051827190
2493+1052672449+1053304843+1053471049+1053229123+1052729290+1052186843
2485+1051924554+1052125148+1052559914+1052819506+1052786602+1052604753
2476+1052277060+1051759764+1051397481+1051688022+1052575220+1053484939
2468+1054046197+1054343144+1054501798+1054452510+1054170060+1053865629
2459+1053756668+1053729832+1053460868+1052890237+1052314347+1051961976
2451+1051780127+1051690449+1051725174+1051854565+1051934601+1051879513
2442+1051757404+1051713105+1051863398+1052233503+1052712838+1053070401
2434+1053119285+1052972497+1053008368+1053385620+1053716279+1053504358
2425+1052867582+1052486487+1052776151+1053409893+1053818363+1053870012
2417+1053828005+1053847356+1053799888+1053491614+1052901969+1052303896
2408+1052148545+1052650198+1053529103+1054312128+1054772111+1054940812
2400+1054879319+1054599702+1054117535+1053512247+1052967171+1052705084
2391+1052805279+1053092854+1053254542+1053091033+1052650333+1052117529
2383+1051695034+1051625046+1052072151+1052785861+1053190285+1053120701
2374+1053131287+1053706705+1054584463+1055210114+1055423856+1055424867
2366+1055410506+1055397964+1055258661+1054999204+1054852349+1054834885
2357+1054613592+1054080248+1053511168+1053069524+1052729088+1052574883
2349+1052750327+1053236944+1053806496+1054138774+1054045860+1053565581
2340+1052810606+1051904933+1051060551+1050511834+1050318657+1050337064
2332+1050411570+1050462680+1050372261+1050001954+1049437864+1049013886
2323+1048945111+1049123049+1049464362+1050129795+1051047065+1051705957
2315+1051784779+1051530986+1051284811+1051086982+1050919899+1050848831
2306+1050801161+1050617019+1050351089+1050195738+1050153529+1050088058
2298+1050032768+1050146652+1050424516+1050763469+1051247996+1051994138
2289+1052769611+1053146930+1053037631+1052829823+1053008908+1053665979
2281+1054337547+1054540569+1054504158+1054873386+1055679740+1056329259
2272+1056609889+1056969407+1057763017+1058777652+1059527704+1059769226
2264+1059676245+1059493721+1059149374+1058550020+1058072370+1058201829
2255+1058781967+1059139327+1058877982+1058134470+1057246260+1056562623
2247+1056389943+1056778185+1057496076+1058292248+1058915471+1059026523
2238+1058529657+1057772727+1057020853+1056111135+1054958208+1053924830
2230+1053495997+1053926380+1055016465+1056034943+1056282600+1055711902
2221+1054632808+1053403488+1052731447+1053250699+1054547716+1055680212
2213+1056529179+1057526215+1058373025+1058203784+1056959360+1055841024
2204+1056082478+1057489265+1058783585+1059438566+1060060711+1060707803
2196+1060393393+1058822086+1057056724+1055922610+1055176266+1054607051
2187+1054658026+1055579005+1056919107+1058174589+1059218082+1059834495
2179+1059413079+1057609082+1055221577+1053882688+1054518722+1056460539
2170+1058368642+1059514354+1059747380+1058881016+1056911353+1054564977
2162+1053101619+1053589585+1056140533+1059630058+1062651980+1064557791
2153+1065349378+1065366572+1065093562+1064602427+1063509915+1061904961
2145+1060529123+1059669502+1058980538+1058663026+1059440117+1061001918
2136+1061891206+1061530946+1060991197+1061069209+1061141423+1060680024
2128+1060423601+1061140951+1062293001+1062744826+1062052828+1060561825
2119+1058937452+1057877575+1057698625+1058081675+1058467962+1058563437
2111+1058348077+1057928954+1057551028+1057450226+1057498301+1057245181
2102+1056580086+1056073039+1056194204+1056553588+1056643804+1056921534
2094+1058138515+1059923296+1061056061+1060961866+1060149984+1059286452
2085+1058516778+1057815812+1057421232+1057560535+1058002246+1058215786
2077+1057953093+1057471600+1057098798+1056743596+1056214567+1055921734
2068+1056623913+1058449689+1060707331+1062474446+1062984595+1062028824
2060+1060399529+1059299398+1059179177+1059723915+1060591897+1061459879
2051+1061862752+1061505392+1060418341+1058907650+1057708402+1057726000
2043+1059127056+1060962069+1061932808+1061574908+1060774353+1060960653
2034+1062582396+1064800998+1066826963+1068758126+1070813826+1072485127
2026+1072878022+1071636497+1069401712+1067413911+1066525432+1066448363
2017+1066182568+1065446472+1065153841+1066098419+1068053182+1070350538
2009+1072274352+1072910926+1072007680+1070705404+1070129986+1070023655
2000+1069635076+1069011920+1068690969+1068715445+1068615924+1068200913
1992+1067867219+1067865601+1067765203+1067145216+1066223630+1065318834
1983+1064370547+1063459480+1063249244+1064510053+1067183042+1069934247
1975+1071051909+1069884689+1067138878+1064208791+1062725407+1063847385
1966+1066893311+1069421873+1069650651+1068080287+1066468321+1065880901
1958+1065995054+1066092081+1066046568+1065959656+1065514708+1064509985
1949+1063516725+1063194831+1063384906+1063503375+1063364476+1063193213
1941+1063151880+1063127472+1062872599+1062281876+1061565671+1061113037
1932+1061195634+1061782380+1062486717+1062741792+1062159699+1060686025
1924+1058602680+1056656615+1055723028+1055875884+1056080388+1055283069
1915+1053749655+1052586548+1052335789+1052632668+1052891046+1052990028
1907+1053219615+1053808856+1054679332+1055519669+1056060430+1056356432
1898+1056738067+1057466206+1058478750+1059469650+1060185585+1060592437
1890+1060755339+1060725604+1060650558+1060789120+1061179519+1061446528
1881+1061235618+1060730121+1060467563+1060744146+1061386788+1062014395
1873+1062404727+1062592914+1062627706+1062388410+1061845896+1061311068
1864+1061108587+1061250250+1061508156+1061690815+1061798765+1061907119
1856+1062000572+1062027745+1062021002+1062072651+1062237576+1062467029
1847+1062552593+1062225574+1061519214+1060921006+1060745292+1060792491
1839+1060790333+1060696139+1060685215+1060983241+1061647459+1062486448
1830+1063127269+1063211283+1062688997+1061874485+1061221593+1060970430
1822+1061012571+1061184846+1061404184+1061540386+1061460351+1061161247
1813+1060711444+1060207296+1059806783+1059575847+1059341472+1058880207
1805+1058182815+1057470588+1056991186+1056761531+1056554734+1056236548
1796+1055918699+1055788094+1055994217+1056563432+1057239450+1057682847
1788+1057817228+1057802664+1057885531+1058209313+1058632145+1058822018
1779+1058622099+1058268042+1058142224+1058423797+1058962468+1059357520
1771+1059399122+1059351114+1059498643+1059822156+1060164885+1060431827
1762+1060549553+1060430680+1060114382+1059771788+1059532492+1059370466
1754+1059162657+1058801318+1058212482+1057435257+1056663695+1055972101
1745+1055165680+1054039724+1052656469+1051350417+1050539411+1050423909
1737+1050966019+1052240717+1054228653+1056127789+1057257453+1057857145
1728+1058262513+1058496820+1058478480+1058222596+1057831657+1057436133
1720+1057188543+1057198320+1057331825+1057343692+1057308360+1057411523
1711+1057652438+1057881283+1057926998+1057732136+1057442471+1057244979
1703+1057113430+1056880269+1056454471+1055939264+1055493710+1055212609
1694+1055092252+1055041076+1054991247+1054862867+1054546165+1054105330
1686+1053900758+1054279358+1054846011+1054959759+1054735364+1054597814
1677+1054867992+1055539155+1056131430+1056242886+1056095694+1056109921
1669+1056314156+1056422308+1056411183+1056477463+1056668482+1056797334
1660+1056713388+1056460067+1056155029+1055999004+1056339373+1057168989
1652+1057488659+1057056994+1056563634+1056533899+1057092528+1057809137
1643+1058341065+1058720339+1059026118+1059294678+1059577667+1059924577
1635+1060312279+1060698903+1061073997+1061392452+1061582797+1061625343
1626+1061597833+1061623995+1061739362+1061778604+1061545376+1060962743
1618+1059906439+1058294675+1056515020+1055083757+1054203503+1053990638
1609+1054508204+1055568419+1056800301+1057920998+1058814601+1059474707
1601+1059985193+1060477677+1061018100+1061556703+1061986413+1062237307
1592+1062337570+1062381599+1062429270+1062454555+1062429337+1062429607
1584+1062554548+1062733296+1062765256+1062587048+1062336221+1062112500
1575+1061748397+1061075210+1060258271+1059673278+1059682785+1060262653
1567+1061099012+1062021339+1062832481+1063281541+1063402167+1063567632
1558+1063960864+1064129093+1063971584+1063763439+1063707407+1063844418
1550+1064060183+1064224636+1064308380+1064322742+1064262058+1064200093
1541+1064348296+1064749349+1064972733+1064776320+1064328001+1063853858
1533+1063500206+1063285991+1063214924+1063299409+1063440196+1063487934
1524+1063456446+1063484563+1063608762+1063662973+1063482405+1063080071
1516+1062499866+1061707806+1060724997+1059679414+1058629650+1057412669
1507+1055630653+1053012414+1049759488+1045675396+1039870984+1031057595
1499+1017520776+997700276+973101663+948153983+924647275+901964924+883568877
1489+879133155+892538493+915025981+936355352+951739590+960559722+963901920
1479+962797474+957286973+946691838+930646280+910885858+893180258+882948485
1469+879528612+879605680+880702642+881247921+880864938+880561249+881656795
1459+885486757+893115327+902458755+909497343+913820530+916645229+918824050
1449+921605125+926804519+935155766+945485780+956157983+965837466+973598731
1439+979732590+985614273+991661556+996189382+998150348+998358966+998056760
1429+998341570+999947400+1003215429+1008219758+1014288483+1020166862+1025358300
1419+1030197637+1034390151+1037089842+1038330153+1038651035+1038393938
1411+1037711379+1036646917+1035155577+1033087538+1030194738+1026407996
1402+1021907680+1016704240+1010784393+1004804267+999943017+997138950+996756507
1392+998207998+999924070+999576756+993972398+980786332+961796527+941647255
1383+924171041+911846281+905266666+901096874+893424545+880714442+871290776
1373+875715507+892291442+908596862+914298112+908071272+893610575+871767212
1363+842268106+812908641+796991800+799465207+813507253+828105097+836475628
1353+838902578+839416031+842612521+853082377+873726761+902530160+932529638
1343+956672717+971937881+978669948+978739734+975557741+973280815+974377373
1333+978593081+984243964+990081618+995774709+1001068838+1005247462+1007453388
1323+1007050447+1003656735+997377168+989283018+981265195+975094858+971939567
1313+972634532+977579121+986156922+996621182+1006657013+1014211414+1018186680
1303+1018671477+1016793446+1014339727+1013003266+1013556028+1015629057
1295+1018253095+1020608304+1022425988+1023900067+1025321350+1026764143
1286+1028051518+1028954764+1029406454+1029534632+1029478735+1029214086
1278+1028619452+1027614324+1026063514+1023643981+1019933297+1014529802
1269+1007076878+997459428+986070144+973660426+960932995+948575870+937709614
1259+929942550+926758062+928805671+935545761+945281478+955597130+964057878
1249+968770790+968589682+963203246+953508121+942054309+932618708+928565363
1239+931046389+938392240+947164161+954441911+959944118+966054242+975312579
1230+987722768+1000697790+1011431216+1018821029+1023298555+1025691657
1221+1026638460+1026526195+1025375831+1022705269+1017646593+1009423726
1213+998182443+985723774+975248658+969868021+970916774+977409544+986929967
1203+997030326+1006058603+1013236292+1018451262+1021967555+1024031414
1194+1024631038+1023579386+1020627655+1015388412+1007331886+996165446+982520609
1184+968562981+957835758+953786255+957660718+967597029+979899673+991326177
1174+1000494094+1007730174+1014004415+1019952716+1025601845+1030646630
1166+1034787091+1037923706+1040201171+1041852110+1043008273+1043728455
1157+1044075702+1044032953+1043489024+1042412222+1040889596+1038906649
1149+1036198800+1032364591+1027032433+1019819750+1010026722+996298074+976654636
1139+949285737+914300067+875770190+841998737+822274118+821680360+838239708
1129+864857071+894008189+921049935+944309322+963429395+978219404+988689462
1119+995458951+999607570+1002017057+1003162769+1003766236+1005216850+1008768812
1109+1014379239+1020736347+1026401254+1030724238+1033843659+1036171560
1101+1038006708+1039519017+1040859052+1042101183+1043124111+1043652196
1092+1043369409+1041897083+1038663981+1032943717+1024364501+1013760466
1084+1003435037+996157624+993710109+996331450+1003071001+1012179853+1021481140
1074+1029140861+1034372553+1037308304+1038281134+1037352670+1034420021
1065+1029782829+1024751394+1021495906+1021758802+1025472521+1030771909
1057+1035440521+1038296372+1039266100+1038466354+1035514758+1029804405
1048+1021480668+1012274115+1005200129+1002816533+1005379146+1010774212
1040+1016191731+1019609312+1019972741+1016706802+1009319350+997184868+979591736
1030+956240379+928116437+898391520+872476067+855904582+850380933+851356123
1020+850444786+841320157+823899569+803698649+788178748+783093237+789405439
1010+801169615+807804318+802898364+792613593+792309162+812170792+847664386
1000+885221636+914167372+930825905+934422975+923839370+899224777+865122260
990+830900466+807211436+800634113+810647088+831112185+854150683+872869838
980+882362346+881237942+873921220+869758643+876743694+895111017+917780625
970+936615348+947243455+948901743+942189027+928181841+908879312+887330131
960+866979726+850596900+839027452+830835601+824221935+819863417+820956199
950+829787860+844959638+862545960+879469344+895310060+911310712+928320672
941+945779625+962181397+976016242+986258534+992375266+994310272+992512209
931+987717981+980665301+972351475+964609494+959788362+959262098+962171620
921+965634984+966111622+960901912+949243191+932866299+915779001+902908625
911+897914005+901617407+912355554+927667309+945501018+964157534+981872505
901+997051296+1008926186+1017749149+1024322966+1029453248+1033692219+1037232112
891+1039884402+1041266982+1041021617+1038540928+1032281049+1020067341
882+1001632389+981532069+968111560+967600535+978868249+994611534+1007521084
873+1014976773+1018697234+1021279400+1023372319+1023432194+1019495092
864+1011053156+999723948+988632689+980683978+976450334+973720166+969711592
854+963538761+955995485+947513768+937549071+926256544+916012769+910483119
844+911807781+918602217+926673644+931588229+930787067+924341967+915013373
834+907579935+906491064+912721140+922890881+931835819+935917147+934213616
824+927884153+919115940+909627274+898626232+881546620+850935314+799525824
815+724352326+630392381+532361661+452812249+414517960+428887193+488714448
805+572973367+659715436+735500763+796141889+842730652+878126410+905219265
795+926165316+942203929+953890834+961392035+964863962+964928826+962596003
785+958674341+954036138+950800272+952170648+959994553+972694339+986245251
775+997207186+1004643051+1009415568+1012268788+1013069748+1011880614+1010173374
765+1010290427+1013504177+1018925944+1024501983+1028717962+1031046604
756+1031368971+1029837647+1027179423+1024476294+1022493752+1021186351
748+1019517612+1015772338+1008476249+997402723+984321842+973328890+969449235
738+975117918+987815142+1002039780+1013532092+1021103282+1025335038+1027167152
728+1027648240+1027600569+1026801970+1023780654+1016950212+1006613186+996210150
718+990632223+992153095+998345750+1004419397+1007221508+1006582305+1003607784
708+999533671+996358083+996481474+1000443389+1005889834+1009664237+1010473962
698+1009351917+1008395472+1009439976+1013174934+1018698447+1023826437
690+1026195401+1024444199+1018681051+1010440181+1002676016+999203955+1002690243
680+1012512805+1025045239+1036341677+1044554363+1049920233+1053304371
671+1055489395+1057273163+1059204529+1060808808+1061449158+1061570054
663+1061677599+1061716706+1061360897+1060547530+1059657635+1059147351
654+1059058888+1058949252+1058328456+1057092797+1055580083+1054428101
646+1054298710+1055395267+1057265072+1059244648+1060838004+1061587787
637+1061279715+1060510985+1060309919+1061016010+1062189097+1063432509
629+1064570669+1065295572+1065316541+1064723188+1063755078+1062284573
620+1059887088+1056553588+1053080312+1050416627+1048869323+1048364366
612+1048938570+1050485807+1052632937+1055115852+1057667137+1059706250
603+1060897204+1061684814+1062642203+1063744424+1064693318+1065272309
595+1064892159+1062507620+1057677183+1051184143+1043717195+1034550828
586+1022746601+1009071153+995399818+982946475+972783072+967190649+968449839
577+976314941+987601940+998622266+1007800905+1015568373+1022138818+1026150562
567+1026142201+1023167140+1020622665+1021116700+1024310964+1027890975
558+1029723156+1028734616+1024313661+1015351462+1000273340+978585867+952589569
548+927479931+909521414+902997628+907595308+918847177+931537726+942529329
538+951442240+960146262+971092757+984962461+1000116910+1014311677+1026110511
528+1034791946+1039843271+1041020808+1038610984+1033025573+1024301794
520+1012711848+999816997+988160366+979587420+974525913+972799727+974235642
510+978717551+986042364+995221070+1004173290+1011071563+1015589208+1018449374
500+1020433467+1021845648+1022433270+1021740328+1019413573+1014976301
492+1007926722+998691985+988802065+979778372+972641140+968461774+968344182
482+972315807+978717483+984996039+989346803+992262461+996324842+1003424046
472+1011659792+1016897889+1018142785+1018380599+1020206981+1022603589
463+1022562055+1018883196+1013244922+1008000015+1004256831+1002117455
455+1001536373+1002144493+1003110108+1004072824+1005474420+1007310377
446+1008804076+1009900162+1011840832+1015405133+1019434206+1021984479
438+1022416346+1022067818+1022861900+1025052386+1026759626+1025232347
429+1018900053+1009807518+1003185491+1002875532+1007162308+1010785809
421+1010673544+1008091311+1006960500+1009123880+1013106428+1017365357
412+1021436504+1025370167+1029155560+1032961450+1037311877+1042188164
404+1046540411+1049714717+1053080852+1059317940+1068310953+1073741823
395+1070847607+1063249177+1057058477+1054818366+1054643057+1053332083
387+1050323714+1048682754+1051113278+1055172625+1056434512+1054069257
378+1049608858+1043448635+1036222939+1032602067
##END=
