##TITLE=X8599
##JCAMP-DX=4.24
##DATA TYPE=INFRARED SPECTRUM
##DATE=2/11/2018
##SAMPLING PROCEDURE=ATR platinum Diamond 1 Refl
##ORIGIN=ComPlat
##XUNITS=1/CM
##YUNITS=TRANSMITTANCE
##RESOLUTION=4
##FIRSTX=3997.453
##LASTX=373.96442
##DELTAX=-1.4165319
##MAXY=1.0653348
##MINY=0.65972674
##XFACTOR=1
##YFACTOR=9.9217035e-010
##NPOINTS=2559
##FIRSTY=0.95550501
##XYDATA=(X++(Y..Y))
3997+963045324+962464699+961956345+961961811+962508254+963170761+963548573
3988+963613093+963556022+963536738+963641689+963858380+963997393+963825158
3978+963378380+963008979+963015707+963321669+963629914+963758535+963697379
3968+963532653+963441279+963579331+963904037+964234569+964440807+964478474
3958+964388962+964340061+964410048+964355500+963964712+963564072+963755711
3948+964610338+965535313+966003478+965962206+965612690+965158343+964752055
3938+964529478+964573513+964826368+965061562+965013922+964693542+964499740
3928+964747610+965281256+965650898+965577486+965202918+964854964+964762809
3918+965006113+965504255+966036519+966389160+966514296+966560073+966720293
3908+966987507+967111141+966821099+966148920+965548530+965394558+965492840
3898+965442437+965213011+965073036+965187779+965476140+965775373+966112454
3888+966572509+966870300+966522826+965787268+965535974+965874197+966172769
3878+966234286+966414752+966758621+966985524+967047462+967147246+967309689
3869+967432062+967449063+967165869+966413490+965575023+965339709+965820309
3859+966716628+967955615+969643904+971243581+971144697+969326707+967764877
3849+967116308+967107236+967428337+967690565+967494059+966949299+966734591
3839+967251356+967952492+968036597+967550770+967074255+966994475+967301459
3829+967699936+967885268+967905513+968220366+969026573+969625941+969159759
3819+968263800+968019415+968232922+968173688+967841533+967747636+968165998
3809+968967399+969622517+969697851+969575118+969729871+969786161+969222297
3799+968603945+968694058+969301776+969705901+969610081+969402402+969542857
3789+970019252+970399948+970339812+969946081+969654176+969758887+970146671
3779+970466391+970542385+970517514+970547492+970650580+970781904+970862886
3769+970856818+970822575+970706811+970385229+970071277+970239367+971039746
3759+972093282+972888375+973396669+973935722+974595706+975093788+974928162
3750+974044518+973149521+972631374+972182373+971395330+970556924+970167938
3740+970256248+970756553+971774584+973205330+974260428+974327111+973805600
3730+973260299+972782643+972269842+971884882+972030143+972751944+973573951
3720+974076598+974295932+974479822+974772027+975147495+975341838+974985233
3710+974360092+974256463+974782059+975427385+975687330+975336672+974649474
3700+974321404+974668938+975364787+975990588+976372305+976441331+976043875
3690+975038760+973709660+972793636+972674688+973223353+974179627+975252086
3680+976151109+976705541+976848700+976573736+976259364+976399639+976761531
3670+976706262+976232570+976185892+976805205+977546291+977948553+978015236
3660+978047797+978216307+978275541+977765084+976765255+975977071+975930753
3650+976586292+977150096+976822026+976128761+975953522+976468305+977300644
3640+977945429+978086005+977683742+976950407+976353501+976370983+977025140
3631+977863547+978415095+978688377+978985988+979281497+979473137+979597372
3621+979649637+979487074+979133472+978837303+978647466+978513438+978606314
3611+978994639+979193547+978653834+977648238+976949205+976858372+977234802
3601+977872138+978532722+979015725+979334003+979574303+979699559+979725151
3591+979828420+980043729+980063313+979623504+979002809+978574354+978304978
3581+978009048+977737810+977730180+978020763+978448858+979021252+979807454
3571+980559173+980827227+980373361+979457697+978782935+978775666+979225267
3561+979711334+980011769+980173852+980305236+980438001+980548119+980560975
3551+980472725+980465516+980698727+981037610+981181730+981048123+980823983
3541+980680945+980705816+980972008+981394095+981616613+981416443+981145385
3531+981364058+982141849+982983740+983410573+983381076+983120471+982821718
3521+982599320+982531075+982618604+982745903+982782369+982719770+982657773
3512+982694419+982834213+982994253+983169973+983494017+983910938+984027784
3502+983677366+983297091+983272040+983426553+983472150+983464941+983558958
3492+983662047+983611644+983458453+983423069+983659524+984127688+984638867
3482+984990305+985130100+985192578+985332433+985596643+985904167+986023776
3472+985754880+985306540+985191316+985583847+986172942+986695835+987110533
3462+987292500+987181061+987118823+987476630+988076899+988388929+988171758
3452+987620089+986994288+986434028+986114249+986214334+986620321+986995489
3442+987163759+987125852+986888676+986587760+986531049+986859419+987365311
3432+987766612+987952544+987976034+988001926+988203117+988564709+988806150
3422+988597269+987956930+987358162+987212540+987394507+987584405+987814071
3412+988270701+988796959+989051076+989058585+989179696+989554264+989885938
3403+989855480+989495811+989056122+988747937+988732618+989059667+989488122
3393+989640532+989429729+989114335+988926120+988907797+989093128+989535881
3383+990100646+990461817+990420546+990073312+989604186+989124968+988773770
3373+988684919+988740248+988651697+988390671+988223122+988254842+988302001
3363+988264874+988237780+988275568+988459577+989054560+990071931+990872851
3353+990812776+990094939+989411466+989026685+988733099+988413800+988138777
3343+987870842+987477411+987014953+986783124+987040245+987675598+988227928
3333+988280313+987797310+987054423+986377017+986004131+986024016+986307510
3323+986603860+986791835+986937216+987109151+987305596+987512315+987619548
3313+987358102+986569978+985479556+984489100+983782077+983245126+982706133
3303+982125749+981572157+981097745+980713385+980441906+980284810+980139909
3293+979866928+979476621+979161708+979068652+979118093+979159124+979199795
3284+979323309+979476441+979498428+979265938+978754459+978099461+977532594
3274+977133215+976806167+976524715+976309046+976054087+975717727+975492987
3264+975515455+975634764+975625032+975365568+974824712+974112824+973501921
3254+973249786+973404659+973726481+973788479+973324519+972480165+971551105
3244+970602280+969607738+968807359+968524165+968622989+968528250+967904251
3234+967007452+966221250+965607524+965111544+964842168+964855745+964895575
3224+964624877+964016557+963336568+962790366+962350797+961928290+961516415
3214+961150679+960889473+960793593+960788426+960676927+960381238+959979096
3204+959504623+958977345+958519153+958186277+957844751+957383014+956815546
3194+956179712+955622696+955432078+955600108+955632669+955168169+954430568
3184+953735380+953012978+952168203+951429280+951024194+950902723+950933301
3174+950966823+950701592+949946869+948987892+948254316+947721571+947043324
3165+946158719+945363867+944862841+944568173+944296995+943908430+943293862
3155+942455696+941615787+941081420+940914111+940852774+940653385+940345741
3145+939970693+939294428+938126810+936769596+935780941+935406914+935469633
3135+935639525+935608166+935146669+934189494+932890012+931602965+930700818
3125+930223042+929800414+929105767+928222003+927428412+926832408+926353430
3115+925880760+925326508+924637207+923850224+923070511+922336815+921576265
3105+920748131+919955561+919311978+918763733+918172956+917541087+917010985
3095+916644107+916329914+915960873+915565640+915180920+914724109+914133031
3085+913508551+912943065+912308433+911393851+910177933+908826485+907503694
3075+906286694+905171341+904081521+902952891+901816572+900724048+899682107
3065+898762479+898109344+897733514+897500063+897383878+897486966+897774185
3055+898026080+898037674+897718616+897120749+896481731+896066793+895852746
3046+895528040+894879591+894049054+893342992+892868940+892434117+891789392
3036+890890490+889890601+888971213+888264010+887883796+887878329+888124396
3026+888400501+888625362+888874673+889115213+889138462+888814298+888217452
3016+887493008+886742431+886008554+885313126+884774734+884570779+884642749
3006+884619500+884189663+883378530+882415348+881552310+880957327+880556386
2996+880084197+879432023+878752935+878162217+877595469+876992316+876380512
2986+875804814+875349865+875154922+875243953+875390777+875267262+874740765
2976+874024791+873499675+873343420+873393403+873397007+873267605+873018655
2966+872588698+871887142+870984995+870148751+869632587+869480597+869557072
2956+869694945+869759045+869656436+869370840+868970380+868576168+868324273
2946+868299042+868478606+868759276+869023967+869175476+869111015+868690490
2936+867865360+866905001+866276556+866157488+866309477+866524906+866867034
2927+867387704+867952529+868452954+868937399+869433258+869792446+869828551
2917+869563380+869207135+868888558+868558566+868176489+867829736+867656780
2907+867756985+868112869+868551837+868882730+869041989+869016157+868770030
2897+868377980+868050151+867868784+867649030+867198648+866585102+866010784
2887+865551451+865146786+864725179+864249085+863770467+863422332+863188160
2877+862836962+862301693+861883571+861840197+862018980+862085784+861907661
2867+861587521+861256388+860940634+860627102+860383798+860299994+860301556
2857+860148184+859657311+858910038+858231611+857918380+857983862+858214430
2847+858377774+858318059+858012998+857608633+857254131+856960184+856731658
2837+856640765+856655964+856633736+856514848+856330898+856095164+855882738
2827+855874268+856119794+856382502+856388149+856156320+855924851+855798813
2817+855660341+855425507+855193017+855093293+855141172+855284451+855508771
2808+855855284+856322608+856799663+857200484+857628578+858228307+858904091
2798+859408901+859709036+860060595+860675102+861450130+862120447+862559595
2788+862817737+862987029+863192305+863624425+864410446+865485128+866642533
2778+867684715+868525705+869184127+869686354+870077682+870517852+871145095
2768+871816373+872267777+872550730+872996847+873711259+874425611+874928379
2758+875366446+875981314+876743726+877399805+877770168+877897286+877981031
2748+878200004+878527173+878784594+878939347+879176043+879595967+880073443
2738+880508026+880972646+881499925+881934748+882110948+882074302+882030928
2728+882116955+882279097+882398527+882469715+882578031+882726356+882816408
2718+882826441+882828544+882744439+882296760+881361752+880227356+879339086
2708+878853921+878517801+877972620+877159745+876365734+875872518+875697940
2698+875703887+875777539+875867051+875983477+876169409+876388502+876507751
2689+876446955+876275141+876121048+876042530+876022525+876058811+876189414
2679+876393549+876550825+876584347+876591736+876751656+877099370+877472256
2669+877720065+877873557+877995148+877993887+877755509+877350423+876951225
2659+876667911+876543856+876535145+876429113+875962811+875099172+874094478
2649+873272592+872771506+872480443+872179587+871729205+871168344+870663954
2639+870334804+870132531+869969908+869889167+869931700+869921427+869633368
2629+869165383+868897389+869016337+869268592+869296948+869088187+868932593
2619+869062174+869492732+870084952+870565191+870626348+870214954+869629703
2609+869221433+869095937+869144958+869204072+869136427+868935416+868789494
2599+868888858+869162019+869385919+869497057+869586329+869683230+869757903
2589+869836722+869950624+870034909+869964681+869687255+869355521+869296167
2580+869726904+870489797+871128815+871258217+870897226+870418909+870120576
2570+869977117+869896556+869965582+870293892+870831143+871383833+871650026
2560+871400594+870785306+870226308+869932481+869830053+869898659+870165272
2550+870428280+870428040+870272566+870336666+870766743+871359143+871840944
2540+872044538+871923247+871580038+871173631+870765061+870432245+870389231
2530+870735564+871267228+871715628+871933820+871833435+871504224+871319914
2520+871537625+871927933+872127141+872145825+872241044+872473414+872657123
2510+872671181+872625283+872673944+872803466+872906675+872951611+872937613
2500+872839511+872773128+873013548+873629618+874289782+874639298+874721060
2490+874880620+875411202+876324462+877303745+877924861+878081356+878085381
2480+878285972+878766632+879416884+880062870+880535600+880756977+880749528
2470+880634244+880751690+881560660+883141474+884933812+886187097+886628528
2461+886630030+886785985+887372918+888252356+889202562+890144178+891071135
2451+891980551+892865336+893672383+894384092+895124156+895956856+896666642
2441+897046617+897332454+898015566+899186969+900344254+900999973+901260698
2431+901573088+902110039+902719200+903250022+903600440+903682803+903657872
2421+903973265+904884003+906079075+906981762+907355188+907422652+907439173
2411+907440675+907496485+907844619+908562816+909409333+910171324+910852635
2401+911467203+911981805+912455316+912929248+913258159+913302134+913189012
2391+913221333+913589172+914203379+914758412+915038662+915187768+915544914
2381+916239561+917103440+917910368+918529981+918932063+919198316+919463367
2371+919785909+920177779+920685713+921316140+921982492+922554887+922893830
2361+922995417+923081444+923276448+923413539+923481664+923771646+924260176
2351+924508106+924348907+924099896+924176251+924786493+925834262+927032338
2342+928134654+928986097+929528574+929901340+930254881+930452048+930311112
2332+930055552+930061620+930241064+930217094+930009114+930072794+930752483
2322+931896010+932966968+933552579+933754191+933940784+934198806+934301774
2312+934147261+933925825+933884794+934163842+934756662+935471435+936055064
2302+936439724+936728745+936957390+937092619+937298616+937879542+938763545
2292+939367840+939317497+938993092+938980657+939321342+939716215+940132355
2282+940784168+941689379+942516852+942863064+942635080+942185298+942054455
2272+942548812+943464175+944201055+944333460+944059098+943880254+943953185
2262+943992835+943709281+943256015+943270313+944228749+945716207+946847419
2252+947407318+947856800+948300754+948292043+947649300+946785722+946215670
2242+946204617+946803264+947852534+949050130+950213963+951285280+952056043
2232+952294541+952098095+951680995+951098627+950619830+950756981+951435768
2223+951927482+951943282+951900449+951994886+952044929+952240293+952997599
2213+954040801+954532095+954187504+953494058+952793944+952126871+952083798
2203+953503670+955915502+957612981+957811349+957554769+958002928+958948329
2193+959509249+959415352+958981190+958313276+957334774+956427641+956181033
2183+956533133+957116762+958215354+960160522+962251493+963532172+964102524
2173+964579880+964990673+965247794+965950071+967685038+970037936+972043600
2163+973189350+973184484+971483340+968487159+966282586+966219448+967261629
2153+967898484+967937413+967997908+968387074+968663900+967929122+966016875
2143+964387821+964696606+966573109+968091265+968324416+968165277+968674473
2133+969779313+970696418+970725254+969515884+967295992+965094843+964197323
2123+964997402+966612398+967853067+968333908+968467935+968653447+968792100
2113+968632781+968327360+968252086+968323455+968078169+967575521+967529864
2104+968255870+969122573+969419644+969251734+969263088+969869725+971018840
2094+972400986+973665145+974622620+975376021+976067424+976544780+976562082
2084+976221517+975869897+975664381+975599320+975792100+976342748+977050552
2074+977637364+978140072+978748692+979336166+979420090+978609078+977187943
2064+976311389+977168419+979653422+982283746+983635854+983441452+982295040
2054+980987267+980126092+979782042+979666698+980010748+981635056+984589425
2044+987614863+989513173+990302138+990662408+990955454+991152500+991047549
2034+990210524+988411157+986327695+985124453+985278666+986443700+988021090
2024+989247041+989406840+988628688+987859308+987577436+987045051+985457329
2014+983561902+983151289+984931792+987787518+990240982+991688669+991915993
2004+990682112+988490456+986749542+986546789+987710562+989380467+991140425
1994+993070815+994902622+995771247+995130847+993616897+992721659+993496987
1985+995295333+996256833+995582431+994525652+994573051+995596128+996475746
1975+996614279+996122205+995510461+995588439+996736893+998122823+998368950
1965+997316797+996371636+996779486+998048991+998424760+997023571+994939448
1955+993861042+994107710+994664245+994849276+994933981+995173320+995225706
1945+994726302+993725092+992463997+991195574+990250413+989938083+990284596
1935+990945782+991480089+991705731+991756975+991849190+992059332+992250671
1925+992170591+991757515+991416409+991636824+992247247+992517885+992213725
1915+991982376+992243342+992540293+992285815+991633941+991244054+991386071
1905+991728018+991767007+991153761+989890204+988473935+987621231+987608735
1895+987955127+987913976+987151264+985797413+984275954+983241762+983136631
1885+983782978+984666501+985429334+986060121+986716261+987482758+988294852
1875+989035336+989750770+990724285+992165785+993826799+995103513+995731717
1866+995970335+996048914+996037439+995956758+995748659+995396559+995097566
1856+995058036+995200114+995285420+995247753+995255563+995505175+996055522
1846+996816011+997492576+997683314+997409432+997118910+997117948+997389367
1836+997836445+998513731+999520468+1000821212+1002138657+1003101119+1003709559
1826+1004246029+1004754984+1005089121+1005313141+1005639048+1006135628
1817+1006734456+1007390475+1008115280+1008859850+1009441736+1009736584
1809+1009929185+1010292999+1010833073+1011374109+1011792231+1012119520
1800+1012585822+1013407768+1014490801+1015600146+1016599674+1017329465
1792+1017638491+1017748068+1017997139+1018386545+1018787005+1019158028
1783+1019554163+1020061556+1020625541+1020976499+1020985270+1020905490
1775+1021063367+1021479086+1021746180+1021498671+1021015067+1020770922
1766+1020847217+1021007618+1020993800+1020699072+1020369621+1020371063
1758+1020572915+1020542397+1020220635+1019816931+1019180256+1017709019
1749+1014838034+1010531857+1004774448+996881613+985857789+970677674+950310623
1740+926187923+903406578+884727815+867380555+848861111+833423034+824583717
1730+820240595+818673658+819653361+823051624+828432123+834735974+840687906
1720+845609010+848829091+849022833+846142236+841877992+837062499+831730902
1710+826132571+820597500+815180416+810132613+806164058+803590745+802098722
1700+801187745+800433323+799498676+797858688+795259362+791922736+787515874
1690+781332232+773667802+765048841+753456526+735965867+716794609+702206113
1680+691197248+681771418+673770328+667893910+664932933+665028272+668087232
1670+674531118+683564177+692453236+700205195+708175767+717619079+727776982
1660+736870897+744518806+751164244+757509667+766121360+780150317+793816300
1650+801830307+807824351+814811195+821505954+824685605+824111828+820754596
1640+815284827+808436756+800443595+791396299+783541131+779007930+776489165
1630+773940663+770294230+766195973+763935531+765713511+772005587+780427683
1621+787769090+793297192+797771879+801161732+802765435+802906070+802382637
1611+801731303+801522723+802488188+805220340+809849420+815876806+822276116
1601+827943172+832085645+834228821+834215424+832385359+829624972+827095574
1591+825797413+826202379+828124779+830963864+834096475+836960732+838813385
1581+838839758+836839440+833798924+832308823+834918542+840450309+846810150
1571+854086015+862485703+870364961+876373784+880991570+884770108+887783831
1561+890491832+894156528+898910924+902423150+904741264+906942653+909131126
1551+911047098+912564052+913690759+914552595+915307438+916004908+916711691
1541+917779885+919485174+921312896+922936303+924646939+926674651+928767724
1531+930456073+931829207+933362922+935342754+937592143+939759289+941727406
1521+943461592+944938656+946371024+948081540+950218829+952657754+955195022
1511+957712826+960180467+962737921+965578808+968205407+970109905+971666449
1502+973127293+974381119+975158129+975064592+973685210+970729159+965066068
1492+953702278+934051742+911362191+897684733+897216749+905523862+917436556
1482+929462192+939724445+948006146+955001100+961082373+966040905+969649671
1472+971950844+973196499+973775442+974055091+974291667+974519832+974487451
1462+973934461+972609146+969738762+964045093+956298720+949181814+942428061
1452+934076193+922293080+905487036+883701794+860444775+840123561+824452694
1442+813390842+806444488+802045135+797332491+789785688+780461145+772870787
1432+769506707+772046318+780184319+790423084+799554185+806966540+813007203
1422+817708793+820911332+822105203+820515858+816437966+811050620+805371969
1412+800597087+798216615+799242816+803708072+811149503+820773940+830953110
1402+840297238+849121055+858349238+867769420+876450860+884157463+890988592
1392+896773516+901619767+906042008+910445447+914712154+918417641+921518533
1383+924385192+927351036+930470791+933578651+936549361+939450924+942329899
1373+945014290+947385271+949512347+951404289+953058515+954708475+956620362
1363+958665796+960409113+961713582+962815357+963808217+964387040+964097778
1353+962810671+960868506+958863983+957396711+956818850+957046054+957641217
1343+958015244+957468621+955240679+950944655+945027567+938492487+932395594
1333+927596562+924439260+922594957+921460020+920669913+920032878+919020614
1323+916577063+911514421+903073762+891284582+876943295+861204123+845521541
1313+832030075+822899815+818652031+817769709+818234089+819078443+820489605
1303+822625633+824428063+823545021+817562631+805837130+790346127+774141554
1293+758572935+742558078+724820691+706428305+691038950+682731237+683236528
1283+690694300+700670296+708685264+712719421+713958588+715359597+719517028
1273+727504241+738973342+752778279+767565803+782217318+796041118+808634643
1264+819553577+828028178+832870344+832676602+826448746+814358530+798003949
1254+779864059+762461350+747906556+737768598+732895854+733302081+738300382
1244+746721096+757123865+768030303+778076527+786079961+791175823+792986665
1234+791636359+787588564+781424748+773717485+765079419+756233193+747924218
1224+740755888+735144221+731394879+729771833+730452062+733384804+738199336
1214+744331973+751306562+758870666+766855717+774997563+782960806+790516260
1204+797672876+804603550+811391545+817891541+823894537+829335891+834281987
1194+838856098+843245479+847632517+852052776+856389831+860520289+864434056
1184+868230856+871992453+875648558+878943072+881428135+882348364+880357298
1174+873411786+860007008+841926652+825364873+817290611+819903574+829501218
1164+840596772+849916869+856869050+862102484+866376701+870165452+873753372
1154+877393798+881179244+884932070+888437267+891664196+894679781+897494956
1145+900058898+902328171+904322361+906138549+907922056+909756206+911555032
1135+913161258+914578067+915953304+917351250+918748774+920202410+921770187
1125+923310270+924565537+925433982+926059423+926665159+927370620+928194909
1115+929147939+930199732+931242034+932220355+933206367+934243321+935265318
1105+936215584+937086852+937854250+938520182+939180406+939933206+940765245
1095+941578961+942262194+942704767+942823895+942531210+941476713+938994173
1085+934942054+930727972+928713897+930107577+933888639+938015311+941174656
1075+943215765+944530927+945496152+946351740+947267884+948322201+949437313
1065+950489767+951486051+952535321+953681312+954845566+955895257+956740993
1055+957395149+957934142+958429281+958951753+959587347+960373308+961222829
1045+961948535+962425831+962745310+963119817+963652142+964315911+965086012
1035+965932049+966781209+967609824+968447209+969243684+969894837+970426741
1026+971003521+971736857+972591364+973496814+974419567+975289573+976022428
1016+976690883+977477625+978410350+979353647+980264445+981249795+982355415
1006+983427995+984239848+984629255+984250422+982301108+978310625+973394447
996+969602632+967320623+963944767+955431478+938553223+911668153+874517766
986+828866585+780232559+737959696+711355898+704846711+717010098+742836345
976+775245853+806320433+830604976+847657628+860226642+870646593+879735582
966+887772176+895001783+901376463+906508671+910011585+911780073+911959637
956+910786252+908603607+905963490+903540185+901968682+901738054+902941717
946+904847958+905730399+903404055+896491403+885837701+874833280+867691924
936+866673111+870810718+877312877+883842790+889409701+893846961+897197165
926+899485842+900615493+900457075+899217728+897537670+895992601+894623131
916+893083708+891017549+888145843+884294854+879578966+874384220+869054184
907+863694352+858286580+852879048+847627050+842663953+838015829+833724851
897+829873803+826325713+822728060+818992656+815452676+812351544+809477856
887+806440523+803093264+799633664+796440978+793896200+792328903+791991762
877+792904061+794618422+796053914+795697429+792432953+786198008+777470971
867+766893204+756719921+751783978+756579225+770935591+789922959+807968051
857+822097633+832007968+838817710+844043996+848848255+853664649+858385043
847+862729187+866453177+869481558+872057154+874709466+877878483+881475895
837+884931589+887773798+890046136+892052100+893927282+895709948+897607417
827+899864255+902513082+905484392+908723937+912013525+915000755+917571304
817+919886535+921972219+923563426+924399550+924345483+923059337+919878365
807+914607924+908372859+902846318+898109584+891399926+877966132+853653595
798+818805523+781361849+754685000+749329373+765694887+794936820+826315260
788+853152569+873643014+888720881+900052710+909048763+916556337+922907828
778+928153938+932376130+935922598+939300916+942763940+946123575+949098850
768+951723708+954215980+956551516+958501311+960153013+962015218+964369618
758+966810946+968686608+969796314+970523402+971494755+973165080+975485477
748+977899051+979804751+981067287+982086940+983447159+985451201+987843628
738+989953823+991233661+991755533+992206276+993319826+995222582+997348576
728+998984119+999689579+998954862+995193325+984810441+963434971+931134079
718+897020364+874553631+870069152+877795880+886584193+889409641+885377767
708+875805294+861988222+846357545+833515069+828662450+834550462+849880524
698+870378358+891311435+909385603+922828529+929977215+928095185+914488555
688+889855878+860663868+837158198+827800854+834680825+852957926+874163985
679+890631326+897642501+892677361+875395703+850405099+827052260+815994252
669+826628791+854654385+881283655+900347558+915632443+928880906+939828615
659+948763932+956160548+961952620+966093951+968813487+970529890+971943034
649+973833775+976567368+979844701+982975870+985516022+987644059+989830669
639+992223337+994439324+995961144+996797749+997591640+998856519+1000481068
629+1002269801+1004449323+1007199496+1010047653+1012290613+1013898341
620+1015482279+1017356138+1018966149+1019136041+1016050108+1006777229+988814741
611+964652211+943940209+937228869+946304822+963030366+977983817+987524089
601+992255297+992479136+987310042+976179104+958978907+935482008+906979719
591+879076018+860030677+854811541+862345248+877654703+895139595+911042532
581+924557668+937047563+949641087+961518878+970876883+977351828+982622569
571+988357149+994234108+998426622+999858991+999019503+996261759+989963495
561+976497021+952816292+920883120+889465330+869089208+864031733+870392355
551+881707784+894318490+907409496+920502424+932629286+943384335+953442274
541+963506700+973149341+981150010+986827820+990444936+992229585+991659172
531+988144844+981757729+972306909+958649516+941143117+924113894+912687446
521+908227537+908614000+911369400+915861630+922804138+932471769+944095383
511+956236723+967318700+976203494+982560331+986965932+990555354+994195960
501+997919890+1001148561+1003405459+1004906253+1006599587+1009163228+1011804847
492+1013002863+1012696000+1012540766+1013776989+1015930919+1017678020
483+1018551150+1019457442+1021410841+1024209496+1026602764+1027685195
475+1027844394+1028119658+1028955902+1030112586+1031596559+1033548877
466+1035482692+1036750755+1037499530+1038243259+1039000324+1039652859
458+1040485138+1041543900+1042548594+1043949063+1046340048+1048744611
449+1049486057+1048969652+1049356054+1050935546+1051026380+1047728742
441+1042180094+1034559939+1020437145+994747448+960998509+932931704+923366741
431+934208898+956848227+980808304+1001074609+1016975022+1028461965+1035569680
421+1038068440+1035322171+1030564471+1028952057+1029102485+1026518058
412+1019599219+1010616323+1001845371+992914860+982630859+970871837+958999092
402+950079695+948252994+956413644+971665728+984459423+990602934+995063563
392+1002817865+1014485634+1026440802+1034431499+1037835349+1039129605
384+1040339396+1042466532+1046734741+1053665355+1062756867+1071649170
375+1073741823+1067383484
##END=
