##TITLE=HMS-Q160
##JCAMP-DX=5.0
##DATA TYPE=LINK
##BLOCKS=1


$$ === CHEMSPECTRA SPECTRUM ORIG ===
##TITLE=HMS-Q160
##JCAMP-DX=5.00
##DATA TYPE=INFRARED SPECTRUM
##DATA CLASS=XYDATA
##$CSCATEGORY=SPECTRUM
##ORIGIN=Angelika Moesle
##OWNER=
##XUNITS=1/CM
##YUNITS=TRANSMITTANCE
##XFACTOR=1.0
##YFACTOR=9.1718849e-10
##FIRSTX=3997.453
##LASTX=373.96442
##MAXX=3997.453
##MAXY=0.9848236412872173
##MINX=373.96442
##MINY=0.3754629777177491
##NPOINTS=2559
##XYDATA= (X++(Y..Y))
2559A041798609A042179884A042296924A042191126A042099431A042209712A042468163
2552A042656363A042620686A042340855A041903627A041528332A041441575A041595462
2545A041717832A041679555A041565374A041458666A041425198A041559655A041815376
2538A042023657A042168641A042344754A042464524A042320644A041871589A041287168
2531A040798341A040575763A040627622A040888347A041427668A042300888A043124589
2524A043211411A042352942A041104751A040221783A040114101A040717693A041681244
2517A042581434A043051674A042979345A042591117A042242076A042153889A042342674
2510A042687556A042986493A043049595A042850542A042526326A042202044A041909866
2503A041651351A041473483A041468999A041659604A041911880A042085784A042244090
2496A042555439A042979345A043259760A043320133A043390253A043488902A043295828
2489A042808561A042493767A042690221A043300767A043901500A044032837A043753331
2482A043624203A043962132A044446734A044409432A043654552A042649734A042012219
2475A041977322A042258452A042548811A042780357A042995396A043138561A042935284
2468A042221150A041367426A040963601A041335452A042338255A043445296A044248461
2461A044724291A045016534A045044933A044362057A042999880A042152135A042133354
2454A042185993A041942489A041616713A041616128A042164157A043094175A043914432
2447A044118489A043628947A042936909A042484409A042242661A042039449A041941124
2440A042181963A042785556A043413973A043682561A043492671A042993057A042517682
2433A042416954A042706467A043125434A043409814A043526139A043562791A043490787
2426A043222848A042837090A042633813A042749423A042882320A042658508A042232848
2419A042260922A042913059A043608152A043686980A043142590A042472517A042036199
2412A041970693A042377312A043239745A044257364A045041683A045390985A045159504
2405A044226041A042902986A041841500A041382178A041507731A042115547A042934244
2398A043462972A043452900A043188795A043000855A043009433A043312399A043944910
2391A044618623A044857967A044551557A043907023A043012488A042021642A041597412
2384A042316355A043579883A044473119A044573068A043929444A043204457A042965958
2377A043144735A043425020A043508593A043319093A043185676A043398506A043714794
2370A043751121A043462518A043100609A042936324A042980514A042971806A042772948
2363A042648565A042916048A043461478A043924050A044150592A044187244A044072349
2356A044042130A044483906A045221111A045536814A044951678A043762689A042903441
2349A042940808A043398766A043587031A043451730A043382714A043574814A043845287
2342A043918656A043654747A043187626A042927941A043156952A043737994A044318192
2335A044703235A044931272A044990149A044691603A044049668A043427230A043054209
2328A042970572A043122639A043316688A043412218A043507228A043767823A044170283
2321A044497749A044615699A044615439A044686534A044924253A045261532A045555335
2314A045685177A045684073A045687452A045571127A045138253A044511136A044070984
2307A044070724A044292457A044315202A044101852A043959337A044008337A044068319
2300A044036411A044112380A044561110A045208568A045650150A045716761A045464744
2293A045018093A044484101A043953424A043370172A042595601A041871849A041811412
2286A042520932A043313049A043624658A043615365A043640515A043717784A043748782
2279A043846521A044280435A045077816A045808196A045963579A045588803A045234368
2272A045151965A045003212A044480266A043962652A044003268A044428343A044824824
2265A045139813A045442129A045609598A045546172A045424193A045485865A045774079
2258A046092251A046164061A045909965A045656323A045765825A046055274A046117271
2251A045801698A045228909A044630450A044213109A044133111A044472468A045045908
2244A045351993A045077101A044516400A044274066A044684844A045529470A046275123
2237A046530714A046307161A045979760A045923742A046119870A046266219A046242110
2230A046148074A045971702A045565538A044984886A044558186A044545903A044882987
2223A045251914A045404047A045409506A045486254A045640272A045715071A045728198
2216A045820609A045897358A045657948A045034535A044321636A043847561A043729741
2209A043922425A044332878A044792851A045084834A045155020A045200900A045428157
2202A045826263A046172119A046159837A045707793A045220981A045237032A045788116
2195A046394762A046632547A046466442A046096020A045728263A045480146A045352968
2188A045319565A045419579A045692066A046033244A046222094A046107653A045707728
2181A045141047A044559485A044154166A044109261A044487871A045186018A045977746
2174A046608632A046949030A047071269A047092390A046943051A046458709A045730863
2167A045151380A045000157A045148391A045312611A045448887A045694925A046080489
2160A046503159A046874881A047155361A047304570A047269347A047002709A046548780
2153A046095826A045859211A045869413A045911395A045706428A045199600A044672432
2146A044526992A044930622A045697200A046439213A046826596A046757646A046336275
2139A045767970A045342830A045348679A045798643A046325032A046480349A046116556
2132A045515628A045189137A045331522A045498862A045163143A044486051A044091065
2125A044178731A044407028A044559615A044760293A045000547A044954212A044436142
2118A043693609A043061162A042628614A042423192A042586893A043094175A043531533
2111A043401885A042551540A041245316A039951570A039014858A038392810A037736579
2104A036780241A035514244A033977839A032139702A030027649A027741108A025283783
2097A022548251A019385500A015504781A010458338A003961663I96163637I87476274
2090I78131056I67920091I56538073I44361924I32669077I22806178I15424519I10764940
2082I09167578I10790155I15101473I21090606I27913123I35163184I42626206I49992788
2074I56933125I63358641I69375523I74946340I79829927I83948106I87612681I91248856
2066I94980042I98597372A001875669A004824290A007619479A010336554A012857696
2059A015133644A017373006A019707312A021854458A023447271A024561330A025597341
2052A026776907A028036535A029299868A030546239A031604216A032138923A032070102
2045A031848564A032028901A032672590A033401865A033892382A034079802A034071159
2038A034063426A034246427A034694247A035339301A035966028A036314679A036382850
2031A036513082A036989757A037652876A038075352A038061315A037855049A037830679
2024A038112654A038585364A039114287A039613707A040037417A040395881A040671553
2017A040763053A040654266A040509022A040490306A040637565A040911937A041190598
2010A041332593A041401478A041620157A041969328A042103200A041797635A041270726
2003A040934032A040970555A041247136A041515919A041576486A041350529A040952553
1996A040648808A040629637A040870476A041240832A041642902A041996818A042206658
1989A042232003A042157074A042110933A042143362A042276843A042624325A043216610
1982A043749692A043831185A043496700A043167415A043122574A043335859A043712910
1975A044157351A044485336A044535895A044343276A044105816A044007167A044081902
1968A044251256A044486376A044813907A045146961A045351473A045490479A045674975
1961A045722934A045347639A044591004A043754371A043091316A042810705A043046151
1954A043584302A043925415A043803175A043416962A043080528A042856261A042632513
1947A042421048A042410065A042668710A042881995A042543612A041557251A040536771
1940A040228931A040648093A041118333A041141858A040799641A040335964A039884439
1933A039584658A039454360A039222424A038725799A038352258A038706174A039886194
1926A041340066A042441064A043035038A043313374A043315389A042814929A041699179
1919A040231986A038905421A038134165A038023103A038336272A038731583A039038253
1912A039261351A039417058A039509469A039627419A039889183A040230296A040358124
1905A040015777A039205528A038053777A036563317A034636669A032302753A029806241
1898A027419036A025168562A022918608A020875375A019804402A020408514A022601605
1891A025664407A028886166A031738022A033727057A034572983A034465366A033863853
1884A033131783A032537613A032405821A032960934A034092474A035508850A036997425
1877A038325289A039141127A039359285A039420957A039806586A040437277A040840387
1870A040761364A040388018A040094930A040105458A040376125A040746092A041134775
1863A041515269A041812971A041971083A042009230A041936315A041760203A041610279
1856A041665518A041939695A042292310A042630888A042962253A043283935A043599963
1849A044031472A044713178A045556440A046291694A046733601A046816133A046488148
1842A045851997A045264911A045019068A045044478A045096857A045072747A045016664
1835A044976307A044935691A044803249A044466555A043960442A043571110A043627128
1828A044092624A044499763A044466685A044149487A043977144A044121023A044459862
1821A044819885A044982871A044720196A044138894A043771332A044008792A044609265
1814A045050457A045221695A045417434A045756597A046020117A046027070A045754518
1807A045145986A044241638A043457124A043307265A043842492A044596073A045024072
1800A044933936A044618233A044558901A044884937A045263612A045392024A045317615
1793A045218381A045195636A045322359A045630329A046048646A046492502A046923750
1786A047257130A047365267A047254725A047116760A047117409A047212224A047261939
1779A047280655A047418101A047685259A047899259A047921809A047753755A047400490
1772A046877805A046385079A046251858A046606682A047204881A047661019A047785663
1765A047643343A047379174A047079263A046744323A046332895A045896123A045636113
1758A045706038A045966113A046114737A046053844A045945577A045877732A045691611
1751A045270240A044797010A044550322A044598412A044872719A045341270A045907950
1744A046343813A046511413A046482364A046347712A046141121A045971637A045970402
1737A046082698A046141251A046137807A046228852A046481974A046773632A046936228
1730A046916667A046787409A046650158A046543320A046440708A046346023A046373642
1723A046689410A047321921A048035405A048450343A048341036A047818221A047238414
1716A046917187A046916342A047060611A047121829A046961637A046594140A046180893
1709A045909380A045831786A045875652A045996851A046206172A046470926A046689605
1702A046756476A046639890A046430440A046288770A046307876A046444997A046575944
1695A046587966A046477815A046388784A046467092A046683301A046871761A046927195
1688A046895351A046868902A046830820A046670369A046391903A046201493A046274018
1681A046525840A046721708A046747053A046700523A046768238A047060352A047546384
1674A048086679A048489724A048624441A048539244A048425323A048420124A048510520
1667A048620996A048716006A048793860A048819659A048736542A048611248A048653230
1660A048910640A049063293A048751034A048022733A047290338A046961702A047181811
1653A047744202A048207164A048255384A047989980A047783714A047867286A048130285
1646A048333302A048436305A048611898A048939364A049237716A049284246A049098970
1639A048903167A048828043A048794120A048687477A048503826A048289502A048126191
1632A048180000A048497003A048780928A048688192A048302629A048001742A047919665
1625A047865986A047740693A047734844A048041709A048564718A049046201A049382505
1618A049643165A049846247A049907854A049801797A049627828A049534508A049622500
1611A049860219A050102293A050265409A050441911A050759889A051184704A051522828
1604A051590933A051371865A051024903A050730255A050548359A050461667A050465436
1597A050536401A050593199A050571234A050471870A050295302A050023530A049727582
1590A049591046A049727712A050043221A050353205A050568504A050653377A050506443
1583A050079873A049595140A049399337A049552054A049759296A049785225A049734861
1576A049860154A050258975A050817077A051301484A051483966A051281209A050836573
1569A050443016A050321752A050457508A050705820A051046088A051527962A051978316
1562A052101530A051904752A051654880A051396039A050925539A050272557A049784575
1555A049666365A049759166A049878350A050113536A050617829A051272761A051765616
1548A051898513A051663523A051205890A050894281A051146102A051945888A052780052
1541A053222088A053321712A053323467A053301826A053168020A052840489A052384740
1534A052051231A052077160A052397543A052705123A052782456A052607448A052214411
1527A051695431A051277375A051181260A051417030A051813511A052178149A052383960
1520A052413009A052381881A052477931A052833470A053384099A053820027A053817427
1513A053394302A052931340A052806500A053080418A053480799A053634751A053423871
1506A053094650A052893258A052781675A052741320A053037332A053780970A054498158
1499A054615459A054261868A054132806A054542089A055026172A055051711A054768761
1492A054734058A055099021A055469443A055469053A055059835A054393271A053768298
1485A053695448A054529417A055946897A057106252A057403044A056914672A056189101
1478A055758307A055734132A055758437A055461060A054910951A054428558A054097193
1471A053796437A053612396A053845436A054569708A055455991A056128793A056519036
1464A056776186A056978554A057062516A056963737A056713540A056414928A056184487
1457A056098900A056128403A056130223A055973736A055685262A055420378A055299374
1450A055321924A055433440A055613387A055852862A056083823A056209051A056232836
1443A056241545A056235111A056115601A055857476A055574786A055450922A055618326
1436A055921357A055906215A055402182A054909001A054940390A055278318A055402052
1429A055329008A055443253A055763051A055941243A055859295A055758827A055821473
1422A055943908A055925841A055679673A055285727A054979641A054985685A055275329
1415A055629569A056003500A056627888A057658115A058885120A059876096A060346531
1408A060387993A060327945A060415287A060708440A061102126A061289742A060872595
1401A059732021A058277824A057153107A056571805A056173309A055678699A055253883
1394A055119492A055170246A055159263A055169661A055463009A055994012A056532943
1387A056950610A057149403A056975304A056399461A055680258A055149775A054836477
1380A054561845A054326985A054200261A053979048A053454674A052920292A052934199
1373A053688300A054886971A056015262A056601958A056497200A056015522A055692996
1366A055822253A056251357A056649723A056848061A056814593A056584997A056463538
1359A056915127A057886672A058613348A058467649A057719137A057197817A057418706
1352A058296800A059563512A061012510A062196495A062426871A061531101A060229556
1345A059438803A059521336A060218118A060975338A061506796A062161077A063296452
1338A064419545A064703730A064214838A063784564A063768188A063695598A063143410
1331A062338165A061807292A061911855A062737116A063952294A064806668A064793411
1324A064249736A063902904A064015070A064285933A064388416A064343836A064345395
1317A064322065A063975689A063282090A062524871A061829453A061135139A060505033
1310A060095814A060042526A060377465A060742688A060502043A059549410A058621471
1303A058500792A059242025A060317222A061310082A062230678A063092915A063609816
1296A063620474A063324007A062894967A062557234A062888469A064037751A065068238
1289A065115743A064523913A063984592A063515586A063016037A062766100A062618516
1282A061636508A059414433A057169678A056638806A058154415A060290773A061175691
1275A060040511A057984996A057324281A059520621A063557632A066680417A066862443
1268A064675851A062635542A062251343A062473336A062190971A062902506A066572474
1261A071575896A073741823A071410831A066381805A061167438A057513586A056096365
1254A056456519A057713808A059600034A062312625A065452891A067843671A068519203
1247A067526928A065783021A064252140A063146984A062016938A060670683A059609067
1240A059407610A060047789A061001138A061786822A062292480A062524936A062282147
1233A061418675A060280830A059388699A058728893A057864511A056758315A055993687
1226A055990893A056410509A056702817A056931569A057530157A058505211A059448876
1219A060174123A060850630A061602066A062234057A062358766A061831077A061007377
1212A060313583A059648839A058602625A057201457A056143350A056307246A057957442
1205A060177762A061316906A060513156A058606069A057158046A056932218A057664809
1198A058742736A059576444A059740080A059267110A058619132A058233373A058345864
1191A059028935A059946541A060441021A060274332A059830280A059382460A058843529
1184A058397918A058668456A060002104A062087838A064364761A066388173A067908462
1177A068904636A069486653A069751732A069795208A069731456A069650678A069666275
1170A070003034A070823030A071797174A072027876A070914596A069126564A067941995
1163A067469480A066661960A065429691A065311221A067166384A069576529A070542745
1156A069967031A069509723A070052943A070356234A068913734A066014178A062986078
1149A060541945A058742086A057735709A057845925A059262950A061734963A064290937
1142A065766905A065904806A065226089A064065825A062472232A060717083A059370503
1135A059037838A059929385A061327629A062124035A062240296A062257907A061804953
1128A060066700A057599952A056019552A055924087A056326612A056217955A055722759
1121A055714831A056671429A057889271A058035880A056595330A054495949A053199603
1114A053484958A055120597A057173252A058567987A058814805A058315711A057854373
1107A057849629A058198151A058606264A058825528A058812141A058794790A059054670
1100A059619530A060141955A060000415A058753068A056742979A055029811A054398144
1093A054641063A055186428A055889319A056861318A057975833A058887915A059364719
1086A059482539A059486178A059464473A059399227A059439063A059707456A059937118
1079A059665605A058754693A057555047A056596110A056088372A055714961A055114813
1072A054456242A054244192A054670567A055461774A056302242A056950935A057112425
1065A056684946A056069981A055861700A056252267A057009617A057865356A058615622
1058A059061493A059148705A059039983A058880961A058693671A058562269A058626605
1051A058884016A059116991A059084368A058786016A058421768A058090274A057745197
1044A057435537A057334613A057510791A057824090A058050047A058079486A057995589
1037A057835657A057510986A057084026A056811929A056829605A057015726A057181181
1030A057171368A056933323A056647449A056547435A056658496A056845722A056918441
1023A056763384A056445471A056054839A055542747A054884697A054229895A053682581
1016A053048705A051965124A050420076A049041652A048607544A049361515A050944840
1009A052813065A054545793A055910700A056817063A057274436A057454838A057649407
1002A057941520A058083970A057953347A057649927A057262089A056894137A056650698
995A056530019A056556143A056775212A056993306A056898881A056414538A055753628
988A055297684A055198970A055091093A054690843A054221902A053942461A053779540
981A053593160A053316968A052807346A051954271A050825200A049572785A048363391
974A047324001A046413738A045540908A044770496A044051943A043201728A042267615
967A041359497A040293788A038812296A036860499A034302120A030662435A025613133
960A019785491A013453035A005370435I94236600I79314001I59213687I32562694
953I01020056H67551745H31272389G89751501G50297046G28027947G24542474
946G31112454G41715676G53889226G67532376G84877272H06958821H30230594
939H52387463H76494699I03345524I26356637I43556484I58755339I71993104
932I81939835I90029714I97750861A004771131A010471401A015272975A019422282
925A021639353A021235399A019401617A017769552A017811273A020398246A024794761
918A029056885A032347269A035080655A037352055A038856227A039918557A041132175
911A042663771A044197707A045389945A046209032A046777271A047192404A047562630
904A048100911A048687997A048940079A048993953A049284246A049957699A050571234
897A050854574A050936262A050973044A051040370A051079231A050938601A050664554
890A050482463A050467061A050637130A050937431A051089629A050840342A050251177
883A049579414A049120286A049015528A049156808A049284896A048949372A047448060
876A043906374A037470200A028521333A020265024A017111436A020179957A026453470
869A032235752A035498647A035706148A033402450A030239309A028300574A028656829
862A030500619A031904582A031233729A027438272A019246625A004394211I79964773
855I45251196I06440300H76292266H65959582H80041129I15070669I52678800
848I74364193I83029395I90031079A001803404A015815155A026551274A033276832
841A037684265A040718928A042694900A043807854A043899225A042936194A041347085
834A039312885A036872586A033997075A030421726A025723220A019355801A010517151
827I98498333I81218097I49303803H93809636H33411541G88492002G57903817
820G40299431G40911212G59138621G86333874H17021878H48714115H77419713
813I00722159I21250212I41748761I59797784I72862815I82409296I89798168
806I94856958I98027118A000446946A002867229A005806752A009373588A011669227
799A011107096A008076787A001908097I89709007I65607555I24705921H76761662
792H44144411H39579647H63639963I09483411I59301484I95417985A016456960
785A028588399A035632064A039047351A039052875A035136284A026960818A015610644
778A004808498A000365388A004869391A013482669A020791283A025471658A027723562
771A027514371A024874694A019924301A011175202I93041177I58997153I20366399
764H99473838H94896986H93351678H86620597H76409632H73397584H85857593
757I10013829I36917748I61148718I81105477I97216349A010652192A021590224
750A029108744A033683451A037001519A040053469A042664681A044347695A045279923
743A046016932A046809505A047608706A048466979A049471082A050301086A050543290
736A050347096A050093455A049961468A049923841A049928260A050008518A050221218
729A050526913A050758719A050802390A050768662A050890901A051271721A051782448
722A052204728A052313840A051926977A050969080A049381141A047150552A044614074
715A042341830A040471005A038640148A036440493A033619829A029990672A025072317
708A017594934A005785567I88933591I68273811I46881961I30273684I24509598
701I31645738I49062574I71403029I92206364A007685700A018251880A025600916
694A030833219A034609635A037389877A039406660A040805814A041786847A042509039
687A042927161A042815514A041960035A040230426A037417171A033122555A026902005
680A018359562A006947521I91694662I71173303I44340348I12666243H81973235
673H61049286H56670317H69037786H92083601I17947741I40945141I58699841
666I71204821I79054511I82386356I81365682I77105703I71657385I67332485
659I65982461I68297206I73504620I79816540I85288317I88641608I89868158
652I90294273I91697067I94910702I99188227A002915644A004869391A004788808
645A002948917I99580159I94888347I89450427I84355634I80898236I79998111
638I81677096I85016545I88703150I91692583I93514472I94169924I93836999
631I92611293I90419957I87118330I82779198I78039295I73972066I71205601
624I69105570I65965889I59803242I48764677I31239899I06702909H77107389
617H46902753H20712772H00723390G86342452G75752617G67003908G58015854
610G46851735G32727363G16586077G00522774F86676933F76414239F70108167
603F67580917F68920609F74801280F85629744G00127593G14818775G25151980
596G27494019G20533471G05360676F84538040F60932693F37116726F15433477
589E97565441E82930797E67696719E46667037E17156259D81557244D46714311
582D20778297D09362941D13108619D28168469D49138428D72005889D94791694
575E15980950E33320193E45102168E52621533E60190352E71587186E86459810
568F00797338F11137106F18195393F26056000F37386613F49988033F58922733
561F61273611F57936307F52526981F49996351F53450761F59551995F59355217
554F46330997F21910982E91979743E60733442E29732106E00466587D75167633
547D55307378D40719946D30817731D26244356D28506267D37890477D52358887
540D68564607D83699808D96965745E10040621E25769375E45623878E68410008
533E91578713F13370943F33477430F52272885F70088347F87125468G03622554
526G19793733G35480765G49683706G59805900G60992159G48196366G22245210
519F93810734F77540450F80433638F97688464G19771703G40275776G56377745
512G66066351G68937833G69001975G73337663G86272007H05794138H26362027
505H44023342H58053094H69183550H78089136H85337898H91523940H97072791
498I02146918I06461615I08976778I08631441I06272440I05107107I07996526
491I14735665I22934916I30760756I37724293I43726358I48687864I52801039
484I56355592I59441074I62054496I64347212I66624915I68974818I70816658
477I70802881I66987668I57613596I43440809I29768221I23943243I29164563
470I41677926I54779350I64250512I69170231I69179070I63482504I53342569
463I43530295I38447395I36588853I30459934I11569665H74870497H21909039
456G63852789G19367358G04000449G19775277G55845703G98144411H37286737
449H69766932H95679616I16529221I33686762I47537412I57786459I64573884
442I69098487I72935340I76769529I80017672I81701271I81577147I80617950
435I80577984I82784657I87102733I92238857I96981099A000873646A003984603
428A006524980A008641648A010333110A011446129A011591634A010310430A007952923
421A006192771A006786225A009757397A013472336A016418943A018270726A019316355
414A019656298A018941319A015743800A007411263I93248938I78715088I72764361
407I78637559I90414823A000685121A007866752A013975329A019489088A023373577
400A025491284A026658697A027495395A028150781A028553176A028592753A028142918
393A027073764A025607544A024439676A023983278A023662700A021920224A016346093
386A004272752I84136826I56237707I23306377H92498604H75027374H78870076
379I01066326I30204993I56260062I75936794I90346067A001193573A009491343
372A015768300A020402795A023829455A026499220A028667877A030329315A031428558
365A032140872A032848573A033778136A034778534A035571042A036115367A036579953
358A037022770A037241383A036819233A035190547A032094602A028441400A026232582
351A026796403A029238781A031250301A031348365A029965262A028603021A028411441
344A029527255A031306449A032846623A033125284A030421986A022132534A007137606
337I89592942I78267527I79279233I90197314A003348257A013613226A020852825
330A026540552A031192203A034790687A037535121A039724768A041553416A043081438
323A044315917A045325154A046127994A046594790A046727297A046808075A047077963
316A047534556A048056461A048501552A048782032A048834411A048392440A047185580
309A045588608A044527642A044522638A045160543A045474167A044786223A043501834
302A042913969A043859843A045902556A047995764A049506499A050513461A051410271
295A052286481A052853746A053016407A053025830A052914248A052305977A050995074
288A049458019A048568488A048670581A049111838A048683253A045659898A037713379
281A024338558A010129573A002679549A005137004A012065513A013786804A003917732
274I81553752I46424587H94414918H20726095G27695347F28944314E47235992
267E07089628E22164035E84408324F68261908G47761413H06783294H35678912
260H30313517H01716055G78576075G87726464H30661778H84960588I26936639
253I44660925I32059636H85615065H13667676G40631121F94435902F90820781
246G28343715G91625770H59278085I15055268I54000165I79122356I95079341
239A005144867A011263128A014784408A016724768A017380869A016050601A011736423
232A004222777I94215349I82734942I70596810I56696445I33911224H89021839
225H15907624G33351685F80685785F85036355G35403626G94541833H29944980
218H30486575H05440223G76761139G66861393G84813326H21971491H61214871
211H90848408I08844596I16912315I16604215I10163102H97528605H74547256
204H37439519G90679830G50044250G34276505G51268591G91644421H36860687
197H72117160H91747492H96478687H89157660H72556662H48825306H19990645
190G88845528G59321233G35684887G20828964G15236312G17126827G22887794
183G27827334G27394525G18366765F99973705F74748251F47779475F24229041
176F07728772F00766599F04861708F19456451F41360848F66518587F92382921
169G17854283G41731468G62825681G81438914G98938803H15080349H26860212
162H31003671H27494998H20746695H17530655H23149172H38582108H60318515
155H82374200H99039925I06999961I05991180H98764903H90850877H87965877
148H91339379H96273005H96298090H87724908H69385072H40424988H00683294
141G52608152G02336346F59389530F33481589F28692427F40671344F60913262
134F83615625G07428929G30844256G48267461G53608486G48565553G44401168
127G51378028G66018521G71996671G56422456G24640408F96793928F90048875
120G05572011G31505686G54076647G64479971G59001305G37204006G01744061
113F59090853F19325764E92865505E84306101E89043989E97647714F05636864
106F17133712F37586836F67134331G01415815G35319469G64961585G88452621
99H06013336H18087393H23053447H18328947H05271648G92286680G90508916
92H05271388H30974232H55032403H67942767H66770285H51770938H25708656
85G96699377G77854143G79412318H00718971H32511482H64832070H90495792
78I03470948H96653955H62142419G97327859G15781482F47633646F21180081
71F43361515F95356627G49523515G91423792H20465825H40365331H55428884
64H69371230H83785247H98048950I10611832I20485519I28493450I36535629
57I45467730I54507838I62030906I66862894I69057025I69665947I70129364
50I71681235I74551548I77587706I79622751I80887643I82279129I84026349
43I86149840I89451597I94359748I99202394A001516945A001332189A001286568
36A002809196A004252281A004061351A003503379A004677486A007188815A009828882
29A012173066A014141694A016138397A018355728A019783671A019713356A019457440
22A020531078A022200965A022432381A020686525A019245780A020106913A021130186
15A019421892A015178290A010933128A009250439A011030282A014672437A016024606
8A011177801A001548463I92898208I89427942I91903333I99126945A007674717
1A011638034
$$ === CHEMSPECTRA INTEGRALS AND MULTIPLETS ===
##$OBSERVEDINTEGRALS= (X Y Z)
##$OBSERVEDMULTIPLETS=
##$OBSERVEDMULTIPLETSPEAKS=
$$ === CHEMSPECTRA SIMULATION ===
##$CSSIMULATIONPEAKS=
##END=


$$ === CHEMSPECTRA PEAK TABLE EDIT ===
##TITLE=HMS-Q160
##JCAMP-DX=5.00
##DATA TYPE=INFRAREDPEAKTABLE
##DATA CLASS=PEAKTABLE
##$CSCATEGORY=EDIT_PEAK
##$CSTHRESHOLD=0.93
##MAXX=3997.453
##MAXY=0.9848236412872173
##MINX=373.96442
##MINY=0.3754629777177491
##$CSSOLVENTNAME=
##$CSSOLVENTVALUE=0
##$CSSOLVENTX=0
##NPOINTS=0
##PEAKTABLE= (XY..XY)
##END=


$$ === CHEMSPECTRA PEAK TABLE AUTO ===
##TITLE=HMS-Q160
##JCAMP-DX=5.00
##DATA TYPE=INFRAREDPEAKTABLE
##DATA CLASS=PEAKTABLE
##$CSCATEGORY=AUTO_PEAK
##$CSTHRESHOLD=0.93
##MAXX=3997.453
##MAXY=0.9848236412872173
##MINX=373.96442
##MINY=0.3754629777177491
##NPOINTS=40
##PEAKTABLE= (XY..XY)
379.63054756841257, 0.9074919200867876
988.739261172791, 0.8993748404722042
1277.7117671618448, 0.8988429876309424
848.5026038545734, 0.8972557159051643
950.4929000860043, 0.8922082753914049
1306.0424050039092, 0.8859879947710739
1366.953276364347, 0.8479495621801271
1041.1509411806096, 0.8474301078928731
3321.767287466771, 0.8338780380227773
1070.8981109147771, 0.8301538207575985
583.6111400312743, 0.8144320818971558
912.246538999218, 0.8025650358677253
1447.6955942142295, 0.8010702112386082
1579.4330601798279, 0.7942481614156112
1324.4573196012507, 0.7857281544770514
1493.0246147615321, 0.770052788666663
597.7764589523063, 0.749829706988161
504.28535407349455, 0.7250456789975769
738.0131162705234, 0.7141010145793768
491.5365670445658, 0.7134388668584141
677.1022449100856, 0.7033564430849666
553.8639702971068, 0.6827561832321564
1534.1040396325252, 0.6789941172667492
657.2707984206409, 0.6734699588634274
1714.0035899296322, 0.6645420176689243
636.022820039093, 0.6560065129964489
1015.6533671227521, 0.645701108777632
722.4312654573882, 0.6336128689860107
543.9482470523844, 0.6329048856874487
688.4345000469116, 0.6243171673086146
1106.311408217357, 0.6214323022494205
1226.7166190461294, 0.6122975332160453
1162.9726839014852, 0.5961691716792
566.6127573260355, 0.5766294577945652
474.5381843393275, 0.5697392205104677
620.4409692259574, 0.5510162097792455
528.3663962392493, 0.5359188304739775
750.7619032994526, 0.46509677019998175
1143.1412374120405, 0.3909464172506624
1195.552917419859, 0.3754629777177491
##END=

##END=

