##TITLE=RB-488-3
##JCAMP-DX=4.24
##DATA TYPE=INFRARED SPECTRUM
##DATE=7/2/2019
##SAMPLING PROCEDURE=Diamant-ATR
##ORIGIN=Angelika Moesle
##XUNITS=1/CM
##YUNITS=TRANSMITTANCE
##RESOLUTION=4
##FIRSTX=3997.453
##LASTX=373.96442
##DELTAX=-1.4165319
##MAXY=0.90812719
##MINY=0.48845154
##XFACTOR=1
##YFACTOR=8.4575935e-010
##NPOINTS=2559
##FIRSTY=0.81898844
##XYDATA=(X++(Y..Y))
3997+968346895+968091847+968175853+968341891+968111650+967316766+966372052
3988+965879364+965995929+966405739+966840216+967304292+967789228+968137726
3978+968295519+968355352+968299536+968038638+967714948+967636510+967885638
3968+968212499+968302778+968086068+967809807+967816784+968239421+968911750
3958+969484216+969650395+969464271+969318177+969407539+969490770+969309156
3948+968870451+968236390+967493939+966915694+966746978+966900472+967137055
3938+967327267+967409299+967376528+967373428+967629110+968195656+968837046
3928+969309227+969612480+969789160+969643066+969062002+968479458+968503771
3918+969175677+969911856+970226737+970142379+969849556+969393233+968743808
3908+967981061+967326844+967046707+967367014+968356338+969764000+971045512
3898+971639191+971299785+970198054+968829435+967891276+967799941+968153371
3888+968378467+968459443+968453734+968132158+967608038+967411202+967547993
3878+967422901+967030568+967013866+967586895+968402993+969380900+970593276
3869+971511632+971744903+971689581+971636231+971333895+970675520+969893321
3859+968999913+967860760+966766077+966682634+968199039+969832502+970269586
3849+969945332+969541723+969320291+969233255+969194353+969281671+969658641
3839+970222791+970444786+970008054+969425369+969396897+969935254+970418146
3829+970462898+970273744+970022783+969587884+969071657+968880529+968938953
3819+968720622+968444573+968730911+969307606+969267717+968486435+967603950
3809+967297385+967726435+968121517+967615015+966570157+966164293+966952271
3799+968235756+969349327+970171203+970579886+970570019+970367687+970082898
3789+969694019+969376107+969417406+969766749+970040543+970113484+970291785
3779+970785813+971348483+971606139+971395631+970722668+969857591+969318882
3769+969278641+969243404+968896879+968567974+968547536+968705681+968910129
3759+969208378+969556523+969788666+969831656+969703040+969516775+969567728
3750+969959920+970275999+970219760+969982472+969896775+969835250+969473151
3740+968938530+968709980+969177862+970170780+971082793+971548913+971485838
3730+970932119+970214263+969831797+970009041+970502505+970938814+971077437
3720+970855512+970539574+970534148+970919363+971481821+972094669+972677777
3710+972904283+972535418+971770556+970963903+970404756+970308699+970656774
3700+971125713+971467162+971589929+971276740+970382980+969339108+968994416
3690+969702828+970669741+970937334+970670234+970466633+970560858+970821755
3680+970882222+970505253+970088536+970412227+971304859+971747440+971784510
3670+972121027+972623159+972595110+972149005+971882470+972009818+972288334
3660+972470440+972623441+972876798+972950232+972444929+971666676+971379351
3650+971860693+972372692+972228642+972024688+972276424+972614632+972487636
3640+971850968+971164615+970776722+970637957+970614419+970663962+970767912
3631+971055026+971773305+972647966+973040863+972942832+972651490+972288334
3621+971930886+971739829+971722281+971735742+971825526+972018839+971993538
3611+971551662+971177652+971388301+971803468+971765341+971421847+971342916
3601+971555608+971502118+970946848+970363388+970292208+970688910+971089982
3591+971354051+971887544+973029869+974243655+974538944+973763229+972557406
3581+971612904+971232552+971254963+971441228+971795997+972262540+972426112
3571+971997485+971363001+971220994+971616146+971834195+971589154+971233539
3561+970912949+970480939+970008477+969778588+969843002+970034130+970245624
3551+970407434+970449719+970472905+970658536+971029444+971552155+972179944
3541+972548385+972193898+971281391+970558180+970423925+970617590+970855653
3531+971122894+971362014+971410360+971256161+971097805+971166447+971518186
3521+971939414+972145763+972073386+971841877+971552860+971261799+971006963
3512+970773903+970560083+970456273+970530131+970719567+970906254+970933810
3502+970652052+970167116+969853714+969947516+970333224+970800824+971210635
3492+971380831+971188787+970817245+970613150+970680030+970865027+971066937
3482+971300278+971490842+971473928+971253272+971027894+970867070+970585453
3472+970098685+969642008+969463707+969600851+970061615+970873131+971794236
3462+972291012+972024829+971252215+970603354+970475231+970704626+970895542
3452+970969470+971189985+971724959+972364940+972674253+972414131+971831023
3442+971409021+971287452+971112322+970575728+969822847+969169898+968763189
3432+968697084+969048893+969577947+969816222+969697472+969674074+969979441
3422+970226244+970058021+969811782+970020035+970517657+970663892+970364938
3412+970239211+970710335+971560260+972464309+973291894+973756322+973426641
3403+972301794+970996673+970220253+970203621+970587427+970813651+970651488
3393+970283117+969980851+969894872+970091214+970558955+971123669+971482315
3383+971445527+971151788+970929511+970930145+970997519+970867493+970438302
3373+969965840+969961047+970620691+971394433+971458565+970673194+969794868
3363+969664278+970372902+971327904+971957807+972127088+971980430+971697121
3353+971432841+971329948+971559978+972236323+973104854+973556244+973227550
3343+972357258+971420508+970761922+970582353+970858261+971271172+971520935
3333+971660193+971952945+972481505+972969401+972978211+972345559+971453420
3323+970968343+971241432+971971832+972520618+972555503+972282203+972056542
3313+972010945+972081913+972111724+971905515+971485204+971246295+971512830
3303+972010663+972166694+971912069+971770627+972095233+972641130+972995195
3293+973036564+972854105+972556279+972308067+972310322+972567837+972788352
3284+972685529+972394751+972426394+973081245+974009608+974492712+974126596
3274+973197176+972418219+972271984+972581791+972784687+972607937+972365926
3264+972522239+973072365+973508956+973458214+973201897+973326497+973946181
3254+974624570+974990264+975000553+974677004+974090795+973562446+973399579
3244+973490703+973503106+973321352+973027543+972754735+972728166+973107814
3234+973729119+974286644+974628376+974627248+974122509+973312261+972835499
3224+973117962+973866756+974423013+974483339+974286221+974118210+973929056
3214+973610439+973359972+973446374+973833844+974316455+974791525+975166732
3204+975263001+975021907+974647334+974405606+974373751+974405112+974318992
3194+974144144+974119126+974375019+974745576+975006543+975128747+975141221
3184+974960876+974591165+974307364+974423718+974967359+975686272+976273538
3174+976534999+976465652+976275511+976262614+976545922+976928812+977102179
3165+976938326+976482213+975784514+974986106+974445353+974457263+974856503
3155+975162574+975147845+975076102+975359481+976102355+977043685+977841036
3145+978267056+978198061+977662806+976951293+976464947+976403282+976686519
3135+977082587+977297817+977107606+976567770+975995656+975644974+975470196
3125+975235163+974802308+974316807+974092345+974244712+974516251+974625205
3115+974661288+974873417+975191328+975280901+975041781+974776725+974880746
3105+975501346+976422169+977191612+977462869+977256096+976846074+976463749
3095+976192139+976013838+975864432+975701072+975516357+975222407+974600116
3085+973475269+971868939+969883032+967560045+964977006+962427231+960351609
3075+958971433+958015584+956980522+955716417+954596433+954059839+954200718
3065+954795242+955456084+955743339+955348821+954175065+952124744+949026605
3055+945064165+941187140+938786278+938830043+941304762+945358256+949835021
3046+953770751+956687347+958679879+960255905+961923054+963790352+965534954
3036+966756351+967303728+967216269+966480513+965017176+962871644+960314822
3026+957787951+955745100+954399950+953616694+953112095+952691431+952268442
3016+951897040+951899507+952698479+954340258+956331380+958017064+958959452
3006+958882494+957412955+953978229+948008528+939447683+929235334+919140959
2996+910921494+905616580+903585217+904890057+909282816+915807223+922826223
2986+928836165+933255141+936351095+938672954+940695367+942624049+944216847
2976+944980723+944687478+943443388+941274176+938084279+934084769+929872566
2966+926030496+922934895+920889225+920100825+920496681+921774035+923623151
2956+925783976+928007382+930123386+932072223+933803434+935269519+936515160
2946+937584543+938345106+938602409+938355113+937765874+936934132+935834656
2936+934441935+932842370+931209612+929658323+928162356+926687391+925315178
2927+924138462+923144627+922310207+921680304+921260768+920919811+920391744
2917+919293607+917271617+914365945+911204943+908677368+907419746+907653441
2907+909309878+912094757+915533359+919164568+922655321+925687003+927967423
2897+929566353+931046322+932965631+935295454+937539510+939369386+940869440
2887+942198099+943369178+944372385+945152258+945413931+944736458+942836882
2877+939511392+934663084+928874292+923689608+920761877+920678999+922764134
2867+925827388+928889514+931382205+933057036+933907314+934148055+934095058
2857+933930429+933632956+933198902+932870842+933048932+933958619+935458321
2847+937227941+939095873+941056761+943030758+944827229+946377884+947827408
2837+949360162+951017657+952664439+954094089+955207801+956109666+956977844
2827+957820299+958422364+958633295+958652535+958838517+959252063+959633049
2817+959840104+960038420+960411442+960889190+961226341+961261156+961071227
2808+960900114+960970730+961374973+962016222+962585094+962771147+962594397
2798+962382620+962397067+962652961+963059741+963513669+963873160+964044343
2788+964129547+964325114+964640700+964862061+964832391+964621531+964391713
2778+964253230+964270003+964456902+964750852+965043957+965250518+965365815
2768+965471668+965595633+965584568+965290900+964869038+964681717+964887714
2758+965292380+965619030+965778867+965829538+965802546+965692112+965553066
2748+965500210+965622977+965923269+966284382+966531255+966585097+966535060
2738+966500105+966500951+966519486+966605606+966807375+967024155+967075179
2728+966954033+966861147+966904136+966948888+966869745+966752193+966726752
2718+966782286+966897089+967201681+967775627+968329206+968407433+967965979
2708+967447778+967227474+967279696+967417615+967541933+967633338+967703883
2698+967764915+967803112+967830245+967890219+967959072+967939833+967788171
2689+967559904+967368001+967330861+967480056+967708112+967863368+967862240
2679+967720304+967557578+967532489+967702404+967990786+968266483+968399398
2669+968338861+968190159+968078668+967944766+967636439+967177719+966794055
2659+966723087+967064325+967704447+968334280+968685173+968789476+968888916
2649+969096675+969315076+969448273+969509305+969521003+969485061+969450599
2639+969477661+969537424+969530870+969394572+969173422+969018589+969108092
2629+969494857+970015877+970403347+970522519+970442390+970255491+969990294
2619+969766749+969819323+970213276+970714915+971079270+971296332+971461313
2609+971552366+971486261+971338899+971346016+971597964+971870771+971924684
2599+971835252+971799451+971755615+971538906+971334459+971578301+972341754
2589+973178923+973677884+973820524+973693177+973221067+972418994+971656528
2580+971437493+971921513+972704487+973129872+972916898+972434851+972245979
2570+972519209+973039665+973556808+973912001+974051118+974116448+974293057
2560+974434641+974173391+973547717+973107179+973199219+973536159+973678659
2550+973595710+973540881+973684015+974077546+974723658+975463431+975983605
2540+976112714+975977473+975777184+975589299+975468082+975496484+975657659
2530+975831450+975940333+975974091+975934907+975844276+975724469+975590144
2520+975579573+975946887+976704279+977415439+977600154+977249190+976745436
2510+976391653+976279246+976508430+977122265+977793959+978034419+977831804
2500+977664074+977772323+977848295+977579011+977100981+976784902+976837406
2490+977161519+977432706+977356804+976950236+976464877+976077407+975861402
2480+975905660+976186149+976509980+976755303+976877295+976658118+975936246
2470+975073988+974699767+975026488+975778946+976612592+977280058+977578447
2461+977472876+977220718+977115992+977062079+976674468+975963167+975551172
2451+975924476+976841071+977733915+978286295+978408851+978127586+977694731
2441+977426927+977291263+976935859+976239146+975585352+975411773+975653501
2431+975886068+975929692+976011795+976319135+976692580+976885752+976906471
2421+976904639+976866230+976706464+976576508+976765944+977335169+978054645
2411+978612734+978820353+978813164+979004644+979566328+980112436+980165856
2401+979748787+979306346+979197886+979382318+979558857+979555263+979490356
2391+979515515+979551528+979419670+979163001+979070467+979304091+979613757
2381+979613616+979275478+978907953+978732400+978751358+978885612+978980260
2371+978850305+978480594+977978814+977364486+976593845+975662451+974651915
2361+973785992+973193934+972668193+972108694+971901780+972336257+973105206
2351+973740747+974100239+974297145+974526047+974944385+975451450+975690712
2342+975522559+975180757+974863268+974555646+974257820+974082902+974189882
2332+974767211+975777607+976571364+976313426+974986951+973465825+972547892
2322+972308560+972456205+972862139+973513678+974293198+974979058+975370545
2312+975457722+975481895+975729121+976259020+976831909+977106549+976969687
2302+976621189+976248519+975819751+975385838+975326428+975964718+977053834
2292+977930750+978207716+978115888+978090164+978212438+978289819+978325832
2282+978539863+978911477+979064830+978778843+978383410+978335064+978481933
2272+978244011+977651882+977563225+978489051+979832933+980722747+981005492
2262+980996048+980801890+980389261+979946539+979741457+979766194+979764080
2252+979489017+978875464+978132308+977683666+977765628+978062820+977990302
2242+977475413+977286964+978275865+980231961+981928781+982480104+982113847
2232+981376752+980293979+978744099+977100699+976028004+975854988+976376783
2223+977220084+978304478+979749632+981409946+982888858+983946542+984511327
2213+984472706+983944569+983587121+984201943+985894745+987785300+988643682
2203+987908419+986199125+984845659+984656011+985014375+984630711+983304518
2193+982159233+981961552+982264099+982435071+982483417+982717816+983356528
2183+984384261+985341519+985663024+985391697+985028118+984836920+984804219
2173+984850380+984501531+982867504+979828987+976889698+975735181+976108768
2163+976541271+977142773+979624328+983800237+986433665+985452446+982721621
2153+981384364+982424641+984325062+985442227+985724126+985836603+985953239
2143+986161492+986812326+987751331+988261145+988237888+988439869+989216007
2133+989901091+989778536+988921986+987876917+987166391+987193594+987914198
2123+988479053+987970648+986584833+985286407+984385600+983437785+982401525
2113+981808692+981843506+982191370+982691599+983326647+983774232+983725815
2104+983451528+983407904+983522989+983459069+983358219+983670422+984327528
2094+984722892+984538389+984034213+983505018+982874833+981911514+980647621
2084+979500716+978954396+979179421+980023145+981197394+982241407+982555653
2074+981943792+981044816+980817958+981596493+982857426+983823987+984127451
2064+983978961+983783393+983518761+982669752+981058418+979444759+978769118
2054+978961020+979119377+978788569+978534155+979308249+981374074+983687689
2044+984554316+983368720+981546244+981101126+982554667+984970328+987390782
2034+989092465+989093663+987022481+984306034+983148909+984259520+986261848
2024+987356109+987185983+986990274+988043519+990320486+992902186+994988590
2014+995931612+995299736+993617716+991977276+990539451+988745518+987080834
2004+986890553+988307376+989808840+989899118+988672153+987646394+988094754
1994+989661971+990819518+990539028+989271400+988311605+988581523+989910464
1985+990986543+990289337+987794320+985601852+985941399+988384546+990436629
1975+991067589+991185986+990879351+989054056+985614608+981958239+979284640
1965+977546522+976123638+974717033+973368993+972124057+971119088+970748532
1955+971268565+972522592+974342178+976681868+979200000+981380065+983130375
1945+984745091+986352055+987691991+988267769+987765849+986536558+985367876
1935+984465166+983083086+980691033+978019619+976385733+976303630+977238125
1925+978440353+979457797+980063456+980284747+980359379+980352684+980158174
1915+979974940+980098764+980273682+979940055+979111061+978387568+978078536
1905+977923421+977667105+977467661+977693039+978488628+979603468+980522881
1895+980697658+979821869+977987483+975496624+972732465+970341399+969119438
1885+969480903+971178146+973481823+975669288+977401415+978691102+979729054
1875+980720280+981657030+982278899+982477990+982684763+983554914+985120651
1866+986729800+987734065+987816097+987178160+986491454+986172979+985936043
1856+985426300+984855384+984623734+984708656+984747346+984532680+984236052
1846+984170370+984400047+984673841+984790406+984723455+984484053+984203141
1836+984110396+984211386+984299409+984351278+984531905+984764895+984724583
1826+984296872+983579439+982556569+981080547+979110920+976756289+974184174
1816+971700081+969822071+969045792+969467161+970582846+971597541+972152952
1806+972612236+973619390+975518401+978049641+980414914+981855910+982328020
1796+982423443+982760171+983527500+984346134+984726345+984748756+984789561
1786+984965536+985135873+985192324+985139256+984915288+984374253+983463297
1776+982302579+981121352+980121245+979266599+978299967+977102461+975769432
1766+974497998+973610510+973471886+974175365+975300141+976396516+977480981
1756+978576933+979415794+979869439+980079031+980089250+979792269+979254125
1747+978625349+977826025+976667280+975156091+973550888+972215886+971426640
1737+971295627+971835181+972714917+973231990+973265043+973166449+973015139
1727+972770592+972605259+972694902+972908652+973053830+973270258+973947168
1717+975190271+976487076+977356382+977754564+977790717+977571752+977223114
1707+976887443+976595255+976210745+975680282+975195486+974994845+975096751
1697+975500078+976177974+976721052+976840084+976780321+976828526+976981456
1687+977262227+978064793+979599451+980934101+981265684+981002109+980722254
1677+980733459+981054683+981397683+981559000+981801644+982482430+983383449
1667+983883679+983910318+983883397+984158601+984707528+985174494+985287253
1657+985044750+984708938+984813522+985669367+986257619+985837379+984884561
1647+983884524+983054826+982397579+981991785+982057186+982649737+983578100
1638+984673559+985785650+986360512+985954014+984860176+983487681+981965850
1628+980247748+978457197+977114371+976826482+977552583+978611677+979692618
1618+981055951+982698647+983951898+984538036+984830506+985145951+985558933
1608+986069522+986584904+986787942+986214912+984460514+981483028+977984241
1598+975305638+974631125+976185021+979118672+982046755+983411146+981228403
1588+973500499+960541468+946966912+939429219+941037804+948763241+957238389
1578+963451017+967168910+969356445+971053617+972978775+975646524+978990690
1568+981939070+983515307+983533349+982046685+979249896+975605367+972491371
1558+972377555+974632393+976728663+978204756+979371535+980449587+981546667
1548+982656150+983780504+985043763+986487226+987952959+989425176+990863846
1538+991667047+991647243+991260408+990890486+990620145+990360868+990152263
1528+990183202+990566584+991129395+991652176+992350933+993603198+995142225
1519+996410911+997375639+998167000+998730938+999049907+999242021+999536676
1509+1000439527+1002504577+1004940324+1006310987+1006747436+1006346858
1500+1003059002+992030626+970695464+947929103+937260994+941399410+954600591
1490+969968306+982135413+989665212+994333598+997772059+1000565606+1002803319
1480+1004509160+1005882359+1007282339+1008996566+1011061334+1013195309
1472+1014635671+1014332207+1010836731+1000087154+973896073+927593343+873473065
1462+831292542+809462578+808456058+827039746+854749626+876852328+892234702
1452+905389440+916922627+921913857+912032316+885388859+854403525+836652073
1442+839923016+857839520+879494284+899576968+916658840+928374133+933802941
1432+934198233+929803430+919774597+904619645+887137689+871903876+863862711
1422+865063036+874055186+888062317+902845938+914466513+922714450+929109466
1412+934338830+938279424+940821658+942401842+943912820+946022832+948605449
1402+951104059+953152970+954498755+954873610+954201352+952708416+951040138
1392+950144193+950630046+952489662+955170802+957690202+959326978+960165204
1383+960579102+960778475+960919847+961214502+961839049+962805468+963886409
1373+964793278+965515573+966265565+967158268+968127296+969082933+970022854
1363+970966440+971841313+972556983+973189705+973916159+974759459+975548705
1353+976190589+976823452+977603395+978471996+979231291+979782262+980185025
1343+980523515+980838537+981133403+981269983+980977302+980231115+979466958
1333+979220508+979623905+980350218+981010002+981487821+981896081+982313150
1323+982649314+982780890+982742341+982639730+982344370+981514953+980101653
1313+978645153+977891567+978175650+979290983+980775955+982179530+983208813
1303+983765422+983849921+983481621+982749388+981897842+981253422+980968915
1293+980846712+980519005+979831101+978952000+978057253+977054257+975801216
1283+974528936+973805443+974023985+975055805+976431331+977746107+978872856
1273+979869933+980726482+981201200+980913734+979579436+977230937+974362334
1264+971813687+970311166+970046886+970704485+971864217+973344256+975190905
1254+977454271+980023497+982563899+984545648+985547516+985716867+985758799
1244+986274181+987252793+988350718+989450828+990735935+992376022+994387793
1234+996755955+999455418+1002302526+1004955265+1007204113+1009193191+1011262540
1224+1013641836+1016371251+1019372840+1022456954+1025366714+1027919590
1215+1029984076+1031283911+1031294412+1029151276+1023186931+1009945931
1207+983450471+937229421+870797704+795788088+732723865+698116836+694255808
1197+711520632+738208207+766895853+794284369+818868415+839844648+857106442
1187+871183906+882810189+892548596+900780324+907704887+913215234+917160479
1177+920017242+922990781+927074509+932116622+937080508+941135270+944234537
1167+946687197+948205787+946948588+939652764+924555883+905634481+892201579
1157+891439465+901607768+914659331+924749971+931864393+938191471+944301417
1147+949334862+952601294+953719516+951910642+946366960+937915140+929672982
1137+924846874+923899130+924732000+925328357+925170987+924398725+922832777
1128+920203365+916887601+914134647+913431098+915405940+919248222+923364649
1118+926765759+929777566+933365434+937920919+942852669+947205398+950393462
1108+952290712+952939079+952455271+951065086+949063041+946977201+945817117
1098+946636526+949656790+954117698+958929289+963209711+966487842+968801316
1088+970530765+971961543+972940648+972833174+970742048+965886200+958070132
1078+948021566+936669077+923367750+906127663+885779782+869063040+864379361
1068+873856448+891590422+909687059+924029790+934477806+942247643+948361183
1058+953369680+957399071+960484102+962928658+965177013+967504651+969959920
1048+972373961+974187063+973957175+969098860+957534312+941078397+926260596
1038+919644149+921851698+927108618+928965416+926158267+922960547+924368985
1028+931513640+941582362+951113009+958569374+964247028+968933385+973276178
1018+977789590+982676236+987500582+989775646+982544095+957194272+914904161
1009+873276300+853685599+861662068+885035781+908953487+925959035+934198586
999+934550818+931026589+929296435+932680278+940249474+948564009+954333844
989+955751655+952959447+948440115+946108459+948478876+954687346+961809731
979+967565260+971363424+973685495+975337352+977013029+978957708+980935017
969+982641985+984087985+985470910+986921984+988517814+990233943+991708274
959+992148741+990383420+985351808+977567453+970048577+966374519+967451091
949+971177159+975242916+979129737+983369707+988023152+992361011+995532866
939+997111007+997051949+995295930+991196135+982706751+965836374+936184633
929+893652089+846852090+810652121+796334690+803808181+823659285+844708178
919+858791422+862359486+858003232+853550429+856049744+865990413+878527371
909+889326422+897554133+904287286+910353115+915954938+921027215+925395449
899+928909952+931572346+933590036+935445917+937762421+940853371+944496843
890+948223617+951683150+954769378+957629524+960547670+963693732+966976937
880+970192416+973163066+975044741+972864183+962256400+942677186+921822240
870+911079991+915030381+928016403+941469250+951193069+957137117+960279937
860+961792042+963039867+964730062+966691021+968837540+971585560+975007319
850+978288903+980635781+982305468+984146831+986489834+988994082+991179573
840+992755176+993819556+994874844+996393926+998496187+1001041099+1003666987
830+1005855861+1007377551+1008534252+1009775382+1011277128+1012901218
822+1014365400+1015515618+1016463432+1017419563+1018538631+1019942910
813+1021638884+1023398073+1024926952+1026203812+1027559675+1029372426
805+1031700628+1034325388+1037097088+1040032360+1043052695+1045765759
796+1047611633+1048342456+1048316521+1048246399+1048893427+1051005413
788+1054911333+1060013561+1065205715+1069670076+1072801056+1073741823
779+1071192471+1062452127+1041773226+1001799125+941389120+874369081+826374394
769+816914503+843567968+884937186+917017556+926750114+915534768+892605821
759+862275903+818714991+757035102+686313661+626000911+591142076+584537327
749+599791226+627370869+659120783+689880879+715742490+732669106+739177516
739+739488732+741119446+748679339+761252732+775427240+789012861+801731996
730+814156546+826918036+840340015+854341366+868645759+882963260+897072861
720+910991264+924977816+939192494+953386805+966788135+977993121+984866096
710+984192499+970248232+933456487+864819194+768359754+668774197+599188667
700+577530168+596187572+633977380+673795238+708626588+737747302+762376028
690+783682647+801797044+814793708+818363957+808408417+786352300+761654790
680+746493495+746867505+759507073+776887758+793168966+805571176+813774221
670+819639338+826113144+833742948+839992927+844291602+847731191+851078246
660+854949775+859929306+865835228+871488639+875607603+877884994+879188846
650+880714342+883108297+886480653+890599336+894730986+898020464+900368822
640+902410263+904608581+906863278+908949541+910955040+913161532+915645554
630+918202518+920625016+922866323+924954559+926780136+927896173+927479809
620+923771711+913153357+892561211+866218540+847037931+845973129+861437465
611+882203331+898665519+908664189+914568771+918887955+922750110+926064958
601+928271099+929295660+929864814+930875985+932618120+934672317+936518684
591+938002388+939119271+939895056+940776131+942519182+945239647+947948060
581+949442195+949606542+949525425+950198459+951564611+953054728+954489312
571+955908390+957120978+957797183+957541924+955887459+952672544+948241376
561+942551389+933148371+914074462+880162313+836398435+800708421+790956835
551+808659589+839101210+865862642+881933977+889053191+890972852+887385478
541+873028088+844874922+810947339+787853270+786948093+805167356+830483140
531+853138856+870393532+883758920+894735708+903374146+909655063+914645800
521+919505384+924141563+927352461+928350242+927989129+927915836+928720023
511+929416947+928332130+924054879+916112802+905546881+894914714+887798601
501+887528401+894543242+905410512+915624623+922923266+928102171+933122225
492+938567242+943124701+945625003+946818844+948352797+950552594+952370419
482+953494561+954976997+957405626+959446291+957632061+945335774+912905639
472+856656461+790730964+741370618+727877248+749374995+787945874+825138197
462+853004391+872659787+888180855+901689589+912479337+920339452+926604231
452+931696381+934876764+936252007+936592259+935729437+933097066+928461662
442+919720261+902027444+873072135+839042223+813461243+807284557+819943647
432+843132505+868957610+891595355+906992035+914718107+918299068+921941906
422+927103544+932675486+936735816+937818308+936254051+933249926+929676858
412+926769917+926311408+929175994+934266100+939438662+942992913+944194437
402+943513862+942589445+942812146+943855242+945296661+948154692+951587375
392+952438850+949213504+943355999+936617207+929683482+923586222+919630758
382+917263513+915172105+913892919+915544564+922238745+932885783+940669714
##END=
