##TITLE=HMS-Q600
##JCAMP-DX=4.24
##DATA TYPE=INFRARED SPECTRUM
##DATE=2/12/2022
##SAMPLING PROCEDURE=Diamant-ATR
##ORIGIN=Angelika Moesle
##XUNITS=1/CM
##YUNITS=TRANSMITTANCE
##RESOLUTION=4
##FIRSTX=3997.453
##LASTX=373.96442
##DELTAX=-1.4165319
##MAXY=1.0006875
##MINY=0.24542123
##XFACTOR=1
##YFACTOR=9.3196284e-010
##NPOINTS=2559
##FIRSTY=1
##XYDATA=(X++(Y..Y))
3997+1073004154+1071806961+1070665794+1070006535+1069821254+1069814859
3989+1069847988+1069954986+1070040240+1069904077+1069518167+1068975947
3980+1068344510+1067889782+1068158461+1069375225+1070847429+1071394253
3972+1070530974+1069000251+1067960326+1067839896+1068228493+1068669214
3963+1069063567+1069329496+1069180927+1068450868+1067407234+1066627034
3955+1066511274+1066812059+1066818966+1066186121+1065262532+1064395480
3946+1063496898+1062676854+1062471939+1063008210+1063659730+1063913380
3938+1063757007+1063286163+1062764730+1062756415+1063472787+1064280360
3929+1064466663+1064016861+1063237556+1062318444+1061336272+1060284962
3921+1059219903+1058562562+1058944444+1060355442+1061815686+1062507754
3912+1062672889+1062907543+1063136442+1062806045+1061933557+1061310817
3904+1061473329+1061968669+1062413931+1063352422+1064883529+1065794071
3895+1065047064+1063195282+1062096325+1062906264+1064050566+1063612850
3887+1062493172+1062700070+1063760589+1063704244+1063123139+1063875518
3878+1065233624+1065294830+1064127441+1062609700+1061017323+1060211285
3870+1061667116+1064392411+1065658036+1065438987+1065718987+1066878190
3861+1067366814+1066442969+1064509258+1062044713+1060156219+1061344650
3853+1066383298+1070274063+1070200705+1068129681+1065584167+1063098644
3844+1061255303+1060428416+1060187301+1060190883+1061066249+1063040764
3836+1064719418+1065050454+1064685457+1064559656+1064587412+1064277162
3827+1063799538+1063394441+1062585908+1061314910+1060831211+1061598875
3819+1061905033+1061611219+1062715803+1065069961+1065926012+1064359729
3810+1061841780+1060276456+1060860567+1062509673+1062588786+1061082942
3802+1060660768+1062135850+1062925067+1062239523+1062041515+1063178909
3793+1064394009+1064659107+1064135371+1063348009+1062823185+1063007826
3785+1063637985+1063589187+1062339806+1061011695+1061044440+1062142501
3776+1062787946+1062396087+1061352261+1060178284+1059498047+1059696695
3768+1060357680+1061047062+1061751090+1061937202+1061012206+1059783355
3759+1059805612+1060995706+1061543553+1060705473+1059464087+1059288080
3751+1060802814+1062260884+1061710222+1060372390+1060793924+1063179612
3742+1064273260+1062457996+1059054960+1055535140+1053133335+1052898744
3734+1054722067+1057151884+1058624920+1058439127+1057130971+1056032142
3725+1056039689+1056878280+1057911810+1058788839+1059127678+1058707359
3717+1057603350+1055829849+1053781913+1053010923+1055105867+1058830218
3708+1061192307+1061120228+1059364955+1057476077+1057153419+1058604262
3700+1059879737+1059624936+1058629524+1057940270+1057373684+1056198300
3691+1054716567+1054743172+1057485159+1060862166+1062116855+1061035486
3683+1058913681+1056993657+1055544094+1054012539+1052772175+1053867934
3674+1057375475+1059854027+1060453806+1061307172+1062760572+1062616863
3666+1060492564+1058182855+1056975046+1056526906+1055809895+1054885091
3657+1055054510+1056727024+1057929270+1056924073+1054573625+1053440388
3649+1055541407+1059179227+1061042394+1060762586+1059719591+1059023046
3640+1058892767+1058738314+1057939950+1056652580+1055424496+1054147806
3632+1052470559+1051554580+1053746417+1058031088+1059912163+1058747971
3623+1056899258+1055950406+1056322119+1057771171+1059325878+1060128654
3615+1060423427+1060631924+1060482075+1059847567+1059483337+1059959106
3606+1060625528+1060601289+1059965054+1059247340+1058539538+1057490212
3598+1056022101+1054652355+1054025394+1054212529+1054549961+1054559427
3589+1054850618+1056567070+1059300359+1060797186+1060165556+1058597738
3581+1057397156+1056964621+1057048339+1057320280+1057606292+1057720325
3572+1057289646+1056082092+1054616667+1054123950+1055242157+1056739752
3564+1057202346+1056868111+1056552872+1056410826+1055996519+1055028864
3555+1053856422+1053252293+1053683868+1054551432+1054629906+1053590109
3547+1052486739+1052496525+1053423248+1054051424+1053733370+1052931042
3538+1052559138+1053019493+1053734777+1053837107+1053235281+1052572952
3530+1052350385+1052387863+1052073072+1051197642+1050495277+1050877222
3521+1052091235+1052908402+1052711161+1052059065+1051683580+1051672835
3513+1051812515+1052150395+1052837730+1053615563+1053936431+1053711370
3504+1053473709+1053649012+1054014009+1054085320+1053706381+1053073536
3496+1052519101+1052242747+1052091107+1051787636+1051354398+1051041845
3488+1050985372+1051183188+1051635996+1052243067+1052707708+1052801723
3479+1052691463+1052797246+1053294888+1053871196+1054068884+1053810885
3471+1053406555+1053105130+1052873737+1052617977+1052442226+1052568923
3462+1053024546+1053484773+1053510612+1052961421+1052145086+1051529957
3454+1051359578+1051577924+1051995621+1052335611+1052220299+1051432744
3445+1050318886+1049688663+1050096063+1051212543+1052096927+1052204501
3437+1051833748+1051487618+1051197322+1050641992+1049635835+1048461155
3428+1047894952+1048616184+1050278082+1051532452+1051404603+1050357195
3420+1049587293+1049490655+1049356348+1048454631+1046946804+1045648369
3411+1045170297+1045496409+1046259980+1047123962+1047835921+1048243896
3403+1048439538+1048630894+1048796349+1048790592+1048723439+1048778952
3394+1048876102+1049035736+1049649842+1050780968+1051737239+1051944136
3386+1051707115+1051648212+1051925397+1052410760+1053112421+1054003265
3377+1054775790+1055124670+1055112518+1055025538+1054963181+1054803163
3369+1054507622+1054216494+1054059994+1054102525+1054436823+1055064615
3360+1055691576+1055937615+1055782458+1055494847+1055101710+1054355471
3352+1053324947+1052514177+1052180838+1051982190+1051519277+1050814609
3343+1049984716+1048837600+1047134003+1044969731+1042559676+1039876145
3335+1036778563+1033214229+1028957315+1023476092+1016420590+1007951469
3326+998306515+987314456+974616498+960275509+944946847+929285934+913301147
3316+896734616+880190662+865367316+853932106+846500095+842706096+841777582
3306+842947977+845597612+849104321+852759728+856150421+859515531+863444287
3296+868330335+874199580+880855868+888111808+895893466+903956531+911616609
3286+918204080+923773819+928964746+934202490+939311937+943771463+947153522
3276+949474870+951191194+952715778+954082263+955257519+956512080+958180757
3267+960202535+962116419+963535859+964591838+965772658+967234245+968593439
3257+969687790+971096038+973426404+976419674+979184685+981083732+982153972
3247+982891577+983784275+984963880+986262124+987478823+988416802+988839104
3237+988777450+988768688+989325937+990263469+991011499+991471662+992023986
3227+992807448+993547227+993990826+994131402+994175148+994435001+994988732
3217+995495392+995634049+995503450+995395237+995480234+995819201+996379008
3207+997016906+997560916+997854922+997864068+997847055+998090152+998386460
3197+998188005+997306051+996139877+995329426+995322903+995959649+996467907
3187+996302389+995842162+995798799+996227049+996652357+996877866+997107532
3177+997447970+997765703+998024981+998467940+999356993+1000609060+1001782654
3167+1002530236+1002976841+1003466872+1004071960+1004618016+1005065325
3159+1005522546+1005962436+1006217557+1006240005+1006200480+1006372202
3150+1006996541+1008117307+1009386578+1010152963+1009957961+1008933769
3142+1007590948+1006274989+1004978920+1003648379+1002478815+1001769543
3133+1001534312+1001466327+1001349863+1001253481+1001223742+1001101330
3125+1000784939+1000387005+1000040044+999854827+1000092551+1001022216
3116+1002492949+1003872161+1004489784+1004025719+1002523968+1000298938
3108+997836566+995511061+993360987+991356541+989757449+988841854+988375679
3098+987692372+986238140+983882512+980965349+978286679+976867238+977373323
3088+979579614+982394191+984625745+985869242+986564316+987240331+987993669
3078+988690918+989303936+989900838+990497996+990959758+990949141+990172651
3068+988779369+987154758+985142765+981923986+976796695+969440344+959430586
3058+946765309+933419476+923128439+918438927+918346446+919466189+919256029
3048+917946913+917826420+920954317+927412022+935492994+943219395+949379959
3038+953412195+955203348+955500743+955928865+957879972+961396530+965416295
3029+968968988+971842917+974283287+976444617+978206606+979414607+980233180
3019+981079638+982149303+983300959+984517467+986058232+987932335+989643543
3009+990717173+991133335+991081466+990647589+989848778+988691621+987182195
2999+985491453+983993539+982962056+982421628+982466461+983427592+985409078
2989+987833459+989758920+990610878+990421248+989491839+988170955+986883073
2979+985874678+984781989+982833377+979690194+975793161+971712254+967479069
2969+962765125+957408488+951532080+945385777+939312001+933694871+928802426
2959+924774923+921741808+919777527+918818378+918777318+919609642+921128534
2949+922876068+924285659+924957517+924775754+923758981+921765088+918437072
2939+913513929+907045607+899201336+890071165+879826112+868953139+858151541
2929+847949147+838495550+829832322+822329768+816708992+813624073+813270844
2919+815298058+819044794+823988660+829969892+836883858+844312479+851679958
2910+858612920+864907345+870353201+874903353+878886534+882803394+886921842
2900+891137760+895205683+899063703+902863842+906699541+910502111+914268354
2890+918114606+921991812+925584414+928570649+930845182+932545581+933942828
2880+935148463+935837462+935424306+933642746+930949494+928333564+926602339
2870+925763683+925179061+924269223+922810066+920595716+917237449+912444392
2860+906298217+899203639+891736708+884599663+878596813+874504523+872907157
2850+874138758+878237764+884785071+892859648+901344823+909350903+916441388
2840+922688933+928526264+934294970+939885431+944936422+949291444+953111154
2830+956637050+959956049+962908899+965237857+966913314+968214051+969406831
2820+970509689+971454831+972282167+973012225+973465801+973459405+973215541
2810+973325993+974118728+975255930+976188665+976793561+977302331+977865400
2800+978511100+979252607+979871061+979884556+979149573+978245171+977857278
2791+978008790+978255148+978375386+978497606+978744732+979094443+979474278
2781+979793099+979965716+980019887+980123304+980433299+980945011+981520615
2771+982045694+982487950+982818539+983002604+983075067+983125528+983213723
2761+983319890+983330315+983153860+982956108+983086579+983640950+984358408
2751+985035959+985698159+986306957+986695298+986841118+986892858+986941465
2741+987006444+987156677+987454712+987832628+988120238+988174537+988005885
2731+987778521+987624835+987505813+987345795+987203492+987172602+987235662
2721+987336009+987479974+987693779+987992774+988410726+988935038+989422319
2711+989713575+989826265+989898791+989965562+989931281+989745297+989439523
2701+989031036+988559616+988176136+988013687+988033514+988131239+988292792
2691+988554308+988952690+989542301+990263213+990807990+990859091+990492176
2681+990124173+990036233+990133254+990220682+990276644+990328960+990269609
2672+989993510+989633310+989508979+989832085+990458215+990933856+990881220
2662+990358443+989766402+989466001+989591035+990084584+990719475+991181430
2652+991304609+991230996+991275765+991654065+992363017+993293066+994323909
2642+995254278+995859302+996198780+996643531+997364507+998064378+998430782
2632+998542897+998595213+998511558+998074547+997322104+996671160+996547469
2622+996833672+996913361+996497647+996108219+996398515+997333424+998369192
2612+999082046+999372982+999400483+999430734+999514965+999436043+999191923
2602+999198830+999735229+1000503853+1000968557+1000855483+1000216051+999262978
2592+998296346+997605685+997249002+997043895+996981346+997442277+998616382
2582+999956645+1000730961+1000907159+1001000727+1001317949+1001787258
2574+1002257463+1002619134+1002798595+1002798915+1002709504+1002647467
2565+1002609861+1002344827+1001588547+1000534232+999812232+999916033+1000823249
2555+1002099939+1003168453+1003604761+1003399974+1002923949+1002600651
2547+1002664096+1003067594+1003451202+1003389805+1002898942+1002507531
2538+1002633269+1003108974+1003476977+1003528142+1003456511+1003638018
2530+1004285317+1005232058+1006055620+1006410000+1006291810+1006102372
2521+1006324555+1006956441+1007493416+1007595873+1007402790+1007152978
2513+1006980360+1007002169+1007173507+1007238423+1007087167+1006821749
2504+1006443066+1005929882+1005518070+1005428467+1005492423+1005392780
2496+1005101012+1004876654+1005012369+1005578572+1006271088+1006616514
2487+1006491480+1006300444+1006460014+1006844070+1006966418+1006623294
2479+1006122006+1005869572+1005950796+1006194852+1006493463+1006862809
2470+1007245970+1007456641+1007381620+1007105778+1006794184+1006559018
2462+1006463020+1006513545+1006626875+1006699465+1006721530+1006728118
2453+1006653225+1006364656+1005871682+1005409856+1005275932+1005598590
2445+1006214423+1006687186+1006564070+1005821157+1004985508+1004549391
2436+1004298236+1003606488+1002435453+1001557145+1001614257+1002414731
2428+1003319773+1003904651+1004158045+1004423270+1005129217+1006281129
2419+1007362881+1007970655+1008262039+1008548498+1008750983+1008543254
2411+1007844918+1006965906+1006315409+1006075510+1006116186+1006174194
2402+1006141897+1006151426+1006286757+1006314834+1005904620+1005064877
2394+1004170196+1003584423+1003416219+1003594656+1004009986+1004511913
2385+1004876079+1004940611+1004768185+1004559880+1004468999+1004562822
2377+1004772470+1004779505+1004258328+1003345611+1002525631+1002069304
2368+1001993069+1002372200+1003194547+1004122613+1004840967+1005460445
2360+1006303194+1007313315+1007916101+1007738047+1007194997+1006775509
2351+1006189096+1004972844+1003381171+1002250044+1002293726+1003364798
2343+1004472580+1004896033+1004718427+1004316080+1004004550+1004002887
2334+1004317103+1004681333+1004790506+1004566788+1004111101+1003467639
2326+1002670811+1002007203+1001873535+1002152447+1002109917+1001303751
2317+1000176846+999457596+999479021+1000224301+1001474513+1002730162+1003471924
2308+1003707218+1003932791+1004468423+1005089052+1005361889+1005162026
2299+1004800355+1004748423+1005259303+1006102244+1006659173+1006569059
2291+1006350137+1006960342+1008600878+1010517513+1012080086+1013332729
2282+1014323792+1014726779+1014432581+1013861390+1013357480+1012762753
2274+1011921092+1011228640+1011257292+1012059812+1013250993+1014557295
2265+1015960427+1017521338+1019226469+1020865343+1022213024+1023406380
2257+1024756555+1026298599+1027993178+1029932773+1031865972+1033173617
2248+1033666270+1033852958+1034448708+1036130240+1039504560+1044711861
2240+1051058665+1057415127+1062254936+1060330051+1038661812+983873494+902115045
2230+826301182+791668415+804605121+842539554+880461835+908863174+929540351
2220+945166728+955969477+961890399+964407836+965726673+967213075+969422756
2210+972663792+976497445+979723899+981706599+982903345+984110131+986043138
2200+989113795+992780330+995692377+997011725+997089368+996647304+995840243
2190+994512004+993035387+992202999+992323301+993302020+995447489+998631924
2180+1000979302+1000612898+998609347+997906278+999404896+1001346218+1002275307
2170+1002422853+1002382945+1002244416+1002038094+1002114905+1003152400
2162+1005863048+1010075704+1014202339+1016626017+1017251379+1016822618
2153+1015877987+1014802183+1014073980+1014075770+1014645043+1015041059
2145+1014730360+1013919718+1012990884+1011860397+1010280747+1008499764
2136+1007295663+1007246417+1007943538+1008281802+1007709587+1006785742
2128+1006404244+1006812092+1007509852+1007953643+1008194693+1008679608
2119+1009452645+1009958473+1009817961+1009420475+1009396235+1009707445
2111+1009640036+1008717022+1007341648+1006362865+1006217940+1006699082
2102+1007311013+1007617426+1007519765+1007447879+1008055845+1009518839
2094+1011313701+1012764927+1013508544+1013404168+1012405239+1010780819
2085+1009222083+1008412783+1008488379+1009033221+1009520950+1009687683
2077+1009722155+1010214361+1011592422+1013449769+1014753384+1014874709
2068+1014040722+1012781492+1011597154+1011147160+1011813901+1012960889
2060+1013588873+1013746205+1014351229+1015634762+1016711079+1016807524
2051+1016232751+1015966438+1016640855+1017841310+1018318038+1017271269
2043+1015515484+1014930223+1016521129+1019478968+1022430666+1024833878
2034+1026512468+1026626438+1024378831+1020669893+1018004717+1018407256
2026+1021608895+1025288606+1027096898+1026852522+1026913664+1029553258
2017+1033639537+1035393147+1033210967+1029455085+1026826556+1025545005
2009+1024586496+1023471103+1022085368+1020604402+1020189839+1022144399
2000+1025959313+1029374820+1030829372+1030956389+1031149984+1031506539
1992+1030911044+1028882231+1026565168+1025616444+1026529864+1028214082
1983+1029174638+1028902441+1028117125+1028058605+1029175342+1030139607
1975+1029304341+1027291197+1026227352+1026563569+1027002819+1027308721
1966+1028568207+1030516244+1031400116+1030587363+1028801966+1025831848
1958+1020397568+1012710757+1005178271+1000036654+997553817+996774321+996789031
1948+996813206+996032751+994077487+991329936+988527446+986219209+984762930
1938+984703451+986595526+990160627+994042950+996950711+998830059+1000474881
1928+1002314128+1004131183+1005535274+1006094953+1005476818+1003938292
1919+1002254713+1001066154+1000618590+1001052212+1002543602+1005033986
1911+1008126005+1011413025+1014623682+1017370018+1019271366+1020355485
1902+1020916635+1021075694+1020743314+1019807830+1018247302+1016273683
1894+1014269493+1012440479+1010865753+1009828322+1009632105+1010282986
1885+1011696798+1013737315+1015983387+1017857426+1018743345+1018070848
1877+1015974241+1013553249+1011803285+1010867800+1010830194+1012339428
1868+1015568632+1019216172+1021932129+1023669431+1024940237+1025960784
1860+1026676388+1027123376+1027479547+1027855225+1028236787+1028586115
1851+1028849741+1028925593+1028805676+1028814246+1029409293+1030345161
1843+1030544448+1029756126+1028970810+1028926936+1029474144+1030075906
1834+1030401315+1030513877+1030825535+1031710303+1033009314+1034377653
1826+1035648651+1036274205+1035546002+1033602890+1031077650+1028131259
1817+1024579141+1020570633+1016690677+1013507521+1011119403+1008973550
1809+1006343102+1003176767+1000240226+998575003+999023846+1001910118+1006694349
1799+1012069278+1016841741+1020603826+1023625493+1026476845+1029367529
1790+1031594798+1032544481+1032736605+1033186216+1034312226+1035658245
1782+1036783295+1037801603+1038882140+1039878767+1040536811+1040777605
1773+1040796728+1040725545+1040216711+1039087439+1037803906+1036867653
1765+1036536169+1037075830+1038434192+1039748233+1040402247+1040896244
1756+1041661861+1042279357+1042318626+1041927023+1041293475+1040061298
1748+1037695756+1034291824+1030506458+1027167186+1025120273+1024818529
1740+1025566367+1026003506+1025848285+1025920427+1026490979+1026425872
1731+1025238272+1023846397+1023102077+1023296631+1024437095+1026350212
1723+1028444452+1030180794+1031914514+1034558393+1037918899+1040378392
1714+1041363315+1041346366+1040584138+1039295104+1038009844+1037592339
1706+1038735041+1041072187+1043889770+1047269142+1050756473+1052599622
1697+1052889662+1053292969+1054086280+1054774383+1055640795+1056876106
1689+1057883989+1058499182+1059994794+1063791032+1068383267+1071096985
1680+1072051337+1072420044+1072812222+1073004154+1072377833+1070078741
1672+1065324762+1056910962+1044624177+1030471986+1015390323+996792612+970370521
1662+934212978+889234428+835914860+775460678+706190284+613102919+492228770
1652+407964940+392455219+419493654+478195058+554960363+618809780+660692155
1642+691064362+716297383+738191451+760367374+787975786+817715596+839943131
1632+854591429+866560160+877874430+887263176+893398478+897884226+904228216
1622+913614595+923678525+933260865+943969279+954860480+958653392+950413681
1612+932523260+910826624+890564842+874051970+864366277+867630017+886205279
1602+913297885+938363085+955772429+966128445+972663472+978538537+985618278
1592+994484759+1004782895+1014645427+1020537696+1018282286+1003060815+968350853
1582+908941968+828546358+739928305+657445299+599011999+581578800+594548251
1572+615075707+636376839+662272700+693852142+727407825+760649868+790907210
1562+815159913+837538001+873055599+924726572+963921578+986058999+1002838632
1553+1017329214+1028623913+1035984676+1038103092+1033761820+1022214367
1544+1002480670+971771094+918496551+833121197+743739637+674368321+614316293
1534+551734741+493419248+454244420+433297380+421755555+417023928+420796183
1524+433285453+454727000+484376249+514720060+540017101+562904470+585208752
1514+605130352+622808759+640124918+658045654+678417633+701008950+711881475
1504+703149942+686972008+674012789+668749975+668437230+660868545+634750565
1494+594413688+551955453+517914759+505199341+523622899+564299159+609362003
1485+650273845+686651204+719595660+748551561+772768768+793114781+809756076
1475+819120518+815714988+800991478+786498593+781035469+786106223+800458980
1465+819576653+835078891+841546189+838477067+824232204+795551186+760815642
1455+734906606+713909265+684770961+638424264+574789611+507344522+458546678
1445+441477485+451694653+476051732+502643019+528007309+557150282+592620169
1435+625368215+648338472+665274860+681172283+696600716+709764211+720506649
1425+730127747+739045456+746802939+754130382+762877200+772741459+781011486
1415+786887830+791117754+793434433+792725033+788559896+781816244+774365814
1405+768802727+767448906+770827447+778067270+787768888+797886412+806902294
1395+814863157+821834429+827087201+830520489+833040804+835519165+837965866
1385+839799422+840781787+841024883+840645944+840088951+840336205+842510454
1375+847411661+854781442+862759190+869347812+873952838+876784683+878251899
1366+879246479+881028358+884453395+889317315+894815871+900589438+906713292
1356+913073911+919277198+925087220+930564479+935792373+940842980+945909066
1346+951219463+956996163+963565983+971263539+980021102+989047409+997287632
1336+1004309428+1010218390+1014798793+1017048127+1015286138+1007327258
1327+990468512+961275014+915816474+851722937+771612891+685528073+609891495
1317+559706540+537126927+529680879+522563180+512327912+507198671+515101685
1307+535343929+561397026+587442097+610682439+629562708+641901681+645135042
1298+638711106+626521662+615966807+613310585+619559473+630617279+641111568
1288+648416242+653780682+660212421+669489499+680787524+691585028+699980793
1278+706540571+713934911+724673065+739111651+755177662+769178916+776408314
1268+771451466+749919389+712778331+669725433+635602907+620789155+624751231
1258+639095226+655525659+670090302+682204789+692306644+700513227+706489086
1248+710071008+711788675+712636732+713457160+714646742+716276789+718213250
1238+720154827+721966638+724216099+728069386+734285529+742402189+751124640
1228+759397609+766904896+773704381+779764982+784997034+789519748+793650604
1218+797626815+801438658+804961037+808177833+811195662+814059550+816630518
1208+818646604+819786748+819618032+817694491+814076114+809858726+806865583
1198+806461509+808610879+812137095+815807916+819016206+821544580+823191703
1188+823767116+822519909+817315359+806464131+792843415+783929735+785272556
1179+795351579+808478554+820636404+830794285+838885682+844923899+849307381
1169+852633863+855191080+856798168+857182479+856491626+854893557+851802562
1159+846953288+842499582+842012045+846351206+852065293+854892150+853824020
1149+851162618+849726677+850730019+853601325+857025595+860130021+862911277
1139+865795758+869110407+872895005+876844162+880387071+882987075+884375177
1129+884473286+883016943+879366396+873380560+866136644+857351451+841845823
1119+813560373+776364888+746259825+737841740+750950936+773688392+795054695
1109+811185238+822752453+831107286+836838705+839889600+840314588+838827482
1099+836685211+835292696+835632367+837639819+840087096+840764966+837085704
1089+828476710+819049015+815682626+821792537+834250725+847256311+857608810
1079+865436197+871745779+876806876+879634308+877547551+867654768+851030037
1069+834571784+826211068+828281324+837002944+847487257+857287048+865902692
1060+873236850+879114793+883458495+886534397+888927311+891080839+893006683
1050+894613195+896053612+897706684+899846781+901457577+898937709+888215033
1040+870513411+854295376+848313057+853565318+864271430+874395350+879759086
1030+876368138+862791615+845318636+835532276+838292746+844067656+838559251
1020+820529598+804759703+805331918+821214503+840999941+856344144+866617337
1010+874348790+881089436+887145368+892568904+897338745+900575751+900535331
1000+897079915+893810099+895323554+902055182+909881930+914857389+916288469
990+915350554+913302618+911764283+912578572+915940868+919729048+921874709
980+922741377+924223494+927138418+930530902+933134424+934423969+934166994
970+931981808+928159284+924511936+923396990+925762020+930646214+936427904
960+942050087+947149813+951449577+954412020+955149305+951145210+937479021
950+911784813+881893107+862966791+862937947+875240785+888968883+900616747
941+912440491+925035160+936260019+944626108+950434147+954602673+957891228
931+960864480+963852890+966795698+969387389+971630007+973984676+976786654
921+979844328+982630061+984523479+984910605+982787073+975897153+961304881
911+937421525+903638478+858513532+803923478+752706017+724971996+731505104
901+764143722+804944536+840801357+867827513+887202993+901191520+911786156
891+920389969+927746000+934133161+939805614+945228893+950690291+955867915
881+960133079+963282977+965812310+968294124+970395911+970591361+966380752
871+953794077+927599093+885812141+836729596+798853428+788593537+806764085
861+838114500+860041634+849148131+790744698+696677591+609533086+573661555
851+599291614+660628710+724007155+770450554+797935658+813548861+824833583
841+834787508+843422339+851972493+863024159+877304454+892676670+906515156
832+917885323+927149291+934558469+940091753+943905067+945763118+944377255
822+938811545+931193806+926716692+929353215+938072341+948474726+957167118
812+963274151+967170609+969539860+971091753+972381171+974009683+976633671
802+980389361+984752314+989187409+993721252+998835943+1004802146+1011306538
792+1017952273+1024750735+1031877548+1039349787+1046938426+1054107705
783+1060355890+1065649850+1070047403+1073004154+1073741823+1067709298
775+1048892155+1013390481+967763929+930320231+915301564+913479073+898183412
765+854493704+791305273+722209287+652363608+591317832+558136356+557593753
755+561659374+529957680+449787356+350933908+280179766+263338000+292283796
745+342711976+395892727+444635346+488387571+528294791+565224283+598595517
735+624513443+637099350+636233578+632583799+639433490+660007186+686882533
725+711909168+732501859+749865666+765375451+779544078+792839834+806036841
715+819350696+831950546+843114263+853569667+864847930+877337455+889732198
705+900521069+909032018+914306344+914152146+907318444+896720354+888524516
696+886309527+885502018+872795554+831148793+749838740+636973805+523728139
686+448987905+433721121+469921930+532120353+596753519+652129274+696131791
676+730369693+756226477+773819886+783789096+788895857+793777493+801770526
666+811310975+820614275+829838334+838592572+845578873+849878829+851363376
656+850142583+845574268+835267817+815620461+784797874+747909379+720390313
646+721350997+757918178+816305877+871199083+903749569+909249596+891455046
636+854755220+801826488+735457843+660780030+585968102+520828468+474061100
626+450162170+446943391+457196598+474663918+497340008+525123468+556738981
616+589670581+621893996+652933904+683477834+714214207+744130728+768200005
606+776754572+760797862+721772211+675158114+641110928+630635122+641091038
596+663234151+689379441+715542318+740038757+762044877+781036364+797013476
586+810353042+820700808+826166362+824109728+813783515+799484674+790483694
577+795983912+818638738+852672748+888938376+919843209+936775888+924676559
567+867859235+769749340+663514151+592989067+579695167+611552433+661148929
557+707163567+740536271+761706805+775964076+785588947+783551947+759483821
547+716276789+677320659+669415693+698087182+745265564+788921951+817447045
537+825532366+807299845+762882829+708954719+672230654+665157693+671527074
527+665563430+646085429+639166090+662329173+705634314+749320377+783177740
517+807722146+826458769+842358559+857275727+871038809+882977418+894241930
507+906250570+918246419+928904564+938487864+947880446+957539534+967825774
497+978277661+985920854+984705754+968277943+937903305+908090393+895978784
487+901343352+899580851+858060404+768575491+663996443+593683758+583599107
477+621494335+676596293+728765676+774031004+811424753+838199434+855261624
467+866984956+877122115+887896916+900462549+914302059+927292808+937599642
458+945204718+950942022+954869561+957065620+957554564+952877971+936293596
448+906597148+875208935+859129173+866303825+890251265+917791756+939946829
438+954524519+963123407+969331555+976855598+987013735+998121682+1007090365
428+1012345696+1015821450+1021251061+1029932197+1039703784+1048530227
419+1055651476+1059388043+1059001685+1056414151+1053519182+1051808294
411+1053379758+1058796961+1062633684+1054113461+1026669864+986532402+948661733
401+926423965+927528358+951552738+983532544+1004565636+1010248322+1007222306
391+1003371897+1003018028+1006528767+1013089888+1022613389+1034785181
382+1048407496+1061668971+1071128388+1073004154+1069599902+1066940867
374+1073004154
##END=
