##TITLE=JPK- X13578
##JCAMP-DX=4.24
##DATA TYPE=INFRARED SPECTRUM
##DATE=10/10/2019
##SAMPLING PROCEDURE=Diamant-ATR
##ORIGIN=Fabienne
##XUNITS=1/CM
##YUNITS=TRANSMITTANCE
##RESOLUTION=4
##FIRSTX=3997.453
##LASTX=373.96442
##DELTAX=-1.4165319
##MAXY=1.0023957
##MINY=0.14767134
##XFACTOR=1
##YFACTOR=9.3355379e-010
##NPOINTS=2559
##FIRSTY=0.98109287
##XYDATA=(X++(Y..Y))
3997+1050922700+1050976970+1050884200+1050758549+1050844423+1051299461
3989+1051923949+1052336593+1052333528+1051924715+1051270283+1050730456
3980+1050625173+1050842955+1050997082+1050947728+1050848254+1050819395
3972+1050910377+1051198775+1051623485+1051917118+1051947509+1051946232
3963+1052200279+1052591853+1052606219+1051963917+1051123371+1050846147
3955+1051301504+1051951914+1052290176+1052276257+1052115235+1052048004
3946+1052252251+1052595301+1052630417+1052136113+1051512391+1051271560
3938+1051438265+1051724555+1051934420+1052053048+1052183679+1052454901
3929+1052815701+1053001879+1052842325+1052497679+1052351916+1052637504
3921+1053156197+1053378449+1052925326+1052092633+1051549742+1051457100
3912+1051459526+1051389613+1051480915+1051906583+1052443728+1052692604
3904+1052486378+1052043407+1051687332+1051557850+1051605672+1051681841
3895+1051689631+1051683182+1051831243+1052264509+1052874185+1053341417
3887+1053304769+1052555971+1051407682+1050536489+1050319282+1050627918
3878+1050996252+1051145398+1051162573+1051157785+1051112517+1051148144
3870+1051546869+1052179593+1052500552+1052327079+1051981858+1051813877
3861+1051852632+1051999480+1052251548+1052631694+1053179054+1053907038
3853+1054299442+1053712305+1052713865+1052103742+1052074437+1052421190
3844+1052864863+1053167051+1053122486+1052769029+1052486314+1052489762
3836+1052455731+1052210878+1052166313+1052708502+1053588697+1054131780
3827+1053904420+1053034185+1052070734+1051633764+1052234182+1053795753
3819+1055233077+1055636591+1055082207+1054287567+1053770852+1053378321
3810+1052867034+1052302754+1051892600+1051712360+1051685927+1051800214
3802+1052148818+1052681303+1053081049+1053101735+1052746874+1052251357
3793+1051935633+1051931419+1052156863+1052497040+1052908087+1053289190
3785+1053369893+1053012860+1052499594+1052201237+1052156416+1052160886
3776+1052089760+1051918075+1051636893+1051339366+1051211863+1051330619
3768+1051569470+1051757691+1051769503+1051570811+1051297737+1051179301
3759+1051354114+1051695185+1051890110+1051819240+1051673030+1051728960
3751+1052080374+1052637440+1053566095+1055207155+1057292336+1058357241
3742+1057295592+1055126836+1053139916+1051782847+1050978247+1050560879
3734+1050757528+1051806598+1053251968+1054411685+1054960387+1054833714
3725+1054151764+1053396964+1053213468+1053814141+1054794448+1055554483
3717+1055798507+1055668578+1055546311+1055648019+1055606966+1054884664
3708+1053798498+1053059533+1052807528+1052705501+1052460711+1052046089
3700+1051591370+1051282670+1051272709+1051460611+1051492662+1051146867
3691+1050620895+1050452275+1051074400+1052197470+1053108567+1053438976
3683+1053249605+1052867034+1052691391+1052915685+1053350867+1053517954
3674+1053169733+1052764687+1052808678+1053268312+1053653438+1053603829
3666+1053286190+1053041336+1053176053+1053871475+1054958471+1055935459
3657+1056285787+1055797677+1054806898+1053917062+1053441274+1053303364
3649+1053274761+1053438529+1053934109+1054349115+1054265156+1053845937
3640+1053601594+1053621450+1053437060+1052828981+1052254549+1052168675
3632+1052368580+1052402738+1052235714+1052166823+1052253655+1052416082
3623+1052678877+1052967912+1053051296+1052701734+1051874085+1050852404
3615+1050179073+1050273631+1050955007+1051577834+1051775760+1051697228
3606+1051691929+1052028722+1052733274+1053509910+1053843574+1053417268
3598+1052572188+1052164206+1052738446+1053834508+1054528398+1054542444
3589+1054202778+1053824995+1053551666+1053370148+1053125040+1052781606
3581+1052560249+1052669683+1053035271+1053384003+1053440444+1053098096
3572+1052597472+1052390735+1052681367+1053129700+1053116612+1052587703
3564+1052217135+1052443983+1053082262+1053693725+1054009768+1054045650
3555+1053964692+1053891715+1053790837+1053574714+1053317028+1053136085
3547+1052999006+1052843091+1052710800+1052635397+1052620329+1052691646
3538+1052833961+1053049317+1053436166+1053889991+1053981995+1053536278
3530+1052970338+1052764815+1052919133+1053129764+1053138767+1052844304
3521+1052425595+1052258763+1052473928+1052792780+1052928902+1052953163
3513+1053096883+1053381832+1053632624+1053701898+1053485584+1052898383
3504+1052116576+1051683948+1051973558+1052642931+1052998623+1052743681
3496+1052215028+1051988818+1052251931+1052682963+1052976340+1053200826
3488+1053519295+1053838339+1053962649+1053884181+1053726670+1053562328
3479+1053399454+1053258288+1053157665+1053101735+1053130275+1053264865
3471+1053378640+1053309047+1053123954+1053053850+1053162454+1053326541
3462+1053479071+1053634347+1053744484+1053751188+1053753933+1053966033
3454+1054442523+1054910905+1055040834+1054824776+1054487408+1054085299
3445+1053462790+1052566761+1051624443+1051076380+1051311465+1052277087
3437+1053443126+1054279713+1054625573+1054580816+1054319745+1054009896
3428+1053713837+1053410500+1053155814+1053077346+1053230707+1053560349
3420+1053878115+1053899887+1053530468+1053030355+1052697584+1052582595
3411+1052679068+1053054744+1053580397+1053886990+1053794795+1053533469
3403+1053438146+1053614874+1053879584+1053898547+1053541386+1053174904
3394+1053321305+1053952944+1054453250+1054359011+1053827868+1053310962
3386+1053062980+1053042805+1053098671+1053152238+1053220108+1053300300
3377+1053296788+1053103842+1052739084+1052370368+1052195044+1052265148
3369+1052439897+1052539945+1052525644+1052493529+1052546841+1052716674
3360+1052986172+1053344737+1053802968+1054308253+1054668286+1054668414
3352+1054347391+1054036137+1054032434+1054299634+1054531909+1054445843
3343+1054022346+1053573437+1053515911+1053935642+1054449100+1054609739
3335+1054363864+1054012513+1053814524+1053760126+1053706239+1053592017
3326+1053418098+1053157538+1052882229+1052846858+1053193420+1053688107
3318+1053929193+1053739695+1053320922+1053118591+1053414522+1053978483
3309+1054340113+1054358756+1054205523+1053974780+1053734779+1053725904
3301+1054111157+1054705509+1055144394+1055150778+1054662157+1053940430
3292+1053435783+1053332223+1053368935+1053219916+1052850114+1052434662
3284+1052134070+1052033575+1052162609+1052470161+1052802101+1053011903
3275+1053133723+1053352335+1053714539+1054006320+1054031668+1053869943
3267+1053713326+1053597061+1053434442+1053220746+1053079070+1053135894
3258+1053368808+1053558625+1053468664+1053112653+1052761303+1052690688
3250+1052981128+1053489032+1053933535+1054108603+1054050758+1053921212
3241+1053790964+1053659695+1053584291+1053634603+1053782090+1053934684
3233+1054050311+1054151508+1054228955+1054221293+1054137398+1054104262
3224+1054199905+1054334941+1054367439+1054261389+1054120160+1054086129
3216+1054149721+1054129864+1053970438+1053864133+1053877158+1053747868
3207+1053315815+1052812125+1052479418+1052285132+1052243440+1052624862
3199+1053523701+1054467807+1054777593+1054289801+1053553262+1053276357
3190+1053600062+1053992849+1053961244+1053736630+1053963798+1054760992
3182+1055504363+1055609839+1055140818+1054547871+1054169577+1054130694
3173+1054427392+1054887537+1055195855+1055124537+1054699891+1054117925
3165+1053571586+1053168903+1052949333+1052956164+1053244881+1053716008
3156+1054034030+1053954732+1053657141+1053487819+1053515273+1053597891
3148+1053691491+1053792050+1053781962+1053578417+1053261225+1052931902
3139+1052637951+1052479865+1052591981+1052966507+1053431569+1053805202
3131+1053978675+1053882393+1053509654+1052997856+1052591789+1052467096
3122+1052600217+1052795461+1052833323+1052636993+1052328165+1052130303
3114+1052203855+1052512300+1052829556+1052966124+1053003794+1053147642
3105+1053343333+1053262694+1052733977+1051965194+1051245574+1050624598
3097+1050014540+1049455367+1049094951+1048978430+1049048981+1049306412
3088+1049772112+1050301468+1050615979+1050568604+1050261436+1049877013
3080+1049514170+1049225263+1049084544+1049092461+1049125789+1049096994
3071+1049012907+1048760584+1048058905+1046795691+1045206730+1043587441
3063+1042043045+1040626216+1039519236+1038985602+1039227455+1040240835
3054+1041685757+1042990727+1043750826+1043968161+1043805734+1043265142
3046+1042322440+1041280584+1040715665+1041017853+1042098784+1043555837
3037+1045023936+1046310773+1047278630+1047791194+1047868577+1047749502
3029+1047676270+1047703341+1047766996+1047817244+1047862767+1047956941
3020+1048134244+1048358731+1048579769+1048781526+1048924798+1048955190
3012+1048891215+1048782866+1048614885+1048380183+1048135521+1047875472
3003+1047505351+1047043865+1046703624+1046675914+1046931558+1047285398
2995+1047600739+1047871450+1048090828+1048133031+1047878473+1047390937
2986+1046814462+1046139663+1045206091+1043880052+1042134730+1040029310
2978+1037669970+1035126240+1032428448+1029756194+1027535147+1026217663
2969+1026054151+1027118098+1029315457+1032256188+1035364964+1038256661
2961+1040847701+1043096713+1044879131+1046151985+1047022795+1047584841
2952+1047829758+1047784043+1047597802+1047414624+1047275885+1047249197
2944+1047498200+1048076527+1048773736+1049286428+1049433659+1049173419
2935+1048609139+1047985992+1047473938+1046985189+1046365362+1045639804
2927+1044929761+1044315298+1043923149+1043963117+1044570941+1045703332
2918+1047132165+1048448691+1049238990+1049438767+1049400203+1049480395
2910+1049663636+1049684642+1049428105+1049048406+1048679434+1048228866
2901+1047624681+1047112500+1047038438+1047417817+1048012680+1048756817
2893+1049732974+1050767615+1051423963+1051514051+1051341153+1051327235
2884+1051585049+1051930589+1052147988+1052137007+1051912265+1051573620
2876+1051290714+1051245766+1051471210+1051763182+1051901156+1051954340
2867+1052145818+1052404717+1052361365+1051889919+1051375695+1051293524
2859+1051694419+1052226393+1052545181+1052624351+1052689858+1052911791
2850+1053246988+1053609511+1054018132+1054419794+1054524056+1054055099
2842+1053128487+1052202833+1051672775+1051583772+1051701123+1051828115
2833+1052024444+1052445388+1053000027+1053363508+1053360571+1053162837
2825+1053046380+1053091137+1053188376+1053253436+1053329095+1053472814
2816+1053625984+1053645776+1053440508+1053063491+1052705565+1052562356
2808+1052666171+1052869907+1052978191+1052850561+1052461669+1051951020
2799+1051544251+1051338216+1051236508+1051119796+1051010234+1051045286
2791+1051310188+1051695504+1051971388+1052050558+1052072840+1052160439
2782+1052232841+1052191085+1052142434+1052251548+1052447750+1052485101
2774+1052293304+1052096975+1052143902+1052424893+1052741702+1052985151
2765+1053211680+1053418672+1053433485+1053153771+1052761814+1052552332
2757+1052651933+1052958016+1053219597+1053207913+1052968487+1052824256
2748+1052987322+1053314155+1053539279+1053584036+1053550836+1053543493
2740+1053548282+1053440763+1053134361+1052728294+1052441749+1052384542
2731+1052460264+1052532539+1052642803+1052949971+1053431825+1053797541
2723+1053836551+1053706495+1053686894+1053776726+1053782856+1053701515
2714+1053715880+1053848427+1053907549+1053790645+1053619024+1053573629
2706+1053752975+1054145251+1054589499+1054843802+1054812261+1054658837
2697+1054594160+1054605972+1054521502+1054322938+1054235404+1054417495
2689+1054723131+1054890602+1054830841+1054630425+1054422858+1054360863
2680+1054555596+1054928782+1055223500+1055271194+1055211561+1055360005
2672+1055835219+1056385644+1056637457+1056493801+1056190591+1055962466
2663+1055792633+1055554803+1055265767+1055057051+1054972581+1054941679
2655+1054922461+1054949213+1055011337+1054982733+1054727345+1054255196
2646+1053757955+1053482392+1053518784+1053695258+1053756678+1053652544
2638+1053522232+1053425248+1053304131+1053200635+1053232303+1053307004
2629+1053125678+1052564463+1051882640+1051415854+1051164297+1050887584
2621+1050587375+1050586545+1051026068+1051611737+1052008802+1052177550
2612+1052189489+1052021252+1051702400+1051452886+1051500196+1051829200
2604+1052249314+1052668980+1053122933+1053512847+1053578098+1053223109
2595+1052666363+1052192107+1051927972+1051901092+1052124365+1052535731
2587+1052958527+1053227706+1053361401+1053517380+1053767979+1054005618
2578+1054099218+1054066656+1054043735+1054144805+1054389658+1054751926
2570+1055210412+1055724444+1056220216+1056631647+1056923938+1057098752
2561+1057181561+1057176070+1057106158+1057142423+1057462041+1057906608
2553+1058054797+1057669544+1056834106+1055805147+1054989118+1054718981
2544+1054809452+1054761248+1054516075+1054471318+1054745605+1055004186
2536+1055005143+1054849229+1054743881+1054818582+1055089038+1055429279
2527+1055668386+1055782162+1055901620+1056123871+1056426634+1056768918
2519+1057144338+1057525250+1057881836+1058194814+1058327935+1058087104
2510+1057573007+1057161641+1056960140+1056682788+1056238668+1055984493
2502+1056236434+1056907402+1057693806+1058305397+1058525286+1058360050
2493+1058121645+1058132691+1058404360+1058806724+1059384986+1060187416
2485+1060930404+1061213629+1060987483+1060529508+1060106586+1059866968
2476+1059882291+1060083154+1060230130+1060089219+1059678683+1059289535
2468+1059126150+1058997435+1058634209+1058217799+1058161166+1058392484
2459+1058382269+1057935978+1057462488+1057316917+1057374635+1057421307
2451+1057478067+1057541339+1057459743+1057243110+1057082854+1057004896
2442+1056861177+1056668997+1056670849+1057045312+1057697701+1058339300
2434+1058747729+1058895407+1058794274+1058397337+1057785682+1057251027
2425+1057007833+1056944050+1056846811+1056810099+1057180476+1058020703
2417+1058903260+1059406375+1059531196+1059472074+1059263039+1058800084
2408+1058053393+1057240237+1056780602+1056891760+1057271969+1057414220
2400+1057160236+1056791647+1056663059+1056817378+1056936325+1056736292
2391+1056361318+1056203616+1056389922+1056648055+1056629795+1056247607
2383+1055738299+1055478314+1055698586+1056287000+1056880203+1057258114
2374+1057641515+1058399316+1059545434+1060820587+1062055644+1063025098
2366+1063333543+1062938266+1062345318+1061914925+1061499983+1060934937
2357+1060282803+1059448897+1058211542+1056879501+1056251821+1056642373
2349+1057563877+1058300800+1058432963+1058075356+1057809433+1058171573
2340+1059144155+1060184160+1060731137+1060620107+1060007750+1059129917
2332+1058222013+1057496519+1057039693+1056773579+1056628135+1056729652
2323+1057266606+1058141565+1058985942+1059581763+1059964462+1060106969
2315+1059850112+1059200213+1058517816+1058301630+1058737322+1059442449
2306+1059709840+1059117531+1057956664+1057027051+1056962502+1057770933
2298+1058973684+1060014710+1060518527+1060456340+1060226299+1060371742
2289+1061096853+1062111191+1062871035+1062908194+1062162652+1061178833
2281+1060785982+1061355689+1062468351+1063460981+1064128694+1064631425
2272+1064958897+1064944787+1064716597+1064677970+1065010549+1065467694
2264+1065679538+1065481485+1064912863+1064105134+1063375618+1063235984
2255+1063920872+1064990756+1065734830+1065804104+1065380351+1065129368
2247+1065785652+1067156320+1067941575+1067244238+1065666705+1064317042
2238+1063571309+1063300214+1063440997+1063889842+1064383507+1064711873
2230+1064837970+1064905137+1065135561+1065454605+1065417574+1064951107
2221+1064772910+1065373647+1066016204+1065709227+1064848697+1064668967
2213+1065144500+1064716916+1062439748+1059501826+1058127966+1059374899
2204+1062294368+1065069863+1066637691+1067100199+1067015091+1066742847
2196+1066308048+1065453839+1063876689+1061823432+1060474855+1061082615
2187+1063377469+1065544566+1066359573+1066525639+1067143295+1067938255
2179+1068120219+1068037601+1068599519+1069385476+1068702376+1066018119
2170+1063126167+1061957128+1062258295+1062494976+1062111191+1061709657
2162+1062014335+1063786857+1067391852+1071404383+1073430249+1072687070
2153+1070282590+1067572028+1065201388+1063421332+1062523643+1062533795
2145+1062888337+1063045146+1063159879+1063570862+1064100473+1064486812
2136+1064826286+1064956981+1064238447+1062602366+1061021194+1060412221
2128+1060685040+1061113709+1061142376+1060671504+1059943648+1059327907
2119+1059060643+1059162288+1059543902+1059999833+1060187735+1059895571
2111+1059274403+1058626292+1058054350+1057429479+1056661974+1056001923
2102+1055974725+1056812717+1058039602+1058881872+1059006565+1058678519
2094+1058360241+1058275006+1058236250+1057881006+1057175687+1056549922
2085+1056441574+1056876692+1057531954+1058013360+1058074845+1057840782
2077+1057882921+1058765542+1060343330+1061731620+1062115788+1061354157
2068+1059798715+1058023576+1056788455+1056656164+1057481706+1058649022
2060+1059615793+1059959929+1059485226+1058584408+1057854126+1057325026
2051+1056867115+1057042311+1058380992+1060114950+1060991378+1060851234
2043+1060285357+1059754725+1059788053+1060892543+1062961953+1065694031
2034+1069098930+1072443813+1073741823+1071905071+1068511027+1066195422
2026+1065823194+1065941566+1064895369+1063050445+1062388926+1063935429
2017+1066512678+1068536693+1069874608+1070852170+1070823886+1069164501
2009+1066739718+1065082058+1064679885+1064913693+1064911905+1064018302
2000+1062413826+1061381930+1061925524+1063235474+1063591293+1062521281
1992+1061248171+1061093661+1061939315+1062323482+1060919167+1058104087
1983+1055759368+1055246038+1056203552+1057558578+1058788144+1059643503
1975+1059537006+1058203050+1056609619+1056332779+1057800878+1059605259
1966+1059989682+1058754433+1057074554+1055997007+1055813064+1056360488
1958+1057275161+1058073249+1058406531+1058356155+1058227248+1058028045
1949+1057445888+1056344974+1054911927+1053357060+1052000885+1051519095
1941+1052323695+1053954604+1055727573+1057410197+1058916030+1059873544
1932+1059932347+1059222496+1058232100+1057437588+1057145935+1057452400
1924+1058172340+1058860419+1059120660+1058956637+1058767330+1058958807
1915+1059513957+1060035141+1060117950+1059669553+1059036382+1058699461
1907+1058764840+1058944314+1058991880+1058951529+1059023165+1059334739
1898+1059826680+1060261479+1060348885+1060025500+1059630989+1059626839
1890+1060011198+1060207464+1059928580+1059749808+1060284974+1061179790
1881+1061482936+1060907994+1060071470+1059518682+1059193318+1058925224
1873+1058760243+1058592262+1058001549+1056920682+1056125531+1056269570
1864+1057024881+1057609911+1057585713+1057051505+1056284191+1055474611
1856+1054821136+1054543465+1054651622+1054840163+1054724536+1054156297
1847+1053287275+1052427447+1051949999+1052107062+1052722165+1053321816
1839+1053493820+1053165008+1052715397+1052544287+1052592108+1052608326
1830+1052682644+1053111632+1053806862+1054406897+1054752245+1054908798
1822+1054983052+1055081121+1055304139+1055682624+1056176226+1056684512
1813+1057017921+1057010643+1056750466+1056515573+1056421590+1056370257
1805+1056277359+1056115826+1055823407+1055386438+1054985734+1054821455
1796+1054887920+1055082462+1055368305+1055685817+1055858906+1055809935
1788+1055665513+1055601539+1055689711+1055780693+1055628737+1055212072
1779+1054775677+1054489770+1054302315+1054176664+1054194222+1054357798
1771+1054475277+1054393297+1054130694+1053799009+1053519423+1053346206
1762+1053246732+1053128232+1052917984+1052646761+1052399993+1052201556
1754+1052046919+1052064030+1052467224+1053219597+1053932066+1054245172
1745+1054021133+1053359741+1052589746+1052022465+1051670604+1051325255
1737+1050914591+1050659714+1050858214+1051258663+1051258663+1050776554
1728+1050117142+1049601066+1049458623+1049830469+1050640560+1051637021
1720+1052706395+1053876072+1054870937+1055207666+1054994609+1054708191
1711+1054609164+1054673969+1054777018+1054896987+1055154290+1055622608
1703+1056219642+1056737186+1056845215+1056463346+1055943248+1055530924
1694+1055205687+1054920738+1054727473+1054645940+1054554830+1054372036
1686+1054288205+1054553234+1054887601+1054884089+1054675118+1054526482
1677+1054615230+1054990969+1055421618+1055578554+1055471418+1055347810
1669+1055314227+1055248720+1055106596+1054990459+1054975965+1055002717
1660+1054987713+1054959046+1054968176+1055004505+1054962174+1054573601
1652+1053747676+1052742341+1051580069+1050265522+1049256611+1049048725
1643+1049506190+1050302554+1051172214+1051889727+1052375028+1052727975
1635+1053082326+1053401944+1053558433+1053461003+1053080347+1052486505
1626+1051797532+1051082062+1050370104+1049636565+1048691246+1047011239
1618+1043556731+1037572986+1030432206+1024442715+1020969692+1020852341
1609+1023980590+1028693587+1032942799+1035664088+1036691514+1036110506
1601+1033979739+1030308790+1024843675+1016541900+1003404605+983973015+960357655
1591+939774583+931396575+939556609+959993535+983736844+1003682468+1017140785
1581+1024539635+1027655243+1028583451+1029340294+1031144356+1033576290
1572+1036006563+1038527500+1041129713+1043235644+1044554852+1045372924
1564+1045901513+1046171906+1046262121+1046366064+1046663081+1047037544
1555+1047333922+1047566836+1047829375+1048187493+1048521796+1048589027
1547+1048284540+1047712407+1047105988+1046761916+1046889163+1047334049
1538+1047634450+1047727858+1047841825+1048065098+1048277581+1048419832
1530+1048649618+1049039595+1049444066+1049738912+1050015817+1050304980
1521+1050307534+1049754554+1048824814+1047790875+1046674893+1045234823
1513+1043127232+1040082686+1035720592+1028525287+1015460522+998037943+983592167
1503+974634364+971660432+976399734+989250739+1006480309+1021616590+1031184963
1493+1036193252+1038462503+1039049322+1038751922+1038243508+1037802517
1485+1037490049+1037246026+1036908913+1036419973+1035928861+1035651765
1476+1035514047+1034593884+1031449417+1026662741+1023332415+1023073516
1468+1025167443+1027851445+1028611416+1025553718+1018571406+1007825055
1459+993806991+981924802+982206431+993082455+1005026639+1013899462+1019191552
1449+1021335855+1020903163+1018416704+1014367589+1008803575+1001610887
1441+993210787+983485032+970203698+950989698+927591802+902877826+876196979
1431+845634423+810714116+771907247+728971135+683847496+645488132+626415808
1421+635385040+674910124+733439598+789115876+833247779+868859677+898166426
1411+921288184+938632104+951251407+960343736+966474201+969253782+968497642
1401+965059990+960986612+959653422+964030456+974140954+986638884+997284228
1391+1004330834+1008366031+1010184586+1009938073+1007444846+1002147713
1383+992395461+975951017+952893872+928098237+909162035+901732347+906627818
1373+920101012+937263032+954481684+968273156+974818052+971154764+956243671
1363+934492709+918079806+917394728+931329791+950933066+966570994+972552759
1353+969330590+962054965+956396138+954456018+953481648+948642043+936883908
1343+917519740+889976447+853271678+809085633+763457475+723052387+691400090
1333+668839803+653761239+643972148+638633003+639943719+652394274+679039304
1323+718030690+762974791+806103913+841038522+864907163+879711312+890668038
1313+902142628+914871173+926724440+935366200+939647400+939330208+934616445
1303+926267295+916110125+907010134+901671756+901091833+904064232+908105941
1293+910975291+911516650+909271916+903664167+893979975+880188696+863546965
1283+846380859+831236469+819926030+813176441+811011260+813037956+818259686
1273+824957815+831060124+834828121+835315210+832130902+825019172+814118057
1264+800513466+786091250+772631720+760754255+749560784+737680063+724673910
1254+710923876+696334700+679948868+660985085+639822729+617982764+597445534
1244+579800639+565535678+553969021+544079625+535431863+527921791+520394960
1234+510028276+494161584+473613469+453921126+442023614+440923466+447789353
1224+457005800+464145847+467225540+465808168+460100466+450597984+437791609
1214+421902826+403053808+381813015+359422402+337394918+317101392+299796323
1204+286694560+278836681+277008836+281769335+293267229+310800935+332434354
1194+354820818+373176969+381980901+377323068+360039866+336612600+316103272
1184+305448510+306982754+319116405+338220396+360115908+380887521+397239577
1174+407035852+410533616+411158296+413871731+421615578+432913408+442692220
1164+445208751+436719777+416686172+387479664+352983524+316873522+281604610
1154+248534621+218608940+192899701+172932561+160760857+158181932+165010261
1145+177888623+191349079+200911706+205966188+210121019+218828350+236309781
1135+263859060+299945055+340867048+380304086+408468484+414854656+396038551
1125+361741933+330851650+319606878+332895745+364897573+405635718+447155032
1115+485907024+521453991+554074113+583709163+610120320+632801214+650479182
1105+660926729+661329221+649665005+627641863+603153268+588081025+591244390
1095+612812686+645620487+681092241+713640823+741254986+764268204+784059126
1085+801955962+818575665+833821125+847300831+858794766+868418686+876383668
1075+882757645+887533085+890614853+891419390+888519074+879753451+862755326
1065+836018868+800887354+763554203+734356250+722901197+732199689+757244264
1055+789189172+820669082+847903675+869578467+885214352+894914696+900010456
1045+902973469+906070561+909978256+913868136+916962036+919698329+922996986
1035+926765494+929695115+930107056+926325460+916260485+897242942+868037647
1026+832805191+800507337+775565746+751333497+720159733+688861787+675487429
1016+689614416+722606416+757598807+783227199+798025921+807486903+818783934
1006+835804853+857411201+879748662+899556887+915599796+928168021+938024280
996+945786292+951715831+955677348+957657883+958606778+960153153+963102248
986+966711521+969663233+971303783+971865573+971886643+971586306+970656502
976+968487043+964433331+957711770+947018540+930913125+909975063+889000481
966+875321508+873216599+880362168+890433400+898191135+901440821+899650359
956+892349577+878558298+856462945+823251822+776395311+716788482+650867500
946+588119014+535832439+497225157+474282809+469718225+484319021+512782445
936+542891623+560157714+557169609+541969481+535724602+557599810+610072690
926+679261874+747612108+804387449+846853583+876656742+896954354+911136569
916+922074332+931539400+940081687+947573946+953974292+959579743+964738073
907+969611645+974298209+979025699+983995808+988977090+993327883+996615558
897+999015377+1000952496+1002600835+1003907273+1004910821+1005815853+1006740805
887+1007443888+1007304063+1005592260+1001554510+993690598+979208621+956273679
877+928635190+906619646+900482477+912119366+934302892+957293763+974999569
867+986137748+992187000+995172296+996577761+997379169+998386547+1000144831
857+1002631290+1005393121+1008039837+1010431483+1012386160+1013568479
849+1013906039+1013789518+1013599892+1013421184+1013442573+1014145273
840+1015748983+1017768912+1019419294+1020368508+1020884967+1021245256
832+1021297929+1020707664+1019163459+1015938481+1009192467+995948804+974329622
822+948084722+928050926+925139501+940557028+965097404+987944364+1003794392
812+1012479377+1015798656+1016059152+1015524433+1015504705+1015967021
803+1016380047+1016569035+1016261867+1014319448+1009122172+999232521+983147217
793+958388549+920682786+866618646+802745622+751521973+738835247+770627114
783+826836067+880587740+917989654+939317949+949983724+954774934+956334015
773+954977840+949467521+936986957+910916232+860052489+774903525+660491867
764+544960459+470520175+467589596+533493754+636237398+738796045+820184802
754+877466258+914885667+935416640+941313616+938609566+937041547+943673722
744+957737947+973075794+984407494+990330456+992367815+993117698+994681568
734+997640495+1001146080+1003759276+1004421689+1003217980+1000770085+996169587
724+986648269+971235722+953673189+937451445+917911122+887608169+852070716
714+828284310+820647310+812578130+794300702+783634097+803060963+848536271
704+896533219+932139563+956343464+973659100+985558464+993041209+997828780
694+1000958625+1002415487+1001895517+999564334+996013161+991254259+984079831
684+972959784+958257343+943802565+934702702+932413211+933003732+930745271
674+922630632+909715206+893970207+873244947+841906522+803308434+768708064
664+736903938+700917832+660070604+619872636+585708916+559892877+542509563
654+531752486+524904476+520099348+517863265+522012812+538364230+570960569
645+617997321+670091716+713416209+736615222+735953511+715210119+682245957
635+645857678+613769370+591329434+581022735+582685822+594399009+613420574
625+636455564+659765926+679173510+689746452+686282175+665519693+629518774
615+587944967+556172254+547965164+566297628+600814423+635586861+658929785
605+666891958+661823716+650181591+639839074+636572851+641879178+654030546
595+670602684+689417065+707960416+723560546+734932470+742902559+749176552
585+754950687+760456664+764680592+765312806+760029144+748289398+731811690
575+713691581+696850584+682858889+672087063+664008306+656620182+646335382
565+628993952+600914982+561405605+517820903+486702526+484018780+511287818
555+553119919+589723043+611459065+622730876+634446553+653641079+679233845
545+705526822+727590507+742964491+750123085+747280040+732886683+706736149
535+670800865+629464121+588893606+555682356+534811461+527892581+532893081
526+545031776+559714871+576443689+598421436+628199184+664549410+702838606
516+737941580+767231473+791231639+811976563+831196118+849537074+866477927
506+880676998+890541046+894260200+889931179+877020350+858191731+840120912
496+831747246+838645407+858493281+883414631+906241735+924369570+938894835
486+951410067+961735155+968423068+970899440+970023841+967338435+965110173
476+965886873+970787899+978536439+985846798+989155479+987323324+983011861
466+980829442+983082987+988280264+994067040+999150605+1001646577+998728576
456+990493010+979940244+966753660+944345584+902642614+836570634+757520275
446+695343666+678079619+706893979+757146770+803452026+838952192+869833217
436+901314149+932204559+957915570+975310823+984739690+989299007+992505022
426+996231199+1000307322+1003422929+1005021085+1006737804+1010800008+1014999036
416+1014109902+1007752078+999526409+993809098+993802905+999540646+1007624639
407+1013398965+1014630575+1013264312+1012559441+1013171606+1012069862
398+1004436246+989854987+975595262+968771290+970850597+978697972+987729455
388+995142671+1000506971+1003860984+1004470851+1001752883+996162244+989184082
378+983330841+981738304+985839519+991196924
##END=
