##TITLE=X8779
##JCAMP-DX=5.0
##DATA TYPE=LINK
##BLOCKS=1


$$ === CHEMSPECTRA SPECTRUM ORIG ===
##TITLE=X8779
##JCAMP-DX=5.00
##DATA TYPE=INFRARED SPECTRUM
##DATA CLASS=XYDATA
##ORIGIN=ComPlat
##OWNER=
##XUNITS=1/CM
##YUNITS=TRANSMITTANCE
##XFACTOR=1
##YFACTOR=1.0259611e-009
##FIRSTX=3997.453
##LASTX=373.96442
##MAXX=3997.453
##MAXY=1.1016173418410853
##MINX=373.96442
##MINY=0.6010943090460042
##NPOINTS=2559
##XYDATA= (X++(Y..Y))
2559I24739143I25005340I25188867I25299482I25447338I25656078I25799228I25748161
2551I25532856I25347296I25352176I25410679I25201474I24737051I24464753I24621439
2543I24833143I24661061I24207386I23875017I23898081I24324799I25059079I25779010
2535I26149433I26186266I26115330I25959980I25631329I25273513I25082609I24920926
2527I24527439I24035130I23913651I24307544I24760464I24839185I24680175I24708700
2519I25011557I25303840I25422821I25456807I25512173I25577590I25573988I25496952
2511I25531810I25868246I26396691I26744863I26669512I26311347I25945224I25722889
2503I25697907I25826242I25977584I26084423I26179585I26287528I26375544I26382225
2495I26255052I25987925I25682686I25508571I25469298I25307442I24819083I24167474
2487I23668949I23438713I23428430I23718215I24442502I25328763I25774130I25433976
2479I24813564I24619638I24738620I24875960I25293905I26111612I26725342I26440031
2471I25357695I24272338I23799550I23995102I24407528I24460977I23947753I23347153
2463I23333907I23919809I24722469I25528440I26140718I25831994I24024150I22334533
2455I22147637I22885926I23870660I24787886I25315343I25115723I24307951I23444871
2447I22882207I22606017I22572960I22800931I23293995I24065050I24973387I25507932
2439I25086269I23819883I22618856I22075829I21872492I21676475I21879580I22651565
2431I23554034I24230102I24696267I25025674I25271131I25514323I25738982I25895319
2423I26044511I26018483I25362052I24291103I23896512I24472654I25314762I25726433
2415I25616921I25359264I25339278I25692853I26245466I26712154I26950117I26973995
2407I26823816I26591140I26499289I26690194I26992934I27221427I27410299I27569541
2399I27488787I27016812I26381934I25901768I25670951I25634524I25657763I25609891
2391I25545927I25724922I26233963I26758341I26847345I26225132I25158018I24539465
2383I24753028I25304421I25555223I25292918I25222563I25781683I26455833I26558373
2375I25803701I24599130I23768061I23799898I24641831I25895435I26945586I27188080
2367I26541409I25751530I25648816I26271261I27065961I27567159I27734244I27804134
2359I27904932I27776190I27040864I26117944I25966429I26772865I27924975I28599474
2351I28293596I27353655I26680027I26556630I26670151I26873837I27145612I27237055
2343I26840722I26015346I25264508I25085455I25651082I26883190I28340713I29292680
2335I29275426I28362615I26654871I24398175I23021000I23428720I24434311I24878574
2327I25203100I26479362I28429774I30084011I30926525I31088440I30983518I30788953
2319I30334813I29542030I28792645I28390850I28076781I27360336I26287528I25735263
2311I25985891I26535019I27124290I27819123I28589830I29094397I29006149I28431750
2303I27835506I27600681I27653723I27532650I27027385I26818413I27346044I27959136
2295I28134122I27847765I27258261I26689323I26672881I27284055I27979179I28370632
2287I28508146I28400261I27826501I26966965I26558141I26879995I27384097I27512432
2279I27299567I27200919I27524749I28277504I29277633I30133335I30523743I30511891
2271I30198345I29419447I28284011I27502265I27456253I27843756I28150156I28028967
2263I27541016I27103027I27121502I27713911I28666517I29506940I29701621I28998364
2255I27818136I27032207I26927460I27127021I27279872I27298231I27271448I27287134
2247I27345754I27419188I27483094I27537356I27639954I27841723I28079860I28266059
2239I28411590I28489033I28374350I28132553I28121864I28569322I29172827I29405736
2231I29149124I28761679I28687316I29097534I29750422I30202644I30216123I29901182
2223I29497935I29135297I28807227I28478401I28176590I27977204I27911322I27958438
2215I28118145I28401830I28777772I29174047I29449250I29426883I29167483I29005219
2207I29078479I29144767I29020731I28885947I28968560I29176139I29223023I28981574
2199I28643685I28523774I28654840I28713750I28493332I28252058I28317126I28575422
2191I28701840I28599184I28350008I28009563I27677949I27505926I27506855I27627637
2183I27947400I28484501I28977333I29255847I29582697I30194685I30774894I30799643
2175I30219492I29419737I28693184I28133076I27859733I27942404I28205348I28446448
2167I28656350I28809318I28728913I28350357I27883726I27602830I27617006I27872049
2159I28224229I28477065I28461844I28173337I27774447I27387757I26967895I26510908
2151I26227863I26337781I26827185I27514291I28187861I28686328I28977682I29162835
2143I29383020I29708941I30022429I30026380I29576946I28932308I28465620I28302020
2135I28408802I28749072I29143198I29274845I29054543I28747271I28576758I28454814
2127I28299929I28333160I28745819I29295585I29603264I29650670I29656189I29704468
2119I29797480I30019234I30354973I30566270I30459082I30123168I29779180I29526693
2111I29338925I29199668I29193742I29486490I30156632I31012043I31697232I32001715
2103I31912073I31482856I30915603I30570220I30597758I30769839I30842866I30781865
2095I30561796I30139319I29662290I29376746I29341888I29415496I29445706I29389178
2087I29329688I29409861I29688259I30085115I30495508I30911362I31375378I31843751
2079I32212605I32472529I32654370I32638161I32272735I31679222I31184880I30988107
2071I31038477I31168090I31220958I31104184I30781749I30285548I29786964I29532967
2063I29617613I29957419I30505907I31246985I31992129I32462013I32574952I32461084
2055I32241886I31996487I31861296I31939843I32118954I32146317I31903242I31528927
2047I31329772I31541185I32052666I32451962I32518657I32492978I32680223I33068017
2039I33488402I33829660I33987102I33911576I33716721I33555852I33481140I33506644
2031I33628066I33747628I33744491I33597333I33352050I33071270I32868107I32875776
2023I33121059I33519600I33981989I34425323I34660323I34425149I33658334I32687950
2015I32020539I31897258I32147189I32453763I32616782I32570130I32386546I32327229
2007I32615910I33104734I33426704I33495316I33578800I33880437I34280372I34471800
1999I34246502I33722124I33305805I33297788I33558466I33707484I33621327I33571306
1991I33837271I34320401I34637956I34581834I34380821I34421314I34773553I35133692
1983I35202130I34914030I34391859I33947248I33980130I34543375I35204686I35564128
1975I35599858I35379266I34884342I34241331I33734499I33527733I33564218I33666874
1967I33668385I33555039I33445178I33412935I33485904I33722821I34071864I34334983
1959I34455765I34582648I34721324I34646786I34263466I33761630I33362391I33160041
1951I33213548I33520936I33873930I33968337I33696852I33170266I32471948I31459327
1943I29639516I26164015I20121350I10959025H98792478H84719613H70988238H60325342
1935H54581641H53892734H56951451H61913290H67261064H72237369H76802061H81284373
1927H85909136H90534481H94853832H98724040I02115882I04932628I07130647I08891200
1919I10456259I11869396I13016103I13847346I14425870I14804484I15030653I15279422
1911I15784338I16607274I17614549I18648142I19592847I20328406I20703360I20598496
1903I20094161I19536029I19234044I19110008I18839511I18275744I17548377I16842913
1895I16192465I15379058I14030233I11995581I09635299I07574678I06178040I05419534
1887I05239145I05745048I07024098I08973349I11346296I13780361I15861781I17384720
1879I18468334I19295684I19935093I20511293I21251325I22184005I23035117I23583721
1871I23935553I24296099I24656936I24864921I24859867I24699928I24476489I24326658
1863I24409387I24750065I25165222I25426307I25441586I25233020I24859460I24489735
1855I24397303I24608600I24682382I24176305I23238919I22381126I21730214I20853946
1847I19243514I16722827I13466292I09806161I05996489I02073704H97947524H93617948
1839H89238699H84905812H80377488H75083686H68566839H60993160H53162056H45940441
1831H39710474H34346724H29556966H25188988H21504050H19404911H20111886H24206230
1823H30969987H38795571H46130068H51988450H55929536H57960702H58480374H57995153
1815H56645864H54031991H49571350H42988737H34607634H25575678H17825095H13214740
1807H12344630H14379398H17985267H22106684H26032199H29351072H32071436H34564353
1799H37295639H40575878H44397110H48433532H52265744H55617907H58399504H60646034
1791H62512613H64270261H66222358H68554232H71246070H74127477H76941725H79358361
1783H81145580H82453737H83718379H85135002H86398018H87053055H86926114H86109685
1775H84700964H82690480H80024610H76659609H72537960H67527320H61422143H54273905
1767H47017722H41600524H39903354H42227093H46926104H51515836H54014911H53556472
1759H50480384H46186770H42575149H41264029H43093834H47979683H54972456H62650534
1751H69786572H75788279H80650599H84637058H87959416H90650035H92706822H94272926
1743H95571613H96756257H97933580H99231745I00713900I02252351I03564051I04442933
1735I04989795I05541652I06310152I07173232I07887004I08405573I08890387I09449797
1727I09988525I10339369I10472759I10522547I10679814I11112458I11871255I12786041
1719I13560640I14061083I14431970I14870946I15379406I15795318I16016666I16121994
1711I16270837I16517166I16731426I16725500I16503223I16341831I16498285I16884974
1703I17206538I17377980I17611760I18105057I18792686I19425878I19817274I19977736
1695I20034438I20091721I20209889I20402479I20601169I20740542I20896995I21193694
1687I21589330I21927742I22171282I22409303I22654702I22816094I22878489I22912011
1679I22878780I22671666I22379848I22226241I22207592I22118588I21927393I21784127
1671I21708602I21604029I21483246I21393487I21238486I20912217I20508447I20235742
1663I20201756I20357861I20584843I20798348I21022716I21362522I21844490I22312863
1655I22560237I22529969I22289450I21872550I21327838I20878405I20825363I21253417
1647I21926754I22480761I22693394I22644651I22634136I22878199I23317408I23791184
1639I24261474I24716311I25016902I25055419I24966241I24982567I25147270I25293557
1631I25271131I25109449I24979894I24998659I25060183I24931035I24528137I24027229
1623I23669007I23553337I23645885I23876818I24185542I24529705I24859054I25084119
1615I25154939I25201125I25427411I25799170I26009653I25872139I25593799I25521236
1607I25703252I25854942I25750833I25525187I25481963I25727014I26142461I26614959
1599I27095242I27508888I27786647I27928054I27947749I27844686I27685850I27628683
1591I27754346I27921721I27914227I27744934I27652270I27784091I28095081I28532489
1583I29032118I29401727I29513505I29518908I29631731I29842853I29996460I29986061
1575I29833732I29722013I29882301I30319360I30758743I30951158I30919612I30867267
1567I30914383I30970795I30909213I30802141I30829795I30986248I31117546I31244894
1559I31588999I32216323I32869734I33255552I33388302I33522911I33782951
1552I33984139I33874569I33485207I33177935I33309523I33858476I34424626
1545I34575212I34193111I33560790I33120536I33053783I33198036I33427169
1538I33812638I34255158I34391336I34118458I33799276I33747977I33855455
1531I33855978I33716837I33621617I33660019I33679365I33552192I33454358
1524I33638291I34043804I34365251I34361184I33950036I33258282I32715894
1517I32784041I33424729I34076570I34275550I34070586I33767265I33543710
1510I33413574I33316088I33204659I33191239I33474691I33968337I34257947
1503I34096032I33701848I33515940I33808107I34454371I35030455I35294968
1496I35501326I36024136I36864732I37693536I38163884I38125018I37743441
1489I37418507I37464636I37872182I38360599I38662467I38789815I38883466
1482I38823394I38376168I37765052I37593726I38103754I38837860I39103361
1475I38651662I37931731I37613595I37834768I38137508I38157958I38037989
1468I38097248I38375297I38591183I38472376I38061112I37632883I37379989
1461I37340658I37555208I38036537I38566725I38754550I38471040I38098410
1454I38070233I38251319I38179803I37859575I37795902I38242547I38893343
1447I39360728I39592242I39750148I39932687I40138290I40379158I40648377
1440I40795244I40644019I40269995I39984567I40009200I40307060I40724192
1433I41112974I41290226I41097520I40648028I40331228I40376776I40560477
1426I40501916I40120978I39663468I39394308I39359043I39406566I39404417
1419I39396051I39532171I39906021I40462236I41012176I41433317I41887282
1412I42608201I43423351I43880976I43942268I44123703I44838696I45901046
1405I46751461I46995060I46635152I45915222I45078111I44251806I43442349
1398I42697553I42227843I42180321I42445647I42784349I43006103I43090575
1391I43210312I43485398I43705642I43542158I43075296I42778888I42851683
1384I42945508I42710276I42271241I41956766I41882286I42045653I42490091
1377I43137749I43691350I43914905I43903634I43947148I44175467I44364455
1370I44151589I43522115I42946089I42888341I43357876I44040509I44680383
1363I45235784I45760918I46198326I46378715I46333167I46471321I47180910
1356I48292701I49247050I49786998I50124306I50411651I50510182I50393931
1349I50326365I50519187I50955840I51543194I52126017I52512939I52720866
1342I52947849I53224039I53393100I53399316I53343021I53395249I53782055
1335I54596741I55592513I56385529I56824157I57075598I57465076I58230961
1328I59294706I60348982I61199629I61790528I61986661I61730456I61309373
1321I60981826I60467498I59322186I57711521I56224834I54830695I52409005
1314I47362984I38137799I22641049H97924053H62535910H20518212G81993909
1307G57843527G52891738G63966074G83873618H06461614H28418218H48213753
1300H64837921H77687857H87096511H94301510I00430273I05614099I09520617
1293I12569748I15816291I19584017I23045923I25371638I26670325I27608117
1286I28644615I29815025I30930999I31770375I32213477I32413619I32792698
1279I33622605I34724054I35844211I36891050I37436401I36806404I35251395
1272I34227853I34782151I36227705I36982436I36385321I35513526I36297479
1265I39667942I44502259I48430273I49671270I48467803I46781962I46154986
1258I46452788I46669023I46037050I44555069I42962414I41900993I41114542
1251I40108545I39294440I39498010I40637048I41810247I42483526I42888051
1244I43334870I43708663I43778843I43612281I43330745I42792424I41979946
1237I41390326I41452837I41831336I41908139I41738846I41926091I42588622
1230I42990765I42501942I41625500I41483164I42363615I43471920I44095236
1223I44250295I44177094I43965739I43753513I43756824I44111096I44883314
1216I45992548I47021377I47536111I47682747I48007099I48544258I48614497
1209I47846985I46891416I46656067I47267938I48254357I49292191I50224755
1202I50745647I50713055I50572810I50882871I51451634I51429500I50374237
1195I48977599I48441834I49107909I50077364I50391143I50185714I50232481
1188I50622366I50626607I49880011I49044236I49177857I50800141I53440042
1181I55908441I57206141I57339181I56989325I56427475I55574678I55054715
1174I55759366I57230193I58093738I58210511I58661978I59778301I60740609
1167I60753507I59574208I57474488I55363149I54393636I54999640I56313838
1160I56691697I55351646I53491573I53109067I54731118I56940640I58189016
1153I58214288I57586730I56828747I56206825I55863417I55997097I56818754
1146I58181928I59478872I60028812I59385976I57636693I55779119I55224589
1139I56385878I58241709I59666291I60400629I60337304I59126808I57286139
1132I56426429I57297584I58815353I59642646I59532262I58837081I57856878
1125I57064560I56995716I57447880I57507719I56634065I55322423I54530976
1118I54729782I55602506I56437467I56769488I56721675I56748632I57105111
1111I57584464I57782806I57503594I56765247I55606573I54190008I52974631
1104I52493535I52849259I53494129I53758468I53653023I53778337I54256993
1097I54418617I53937231I53533461I53966802I54866018I55246317I54686907
1090I53715767I53174134I53377820I54058420I54721648I54983547I54895996
1083I54939858I55443380I56116543I56396393I56116601I55609245I55323876
1076I55534649I56169178I56782734I56953828I56706163I56458324I56612570
1069I57172096I57836893I58356740I58640657I58669415I58525917I58477464
1062I58721295I59065632I59185543I59094797I59025023I59022292I58992198
1055I58998473I59090614I59051340I58561994I57345804I55163878I52002911
1048I48470185I45797693I45110587I46503448I48931587I51182241I52811613
1041I54117910I55519602I57035047I58221143I58809718I59009162I59058777
1034I59026475I58981973I59075683I59352570I59689529I59963222I60199441
1027I60456228I60641613I60633596I60533496I60559755I60689775I60671823
1020I60395459I60072791I59906694I59758141I59310973I58426688I57114348
1013I55258227I52842869I50367614I48678345I48401922I49510924I51332421
1006I53102502I54408625I55077140I55015209I54440694I53966569I53891683
999I54001311I54071201I54067599I54061731I54077301I54018391I53741213
992I53191273I52393435I51333408I49943278I48240821I46378599I44341681
985I41926730I39135895I36137947I32940902I29708999I27218929I26054271
978I25922160I26320643I26995084I27799661I28575074I29235746I29901182
971I30738235I31666151I32429537I32840511I32896342I32706250I32413793
964I32199185I32160260I32229569I32306780I32314042I31938390I30771989
957I28850857I26810163I25507351I25616689I27158916I29431356I31794079
950I34101435I36408734I38760592I41199014I43607401I45783750I47653466
943I49252860I50632243I51895258I53160366I54437324I55643173I56566383
936I57014887I57181624I57435796I57965577I58663373I59252761I59473643
929I59342926I59092473I58715834I58236190I58283074I58923412I59539234
922I59881306I59904137I59481544I58629561I57356552I55013466I50668902
915I44689853I38547553I31688401I20814963I01807448H73700992H39713030
908H03214723G67181361G33290652F98618606F63281006F43792860F43538398
901F54199493F75276286G04964824G33144772G55752870G75565717G93679767
894H09521900H23910170H38706394H52173836H60718538H65121083H67578735
887H69396223H71515405H74652553H78827592H82891493H84580646H81415264
880H69348351H41989363H02268216G71483225G62349774G69712563G85989140
873H05353716H23112972H36619571H45665064H51443216H55410096H58800892
866H62462999H66862406H72435303H79550718H87835264H96262321I04088371
859I11068770I17115966I22236873I26488541I29953933I32824302I35200038
852I36895814I37573973I36824995I34769951I32546485I31053582I30866860
845I32720252I36241532I39767345I42400041I44151009I45039186I44827134
838I43318197I41547360I40950013I40927937I40757307I40047311I38447453
831I35848685I32504540I28390792I22441140I12835772H96222758H63524362
824H11212621G64358922G38940469G28513211G27726005G34407672G44522197
817G55154535G67243815G82397505G99443511H15893797H32059410H48843111
810H63521805H74243205H83135905H91872732H99927565I06761851I12468602
803I17098130I21152503I26129796I32020074I36615906I39737716I42047106
796I43721967I44695023I44930372I44660456I44255175I43695649I42725381
789I41471370I40386304I39054909I36221315I30621403I20512455I03947081
782H80749131H53405189H26026622H04215026G94606754H00239897H13320417
775H21171448H20233772H12202816G96920443G74459271G50455582G31673016
768G19387661G12281136G11569222G19939170G33371348G46069304G55579045
761G60465069G60846007G60601769G65689562G78627804G97214294H17196260
754H34826251H49225444H62166010H74722675H85236729H92764512H98573745
747I03870858I08692394I12212281I13625708I12509444I09160129I04857161
740I01186282H99703836I01439117I05174716I08544946I10049352I08840250
733I04485809H97311194H88202782H77634060H65587365H52348822H37255843
726H16997338G88241131G52594749G15787776F82261564F55255512F37099748
719F26746563F21820569F21959013F28335848F40477182F55921529F72725622
712F89863536G06242944G20473483G31059693G36087355G33733463G25161746
705G15548535G10668554G13667897G23522614G36733155G50888633G64797782
698G76891128G86040091G92331118G96161355G98208730G99854427H02416188
691H06075099H10046220H13655691H17021274H20574043H24192751H27260183
684H29443678H31235603H33809158H38044734H43763976H50189263H56618036
677H62583665H67871192H72566485H76900825H80962693H84629389H87750095
670H90346017H92603817H94635506H96345632H97658320H98659611H99369782
663H99534775H98612205H95846700H90808231H84470205H79471939H78483720
656H82080584H88459104H95180508I00816789I05072059I08141176I10363305
649I12126473I13705300I15032048I15545388I14424940I11388184I07417818
642I04497021I04298157I06943460I11094913I15192684I18421334I20627951
635I21744389I21499687I19630494I16384183I12782962I10128421I09062875
628I09252444I09989571I10839347I11670358I12369722I12705810I12376113
621I11114201I08757404I05233219I00465305H94211983H85889093H74529098
614H59123327H39376535H16557258G93835408G75492922G65130326G64079943
607G71199773G83938163G99625237H16186545H32236256H46890956H59572180
600H69889752H77634118H82876563H85959099H87007100H85214768H78941345
593H67141037H51029395H34124272H20218783H11078942H05748888H01194827
586G93146152G77800453G55285833G31877864G16730042G15088005G25161165
579G41253635G58426640G74314495G88534460H01664362H14401765H26970224
572H39010063H49914699H59266883H67048257H73558365H79241239H84541257
565H89746636H94895894H99868423I04575567I09049978I13343011I17354509
558I20887874I23899127I26493015I28575306I29654795I28926034I24991746
551I14908070H94166784H60293040H18768232G83844977G69671953G79356100
544H03879578H30971381H53146718H68492359H77346541H79863451H76111469
537H67754419H58882634H54242532H56286073H64034855H74495460H84789038
530H93159509H98561777H99946446H96716345H90203274H83879423H80927428
523H81352984H81821125H77997046H66533465H45623002H15501820G79482169
516G44096989G17144618G04331399G06713002G20818808G41157834G63014745
509G83749118H02394982H18654422H32360698H43405927H51595661H56581726
502H58404384H58255832H58352911H60688037H65767057H72535926H79426566
495H85378833H90098642H93834821H97097515I00309317I03468076I06157532
488I07906583I08463204I07694124I05366666I01325190H96025927H90529892
481H85419442H79563209H70078333H53795132H29635919H00670275G73853732
474G56551230G52251225G59182823G72548422G87696942H01800424H13900626
467H24276700H33705049H42784877H51565450H59699527H66911033H73229075
460H78834854H83854499H88288881H92014022H94884042H96867570H97886116
453H97417743H94614824H89311726H82974339H78198582H76850572H78728596
446H82194569H85903269H89677501H93996329H99102306I04610367I09729299
439I13822829I16808752I19058593I21014234I22905330I24674598I26148852
432I27339189I28469512I29718817I31151939I32847715I34774250I36618985
425I38076333I39218566I40327394I41528769I42825132I44258545I45817446
418I47333355I48633204I49700899I50657457I51662350I52774257I53837363
411I54609929I55010794I55123966I55078534I55062151I55254218I55580081
404I55658395I54995340I53134048I49797165I44950531I38263345I28008692
397I10508720H81513214H40085021G92876585G53721703G35945019G43142640
390G67590127G97450049H24716955H47107481H65245990H80058074H92114239
383I01714610I08863546I13025398I12473482I03468715H80746458H41656471
376G93264088G54366225G44434239G67072430H07037408H44836784H70961224
369H86038343H93329789H94616741H90328936H80295804H64624707H45158638
362H26376072H14301142H13414243H23837259H41569268H61503362H80119772
355H95947904I08711334I18663770I26398608I32661458I38008360I42606051
348I46276059I48523750I48457055I44560356I34030848I12481035H76542312
341H29549704G84218827G56203349G52930953G69332031G94145759H18447017
334H38465526H53692301H64861102H73290482H80526447H87616648H94601229
327I00963598I06427855I10957747I14386713I16658282I18120743I19182338
320I20064009I21011678I22203700I23391422I24114142I24228301I23865838
313I22971676I21218617I18481115I15375804I13230362I13104874I14337215
306I13697457I05355105H81207569H33360072G61321700F79482872F13835336
299E85884113E98612162F38148446F86579231G32123554G70504882H01532019
292H26216655H45716363H61084778H73092316H81988966H87232340H87825098
285H84095599H79431330H78717325H84078635H93105770I01813607I08282641
278I12890092I16321091I18622057I19815880I20376161I20821702I21314534
271I21821425I22291483I22553614I22296712I21085518I18140960I12323942
264I02806416H90122055H76835525H66961112H63906694H68348454H78010002
257H89431754H99907289I08301173I14732387I19674647I23373471I26035273
250I28140745I30210603I32367665I34296174I35544434I35781351I34863718
243I32806118I29742346I25916582I21718827I17671890I14305320I12029161
236I11071965I11378830I12623894I14576282I17315643I20805842I24591752
229I28230969I31587430I34451873I36367602I36992777I36260181I34211877
222I31020293I27236300I23910630I22297932I23079619I25822292I29473767
215I33338165I37366976I41607490I45768470I49579420I53175587I56527807
208I58700380I59242013I58830865I57926943I56703491I55348915I53853688
201I51781448I48269520I42073249I31765670I16014574H94021892H66849044
194H38851983H16704764H05949843H07957248H19742451H36483800H53965122
187H69187947H79957277H84852131H84073000H80076374H76688076H77132165
180H82569116H91978932I03092018I13815277I23217133I31312053I38250622
173I43892015I47913099I50184029I51096956I51416544I51637833I51553477
166I50419668I47407021I42451166I37382604I35435561I38286177I43965449
159I48912008I51344969I51216693I47956265I40005366I26534844I09000828
152H91346495H79111393H76779810H84327985H97312588I10900464I22957326
145I33471148I42215120I48080997I50805254I52070477I53905975I56504162
138I58291498I58256524I57409827I57450727I58771432I60236042I60478653
131I59055233I56535534I53895982I52046193I51719517I53189762I55811711
124I58201216I59041115I57572264I53734881I48488137I43831072I41893673
117I43638598I48328895I54104490I59076438I62250883I63851613I64993847
110I66923577I70193184I74168023I77515828I79546643I80677202I81603026
103I82449258I82933550I83239831I84007288I85467363I87268587I89008807
96I90405909I90948413I89892569I86889682I82467384I77680471I72629805
89I64799805I49065034I20869864H82712498H48380373H36042383H51896774
82H84253970I16788534I41110998I56831128I66557395I73236912I79284980
75I85477359I90921689I94746870I97287195I99467436A001755040A003918666
68A005576621A006635599A007329157A008124610A009402963A010824818A011306785
61A010437896A009546232A009730281A009968593A009544373A009664284A011000847
54A011865789A010755567A008767624A007552593A006323857A003218369I98319797
47I92414998I84263490I72228649I58438540I48522821I46442098I51540231
40I59923251I67308233I69283743I59622370I33650665H93939976H49899885
33H20693954H28497171H65840956I08977009I45604755I71832025I88906321
26A000736959A009092150A013471225A013549887A009478025A002607776I96724357
19I96236812A001068105A005036325A005817489A008138671A015089556A024262863
12A030525190A031613103A030337074A030608617A033028099A036653082A042395330
5A051124314A061784538A071250301A073741823A068140862
##END=


$$ === CHEMSPECTRA PEAK TABLE EDIT ===
##TITLE=X8779
##JCAMP-DX=5.00
##DATA TYPE=INFRAREDPEAKTABLE
##DATA CLASS=PEAKTABLE
##$CSTHRESHOLD=0.93
##MAXX=3997.453
##MAXY=1.1016173418410853
##MINX=373.96442
##MINY=0.6010943090460042
##$CSSOLVENTNAME=- - -
##$CSSOLVENTVALUE=0
##$CSSOLVENTX=0
##NPOINTS=52
##PEAKTABLE= (XY..XY)
398.0454621657841, 1.0270569362326376
419.29344054730245, 0.8420000718091893
432.04222757626076, 0.9710127759503878
491.5365670445658, 0.8577469629093013
539.6986513761035, 0.9663462688341203
553.8639702971354, 0.9767623594210922
585.0276719233775, 0.899541978325391
602.026054628644, 0.959720497142677
630.3566924706797, 0.8994478628098436
644.5220113917121, 0.8268731874691073
684.1849043706293, 0.947896366256493
704.016350860074, 0.9363166141745234
740.8461800547302, 0.8863346620736033
773.4264135731037, 0.9015297933460574
796.0909238467552, 0.6010943090460042
851.3356676387803, 0.7724778687639283
882.4993692650505, 0.8345313715039473
902.3308157544952, 0.7637605707221029
927.8283898123532, 0.7550509612327608
1007.1541757701325, 0.8996145773847491
1042.5674730727128, 0.7717804942773475
1082.2303660516027, 0.8805370974801352
1100.6452806489442, 0.7226166168825788
1114.8105995699761, 0.9037972730510507
1130.3924503831117, 0.8764196077975052
1145.9743011962469, 0.7896534835390283
1195.552917419859, 0.7336524762066055
1233.7992785066458, 0.7839162988082173
1263.5464482408129, 0.9326631472041624
1280.5448309460512, 0.9277747318836926
1303.2093412197028, 0.901290123703292
1369.7863401485533, 0.7291182913972494
1389.617786637998, 0.6379637149738658
1419.3649563721656, 0.9230611372567796
1447.6955942142295, 0.7803478275851858
1457.6113174589523, 0.7300423417292642
1474.6097001641906, 0.8152356194012694
1534.1040396325252, 0.7466185725884055
1572.350400719332, 0.9552247571476602
1613.4298255903045, 0.7821412127177914
1650.259654784988, 0.6602453627043178
1723.9193131743737, 0.9496467164247979
1757.9160785848503, 0.949960117787976
1801.8285672400493, 0.9730234791372342
1854.2402472478675, 0.9696466974601656
2222.538539194683, 0.7724376356993918
2859.9778906411257, 0.8631041685832719
2872.7266776700544, 0.8617081689635294
2932.2210171383895, 0.833433990173893
2959.13512308835, 0.8406775638349621
3045.543568506646, 0.9287401489672594
3112.1205674354965, 0.8760607286566474
##END=


$$ === CHEMSPECTRA PEAK TABLE AUTO ===
##TITLE=X8779
##JCAMP-DX=5.00
##DATA TYPE=INFRAREDPEAKTABLE
##DATA CLASS=PEAKTABLE
##$CSTHRESHOLD=0.93
##MAXX=3997.453
##MAXY=1.1016173418410853
##MINX=373.96442
##MINY=0.6010943090460042
##NPOINTS=205
##PEAKTABLE= (XY..XY)
3984.7042129710712, 0.9493703296861856
3977.6215535105553, 0.9484648748991082
3970.5388940500393, 0.9478598287038387
3949.290915668491, 0.9478994656849761
3943.624788100078, 0.9486858894911925
3930.8760010711494, 0.9495238709205672
3918.1272140422207, 0.9497300429334177
3892.6296399843627, 0.947401647814073
3882.7139167396404, 0.9486237808840818
3869.9651297107116, 0.947782402497505
3861.465938358092, 0.9473046708930177
3850.1336832212664, 0.9460876040189207
3835.9683643002345, 0.946523968871856
3820.3865134870994, 0.9456042101351225
3799.138535105551, 0.9478818817376832
3790.639343752932, 0.9493621035300858
3779.3070886161063, 0.9505522296916579
3763.725237802971, 0.9496650144410164
3759.4756421266616, 0.9495741173654397
3749.5599188819388, 0.9485415265048115
3742.477259421423, 0.9492423584802993
3733.9780680688036, 0.9477500960084271
3722.645812931978, 0.9496796774770576
3708.480494010946, 0.9500055360599119
3698.564770766224, 0.950611059327093
3687.2325156293978, 0.9491016910058004
3674.483728600469, 0.9469836404831
3647.5696226505083, 0.9497683687362692
3633.404303729476, 0.9516822150395091
3627.738176161063, 0.9508796385017343
3617.822452916341, 0.9507303283309291
3606.4901977795153, 0.950612609554315
3599.4075383189993, 0.9512720747782509
3583.825687505864, 0.9515340375297583
3576.7430280453477, 0.9511716413942497
3563.994241016419, 0.950991516481806
3558.328113448006, 0.9513444347886728
3538.4966669585615, 0.9522169285234904
3529.997475605942, 0.9527970602794076
3512.9990929007035, 0.9520009206215742
3500.250305871775, 0.9531232163909809
3494.584178303362, 0.9530008479586617
3486.084986950743, 0.9526292725491914
3480.41885938233, 0.9523505025029437
3469.086604245504, 0.9515850000954785
3447.838625863956, 0.9519479923143863
3435.0898388350274, 0.951684419829913
3419.507988021892, 0.9502737571741293
3398.260009640344, 0.952401761571422
3385.511222611415, 0.9523996162867618
3360.0136485535572, 0.9533166336554362
3347.2648615246285, 0.954728846538442
3334.5160744956997, 0.9534686256885568
3328.849946927287, 0.9534561089631368
3307.6019685457386, 0.9551575823446377
3296.269713408913, 0.9536646653095837
3280.687862595778, 0.9560534402915856
3272.1886712431588, 0.9555081173438692
3265.106011782643, 0.9567015214511558
3252.357224753714, 0.957715337223654
3241.024969616888, 0.9570863892126377
3225.443118803753, 0.9560903359046637
3216.9439274511337, 0.9565314694247918
3199.945544745895, 0.9575272252040468
3194.279417177482, 0.9578078440321965
3187.196757716966, 0.958638374932063
3177.281034472244, 0.9581935459000528
3163.115715551212, 0.9577631398291863
3154.6165241985927, 0.9576453615468284
3137.618141493354, 0.9573859021404051
3112.1205674354965, 0.8760607286566474
3045.543568506646, 0.9287401489672594
3012.963334988272, 0.9483231948010038
3000.2145479593432, 0.9483956738229132
2959.13512308835, 0.8406775638349621
2932.2210171383895, 0.833433990173893
2872.7266776700544, 0.8617081689635294
2859.9778906411257, 0.8631041685832719
2789.1512960359655, 0.9401310729087741
2728.2404246755277, 0.9440912058076916
2708.408978186083, 0.9447310023313793
2699.909786833464, 0.9465867330681096
2688.577531696638, 0.948979382079225
2680.0783403440187, 0.9489933895261233
2670.1626170992963, 0.9475297975371907
2650.331170609851, 0.9495487853599196
2643.248511149335, 0.9495084927896393
2627.6666603362, 0.9517109440022313
2620.584000875684, 0.951735143346697
2602.1690862783425, 0.9538586191516942
2593.6698949257234, 0.9550336052053137
2588.0037673573106, 0.9549667884627151
2566.7557889757622, 0.9574042606883285
2555.4235338389362, 0.9572768855658412
2544.0912787021107, 0.9579891016056947
2538.425151133698, 0.9578594611610987
2532.759023565285, 0.9576878599334738
2522.843300320563, 0.9569302245957234
2507.2614495074276, 0.9574179100748029
2498.7622581548085, 0.957751040669934
2481.76387544957, 0.9617549226020777
2467.5985565285378, 0.9619346904800585
2459.0993651759186, 0.9619550753011544
2453.433237607506, 0.9623904870362279
2442.10098247068, 0.9616750525564037
2432.1852592259575, 0.9624235681259363
2426.5191316575447, 0.9621421151914121
2408.104217060203, 0.9643876003423437
2396.7719619233776, 0.9647432610432308
2386.8562386786552, 0.9637458370512273
2382.6066430023457, 0.9637838058196161
2350.0264094839717, 0.9666403585315131
2335.8610905629394, 0.9672544649892568
2327.36189921032, 0.9663345862150746
2318.862707857701, 0.9684084106326374
2308.9469846129787, 0.9673667595095351
2297.614729476153, 0.9709010169818036
2283.449410555121, 0.9749978827944015
2267.867559741986, 0.9780928545024831
2222.538539194683, 0.7724376356993918
2174.3764548631743, 0.9584814357145183
2167.2937954026584, 0.9598004861998386
2155.961540265833, 0.9707182102070446
2143.2127532369036, 0.9636795568862839
2124.797838639562, 0.9658298543923186
2119.131711071149, 0.9661874223548906
2110.6325197185297, 0.9659251025689204
2100.7167964738073, 0.9682543923263442
2082.301881876466, 0.9712322998209937
2072.3861586317435, 0.975250725777691
2063.8869672791243, 0.9730644272966574
2058.2208397107115, 0.9748535803397254
2051.1381802501955, 0.9736824683152195
2036.9728613291632, 0.9798489859615864
2019.9744786239248, 0.9791707446235596
2011.4752872713054, 0.9778528267992936
2000.1430321344799, 0.9806786827550786
1987.3942451055511, 0.9800232700774879
1976.0619899687254, 0.9812563111659118
1964.7297348318998, 0.9818403774826476
1957.6470753713836, 0.9793116501210336
1950.5644159108676, 0.9815592220768424
1936.3990969898355, 0.9772213149114884
1930.7329694214227, 0.9784109044954052
1923.6503099609067, 0.9782882385343671
1915.1511186082876, 0.9779195830101873
1908.0684591477716, 0.9796861464417556
1898.1527359030492, 0.9801251346772236
1889.6535445504296, 0.9812890341951964
1878.321289413604, 0.9833605932906504
1868.4055661688817, 0.9838886903514977
1854.2402472478498, 0.9696466974601656
1835.8253326505082, 0.9838781998992503
1823.076545621579, 0.9854700021430056
1801.8285672400311, 0.9730234791372342
1789.0797802111024, 0.9786557603715312
1783.4136526426896, 0.978830223004664
1757.9160785848317, 0.949960117787976
1736.6681002032838, 0.956360165725886
1725.3358450664578, 0.9495345398900461
1684.2564201954651, 0.983113055552209
1650.259654784988, 0.6602453627043178
1613.4298255903045, 0.7821412127177914
1570.9338688272087, 0.955033187639146
1534.1040396325252, 0.7466185725884055
1474.6097001641906, 0.8152356194012694
1457.6113174589523, 0.7300423417292642
1447.6955942142295, 0.7803478275851858
1419.3649563721656, 0.9230611372567796
1389.617786637998, 0.6379637149738658
1369.7863401485533, 0.7291182913972494
1303.2093412197028, 0.901290123703292
1280.5448309460512, 0.9277747318836926
1263.5464482408129, 0.9326631472041624
1233.7992785066458, 0.7839162988082173
1195.552917419859, 0.7336524762066055
1145.9743011962469, 0.7896534835390283
1130.3924503831117, 0.8764196077975052
1114.8105995699761, 0.9037972730510507
1100.6452806489442, 0.7226166168825788
1082.2303660516027, 0.8805370974801352
1042.5674730727128, 0.7717804942773475
1007.1541757701325, 0.8996145773847491
949.0763681939011, 0.9798566150083261
927.8283898123532, 0.7550509612327608
902.3308157544952, 0.7637605707221029
882.4993692650505, 0.8345313715039473
851.3356676387803, 0.7724778687639283
808.839710875684, 0.9368100809444014
796.0909238467552, 0.6010943090460042
773.4264135731037, 0.9015297933460574
740.8461800547302, 0.8863346620736033
706.8494146442531, 0.9347243953905615
682.7683724784983, 0.9462418008424451
644.5220113917121, 0.8268731874691073
630.3566924706797, 0.8994478628098436
602.0260546286158, 0.959720497142677
585.0276719233775, 0.899541978325391
565.1962254339323, 0.9822652392597296
552.4474384050036, 0.9764272025527887
539.6986513760748, 0.9663462688341203
491.5365670445658, 0.8577469629093013
432.0422275762312, 0.9710127759503878
419.29344054730245, 0.8420000718091893
399.4619940578573, 1.0221002155000132
##END=

##END=

