##TITLE=X8781
##JCAMP-DX=4.24
##DATA TYPE=INFRARED SPECTRUM
##DATE=2/11/2018
##SAMPLING PROCEDURE=ATR platinum Diamond 1 Refl
##ORIGIN=ComPlat
##XUNITS=1/CM
##YUNITS=TRANSMITTANCE
##RESOLUTION=4
##FIRSTX=3997.453
##LASTX=373.96442
##DELTAX=-1.4165319
##MAXY=0.99736458
##MINY=0.50531936
##XFACTOR=1
##YFACTOR=9.2886815e-010
##NPOINTS=2559
##FIRSTY=0.91855067
##XYDATA=(X++(Y..Y))
3997+988892417+988824847+988700231+988619185+988711075+988968073+989338842
3988+989834356+990377419+990663164+990355922+989442539+988345632+987648242
3978+987650488+988143885+988654286+988932587+989079342+989163917+989071192
3968+988857702+988859499+989239508+989772882+990213338+990461288+990323196
3958+989621571+988666799+988086582+988051160+988127521+987983975+987860835
3948+988177830+988877402+989423738+989348146+988673151+987902801+987523562
3938+987632970+988052251+988520301+988734561+988417823+987659023+987091768
3928+987302243+988184439+988993997+989071962+988570417+988084785+987819959
3918+987596971+987419351+987581314+988206835+989147490+990231242+991307999
3908+992137834+992367560+991618770+989810870+987520738+985601697+984541880
3898+984457754+985184662+986344839+987530749+988355771+988618736+988672574
3888+988954726+989153778+988632212+987786719+987645419+987979676+987874439
3878+987609677+988031139+988826259+989042381+988465436+987552374+986530737
3869+985786119+985818139+986204309+986047736+985480546+985616777+986759564
3859+988323173+989916749+991263915+991192302+988507274+985618445+985092194
3849+986312883+988166472+989925091+990889938+990558312+989297709+988088828
3839+987373278+986814814+986247110+985959953+986060378+986428323+987021246
3829+987702401+988042626+987868407+987683600+987807125+987611473+986654263
3819+985914778+985969899+986132119+986047801+986261869+987096837+988355001
3809+989599625+990188633+989910589+989506002+989308618+988597175+987335418
3799+986872053+987505338+988212546+988350252+988214086+988274340+988715824
3789+989510238+990377098+990885702+990846623+990506784+990160720+989814784
3779+989485019+989516526+990130047+991013591+991669079+991748649+991142507
3769+990190366+989567348+989486110+989615667+989821458+990262941+990830325
3759+991083985+990888975+990699612+990829426+991033997+990741450+989537638
3750+988096207+987628671+988178728+988778581+988521712+987976082+988145617
3740+988879134+989490153+989479886+988758304+987610575+986658434+986531251
3730+987244619+988167948+988615207+988540835+988581325+989118742+989876515
3720+990571595+991186976+991680180+991983187+992087462+991839127+991065504
3710+990243819+990045087+990431000+991018468+991368768+991057226+990236824
3700+989791362+990174195+991050232+992090542+993117440+993678599+993047881
3690+990841169+988041407+986687502+987512781+989607775+991669656+992772595
3680+992775675+992044083+990607914+988442720+987053138+987820216+989526921
3670+990273080+989890825+990004725+991124732+992302685+992767205+992657155
3660+992626610+992962215+993280879+993111216+992705025+992623338+992774135
3650+992403109+991011923+989641207+989527435+990487854+991836240+993072265
3640+993968002+994397678+994123419+993048907+991760135+991306780+992044853
3631+993060137+993053463+992257253+992182624+992947905+993808092+994308804
3621+994185663+993341775+992454701+992432114+993050704+993396768+993137525
3611+992628086+991957647+991040799+990423557+990645132+991349966+991894890
3601+992161513+992510785+993172625+993945478+994374449+994236678+993935789
3591+993951831+994044555+993476723+992217404+991248900+991035794+991154956
3581+991093867+990666886+990074990+989713654+989872280+990603038+991746274
3571+992928911+993557768+993045121+991596440+990607529+990965850+992089322
3561+993090489+993624055+993808862+993762981+993474284+993044287+992747441
3551+992767012+992930066+992819374+992169855+991273861+990825769+991096177
3541+991693142+992204378+992630011+993102296+993467868+993482755+993285306
3531+993213309+993261500+993107815+992716576+992517844+992782926+993165053
3521+993140605+992667486+992106006+991733248+991634428+991841052+992273295
3512+992689304+992903436+992973252+993060907+993190272+993197523+992929232
3502+992532603+992326171+992312182+992237810+992124038+992244933+992559169
3492+992697132+992522336+992220805+991932108+991719259+991757825+992147973
3482+992659208+992959135+992954515+992704127+992291648+991938589+991875062
3472+991993646+991998395+991890142+991936921+992238965+992616857+992853512
3462+992862175+992741024+992697774+992789728+992812765+992570077+992152337
3452+991837780+991794401+991943402+992070649+992055185+991974845+991960343
3442+992040233+992197319+992478187+992939435+993494626+993923917+994080554
3432+994015358+993864882+993734041+993739624+993994568+994402170+994568175
3422+994082608+992994043+991957006+991740371+992500326+993613660+994272612
3412+994244250+993936110+993763623+993778831+993893052+994001755+993832861
3403+993199512+992434167+992073601+992183459+992426916+992607681+992742821
3393+992790178+992657604+992390853+992162539+992110819+992227864+992373142
3383+992432050+992458423+992630011+993029464+993453494+993585746+993447975
3373+993431163+993711646+993951574+993780499+993270355+992750008+992419986
3363+992313016+992446680+992853512+993505920+994278388+994970323+995356814
3353+995305158+994886326+994274537+993578880+992967477+992817321+993311295
3343+993976921+994099805+993564827+992893426+992536132+992455151+992355688
3333+992107547+991908045+992043121+992502187+992952076+993129632+993111665
3323+993136883+993334396+993688930+994109944+994443366+994558678+994526530
3313+994564133+994732769+994859631+994817986+994663980+994427196+994017604
3303+993428981+992822711+992341379+992008919+991857544+991995186+992477353
3293+993174230+993823300+994226667+994410576+994561566+994781730+994937148
3284+994796168+994330429+993817268+993591393+993728522+994054117+994407111
3274+994757025+995083389+995284944+995255812+994998365+994670525+994499514
3264+994619575+995018835+995605341+996190370+996478426+996321917+995960388
3254+995795859+995954998+996235096+996392503+996362921+996268657+996238497
3244+996207824+996039766+995810233+995698643+995642559+995464746+995241053
3234+995192733+995369070+995721230+996243117+996806073+997122555+997042151
3224+996701028+996334879+996056770+995785913+995398588+994998044+994883759
3214+995189332+995778918+996509034+997289010+997903108+998111209+997887836
3204+997371146+996760192+996402578+996670291+997509367+998330988+998576371
3194+998256552+997788053+997445518+997150020+996751658+996324035+996085711
3184+996136597+996392182+996695381+996879868+996849066+996712579+996714440
3174+996920487+997141998+997200585+997086107+996830522+996434277+995958399
3165+995541813+995302783+995319724+995663350+996295287+996927224+997159260
3155+996871205+996371327+996033028+995866637+995637746+995341349+995267811
3145+995503248+995661938+995353541+994725390+994302194+994429827+995034492
3135+995751005+996141730+995954421+995331274+994727315+994538273+994729689
3125+994815996+994324589+993262719+991955402+990515896+988694712+986152525
3115+982734813+978744329+975191028+973469884+974315890+977034094+980047732
3105+982270999+983769669+985083916+986297675+987057887+987275420+987327204
3095+987466066+987351717+986441927+984706345+982685467+980930506+979610163
3085+978575628+977587873+976529404+975563081+975019761+975078989+975666842
3075+976634641+977869576+979242666+980581619+981742566+982658388+983285962
3065+983479303+982954208+981489612+979213598+976635796+974363375+972779489
3055+971950424+971757468+972106804+973066453+974737032+976888815+978896410
3046+980245886+980967404+981450212+982006687+982652420+983089027+982959983
3036+982316367+981692964+981579769+982005531+982664035+983159741+983109304
3026+982312902+980952388+979511214+978489513+978209158+978733163+979849770
3016+981193022+982487570+983720515+985071981+986676658+988430592+989981945
3006+990922215+991087514+990707890+990221809+989965132+990039761+990349698
2996+990686778+990873061+990895520+990878901+990926835+990999731+990919712
2986+990552472+990040595+989761460+989932599+990335837+990505757+990109513
2976+989125608+987804558+986506866+985487283+984822042+984522180+984534821
2966+984588723+984329544+983766011+983319266+983267930+983386772+983285320
2956+982905439+982522735+982371552+982410567+982404343+982127902+981520349
2946+980746277+980094126+979707700+979464691+979217833+978979958+978717827
2936+978202164+977272610+976033890+974670039+973353161+972397426+972160193
2927+972673738+973596811+974568652+975434935+976155362+976709462+977147994
2917+977593841+978141524+978823129+979645135+980539588+981326879+981870905
2907+982225824+982507655+982730642+982878488+982977501+983001115+982885354
2897+982721980+982786726+983273577+984066515+984856501+985490043+986112226
2887+986908437+987827018+988653452+989229305+989527692+989637677+989680414
2877+989656158+989480976+989252214+989242331+989512034+989807854+989954480
2867+990019933+989964298+989520376+988638436+987722101+987204064+987093629
2857+987075726+986896116+986590222+986442312+986705085+987363524+988245336
2847+989244192+990283860+991213992+991896173+992288888+992442509+992555126
2837+992930066+993711453+994733282+995680804+996316912+996619854+996798501
2827+997064867+997366526+997502629+997438203+997301715+997156244+996977212
2817+996777903+996616004+996521034+996486960+996496265+996537525+996617737
2808+996735038+996811399+996730674+996512628+996381915+996536820+996907332
2798+997272903+997556403+997834255+998105048+998223505+998088429+997787219
2788+997505966+997357157+997347596+997474908+997750129+998105498+998372890
2778+998460545+998508351+998743082+999178277+999604488+999891324+1000110911
2768+1000319140+1000439200+1000453060+1000528844+1000827680+1001275837
2759+1001632617+1001777062+1001843990+1002009996+1002213668+1002198974
2751+1001817232+1001221935+1000787253+1000804771+1001189273+1001559528
2742+1001644360+1001464622+1001171562+1000964488+1001065875+1001460451
2734+1001789767+1001773661+1001580383+1001542652+1001688893+1001761854
2725+1001616190+1001441842+1001538160+1001907646+1002218289+1002209048
2717+1001968863+1001744785+1001635569+1001554267+1001413415+1001275708
2708+1001297077+1001525519+1001833210+1002067170+1002151296+1002045417
2700+1001761725+1001454034+1001340904+1001510054+1001865872+1002231058
2691+1002419587+1002297794+1001905785+1001487531+1001289441+1001351107
2683+1001559015+1001815627+1002052540+1002162782+1002078015+1001887882
2674+1001775008+1001857786+1002146740+1002577122+1003033557+1003441224
2666+1003868205+1004422626+1005031398+1005470058+1005642545+1005710372
2657+1005889596+1006187405+1006359827+1006136005+1005515939+1004790957
2649+1004219723+1003800891+1003428454+1003108057+1002912919+1002893989
2640+1003131223+1003698670+1004471266+1005127588+1005463834+1005597947
2632+1005740339+1005872591+1005854495+1005809641+1006084157+1006723089
2623+1007304012+1007483428+1007425933+1007506016+1007858497+1008383978
2615+1008928645+1009321938+1009449442+1009372118+1009238261+1009091699
2606+1008884176+1008644504+1008547288+1008800628+1009454960+1010298720
2598+1010974741+1011216017+1010983019+1010466330+1009992826+1009806158
2589+1009872059+1009966196+1009955928+1009893364+1009854541+1009828104
2581+1009800383+1009857236+1010093379+1010433539+1010695285+1010840051
2572+1010956517+1010970250+1010679243+1010169932+1009892337+1010170574
2564+1010827923+1011363414+1011377980+1010889717+1010318227+1010081122
2555+1010174873+1010294356+1010299426+1010316687+1010402289+1010398503
2547+1010191557+1009868209+1009573416+1009406962+1009464778+1009798842
2538+1010308281+1010747069+1010833698+1010472747+1009997253+1009962025
2530+1010489238+1011082032+1011259717+1011055145+1010784095+1010709402
2521+1010984559+1011545654+1012030323+1012113679+1011882991+1011672901
2513+1011658592+1011763765+1011782053+1011509206+1010968517+1010519077
2504+1010506371+1010862061+1011256957+1011521013+1011759594+1012184522
2496+1012899237+1013742997+1014398934+1014742303+1014950660+1015215101
2487+1015453296+1015383160+1014894448+1014311535+1014131348+1014491273
2479+1015047940+1015340744+1015160685+1014674925+1014229399+1013946926
2470+1013679341+1013451669+1013624926+1014407853+1015427693+1016000531
2462+1015839659+1015396250+1015338113+1015756239+1016156718+1016117832
2453+1015632713+1014946360+1014344390+1013965600+1013676069+1013261921
2445+1012736954+1012308111+1012097958+1012057788+1012176629+1012595268
2436+1013314668+1013956680+1014132311+1013899826+1013593034+1013425681
2428+1013427606+1013499668+1013515710+1013567623+1013929986+1014655867
2419+1015451692+1015958821+1015994627+1015690850+1015474921+1015684947
2411+1016238662+1016817082+1017151019+1017078572+1016673857+1016310467
2402+1016259966+1016328050+1016173595+1015836899+1015649846+1015711256
2394+1015726143+1015421725+1014937826+1014669406+1014816995+1015243207
2385+1015746293+1016311558+1017000927+1017696392+1018131330+1018192740
2377+1018073065+1018128057+1018640833+1019586044+1020554741+1021166657
2368+1021564378+1022109045+1022713454+1023008054+1022971542+1022857706
2360+1022688492+1022232250+1021374373+1020344394+1019558579+1019257691
2351+1019371334+1019729141+1020233574+1020839908+1021472680+1021943425
2343+1022013882+1021706320+1021359357+1021164732+1020976011+1020766756
2334+1020775290+1020989037+1020998214+1020549479+1019865500+1019376275
2326+1019405536+1020021688+1020985829+1021899854+1022430981+1022448179
2317+1022148958+1021929564+1021862058+1021564634+1020873661+1020279969
2309+1020365506+1021132969+1022096404+1022759078+1022868230+1022437206
2300+1021740329+1021226399+1021220752+1021683732+1022369251+1023050406
2292+1023426501+1023194594+1022542957+1022157685+1022391004+1022839610
2283+1023005231+1022934260+1022933875+1023012418+1022916357+1022582806
2275+1022295777+1022329723+1022608024+1022865150+1023055796+1023397368
2266+1024001007+1024668815+1025133849+1025292539+1025099005+1024613052
2258+1024312035+1024783678+1025880841+1026818352+1027247836+1027535185
2249+1027992518+1028483091+1028690807+1028389340+1027598713+1026662678
2241+1026108449+1026403242+1027598584+1029016144+1029819028+1030153413
2232+1030919849+1032227808+1033200612+1033521329+1033906729+1034758831
2224+1035487342+1035580452+1035365036+1035187031+1034734639+1033853148
2215+1033234750+1033551745+1034611562+1035993765+1037648686+1039205557
2207+1039625865+1038506307+1037158242+1037333873+1039036023+1040538093
2198+1040589236+1039580690+1038383679+1037332140+1036646108+1036619350
2190+1036960986+1036873395+1036074297+1035138583+1034712821+1034816390
2181+1035107140+1035504604+1036187941+1037186284+1038307767+1039289491
2173+1039891654+1040209676+1040775904+1041852469+1043021438+1044037427
2164+1045415010+1047533938+1049741869+1050777109+1049878870+1047571734
2156+1045194717+1043513230+1042285611+1041141475+1040281417+1040065167
2147+1040167645+1039712686+1038541471+1037889962+1039062396+1041570125
2139+1043385983+1043180962+1041589761+1040070814+1039311757+1039081390
2130+1038895364+1038363787+1037435645+1036622494+1036571480+1037246282
2122+1037887973+1037886497+1037341766+1036672803+1036004160+1035180165
2113+1034300406+1033939455+1034559906+1035811974+1036765334+1036838166
2105+1036200261+1035364202+1034790273+1034788862+1035323711+1035969381
2096+1036448596+1036993520+1037797880+1038509515+1038732503+1038577214
2088+1038310848+1037926218+1037427367+1037127441+1037321296+1037946495
2079+1038688611+1039160896+1039029157+1038332408+1037687830+1037835932
2071+1038852820+1039975779+1040274230+1039447347+1038158638+1037640794
2062+1038597812+1040477903+1042215859+1043454066+1044383748+1044789554
2054+1044309505+1043375459+1042818728+1042810899+1043075532+1043819894
2045+1045538728+1048085279+1050623553+1052311200+1052785731+1052308377
2037+1051685359+1051853354+1053185761+1055129123+1056712816+1057407960
2028+1057413864+1057355021+1057680872+1058063063+1057607398+1056077350
2020+1054360184+1053224070+1052386278+1051388192+1050561116+1050440350
2011+1050899223+1051395828+1051771346+1052421956+1053555568+1054617952
2003+1054934434+1054646250+1054568541+1055304689+1056741308+1058328210
1994+1059598886+1060238203+1059788891+1057959751+1055548019+1054352099
1986+1055573943+1058474964+1060969218+1061525243+1060269197+1058519819
1977+1057561902+1057636467+1057927474+1057609644+1056812792+1056434194
1969+1056917388+1057539058+1057401864+1056788343+1056613098+1057007353
1960+1057345011+1057232201+1056727640+1055851474+1054568413+1053095604
1952+1051817676+1050937660+1050262409+1049321690+1047818977+1046032894
1943+1044615399+1043950928+1043861347+1044053662+1044563422+1045605592
1935+1047084498+1048340608+1048629177+1047889114+1046713087+1045576395
1926+1044496237+1043434430+1042591120+1042174277+1042070323+1041897708
1918+1041381340+1040762043+1040633513+1041166052+1041754996+1041459305
1909+1039908017+1037942709+1037118714+1038379444+1041252616+1044277484
1901+1046225081+1046973934+1047240429+1047700842+1048501993+1049435012
1892+1050283456+1050865919+1051088201+1051231298+1051740609+1052547599
1884+1053102726+1053010451+1052331093+1051381775+1050484370+1049734361
1875+1048994299+1048335475+1048226580+1049019325+1050495279+1052017755
1867+1053157398+1053996281+1054716002+1055296476+1055611289+1055626498
1858+1055492512+1055494438+1055893249+1056683812+1057518267+1058004348
1850+1058038037+1057786943+1057483038+1057261847+1057109189+1056973600
1841+1056921174+1056980402+1056949151+1056565484+1055920392+1055459850
1833+1055388494+1055416151+1055245012+1055039093+1054917236+1054402664
1824+1053049145+1051216154+1049680652+1048806668+1048467471+1048325528
1816+1048147652+1048003656+1048104787+1048571104+1049380789+1050403453
1807+1051478221+1052485291+1053273673+1053564166+1053120437+1052164959
1799+1051385882+1051249266+1051587244+1051874080+1051678750+1051136777
1790+1050927073+1051309200+1051890828+1052258838+1052330964+1052352525
1782+1052589502+1053019692+1053337264+1053293180+1052976249+1052638784
1773+1052403476+1052287394+1052408994+1052823719+1053318591+1053606518
1765+1053470544+1052722589+1051406865+1050098072+1049282932+1048736403
1756+1048115375+1047421835+1046638779+1045506708+1043975376+1042639503
1748+1042049404+1041912082+1041720923+1041412141+1041175164+1041048430
1740+1041000945+1041181389+1041725607+1042556340+1043402859+1043991418
1731+1044332670+1044529027+1044613345+1044600640+1044489306+1044317718
1723+1044205101+1044148055+1043846589+1043010529+1042146492+1042266232
1714+1043245388+1044308157+1045042444+1045383631+1045355846+1044972179
1706+1044470441+1044333375+1044566438+1044338060+1042899517+1041186330
1697+1040667009+1041601632+1043476654+1045639538+1047756028+1049699068
1689+1051324921+1052443517+1052755956+1052325959+1052569738+1054339201
1680+1056736302+1058806013+1060062316+1060484484+1060563926+1060763877
1672+1060891060+1060635282+1060459138+1061040895+1062163983+1063317358
1663+1064303830+1065174733+1065987499+1066733529+1067392739+1067838457
1655+1067721862+1067152489+1067528264+1068946850+1070396366+1071366796
1646+1071996231+1072732892+1073473660+1073741823+1073110720+1071210159
1638+1067494703+1061711141+1055774985+1051899235+1049026127+1044420581
1629+1034959680+1018476111+994913854+965342096+934540345+913131604+906762306
1619+911388450+921513373+932523381+940335457+944300659+945190107+941914659
1609+931747705+912808127+886230885+855313052+823025144+790930513+760324220
1599+734265144+718044026+716891870+732058561+758708506+789104709+817962971
1589+843992850+867944292+890388595+910600132+926534671+935655027+936604858
1579+930280671+919269059+908982044+907426071+915378870+927233665+940255439
1570+953818735+966421228+977058157+986189293+993908774+999777424+1003889894
1560+1007009925+1010086641+1013612734+1017709611+1022141194+1026211890
1551+1029440174+1031879049+1033775182+1035286365+1036190251+1035882432
1543+1034198057+1032263230+1032285881+1034631006+1036988707+1037543128
1534+1035039057+1028923741+1020060382+1008242228+989939978+960902107+922629210
1524+881447014+840346055+803157103+778969390+769622453+768730053+772041821
1514+779728062+792977123+811078972+831895048+855424193+883909375+910683167
1504+927057585+937133547+945799907+954857954+965003476+976405621+987936683
1494+997853698+1005673089+1011928423+1016667376+1017363867+1009621736+992793065
1485+972381833+957830203+957327759+970631813+989145436+1005000918+1015526000
1475+1020048190+1016133104+999897869+970917237+932116998+886526256+841011810
1465+810713273+807047805+823754041+850088980+883411294+924810126+964591318
1455+990369398+1005694073+1016749962+1025503206+1032082850+1036452767
1446+1038811174+1039645950+1039401979+1038266378+1036187235+1032341580
1438+1024688836+1012010238+996736835+980543823+960528771+933259465+900347063
1428+867697819+837262280+806276492+775092293+749248439+732985483+727230027
1418+732351493+747480901+770910456+801694817+837894346+875260149+908917169
1408+936070329+956466417+970269129+976976341+976618984+969532981+955892810
1398+937642087+918874675+904107245+897809111+901246778+910033968+917125746
1388+914807252+896905225+864312064+825017145+789287784+767599907+766436906
1378+783333660+810088779+839864017+868309800+891713494+908525096+919893937
1368+927122524+930736785+931639837+932019333+935340534+944149926+957138781
1358+970675705+981818671+989160580+993026127+995077229+996837067+998719724
1349+1000481487+1001842193+1002357279+1001166878+996978496+987705160+970258798
1339+942298262+904776593+860963655+813595557+764550013+716547795+674341139
1329+643308507+626139355+621321923+625075816+634106913+646547443+661247624
1319+676677344+690465425+700372302+706054349+709773655+714954605+723574826
1309+735130914+747887220+760408025+771960070+782068245+790352157+797052695
1299+803270105+810130681+817732732+825117634+831165316+835444113+838527824
1289+841721456+846246855+852462724+859875412+867744341+875471843+882647297
1279+889095651+894913736+900253697+904750861+906854389+904235968+896325328
1269+886880469+882490018+887386058+900174384+915884908+930357225+942147850
1259+951418747+958380004+962587316+962603294+955881387+939816137+914312508
1249+883921952+856746333+840148479+836793974+844246254+857805188+873533615
1239+889179841+903363974+914152470+917845403+910427261+893015678+875381428
1230+869953684+880832209+900961675+920100241+932866109+939569984+943107435
1220+946502045+951455965+957736452+963944429+968765839+971242190+969916969
1210+961930481+943791991+914762077+880411773+851517577+837248805+838692353
1200+849557724+862998394+876593198+890880194+905295208+917176504+924082961
1190+925730952+923417656+918436079+911723926+904346211+896998334+888892299
1180+877899681+862136474+841604797+818738647+797045765+778398414+761948212
1170+746319889+732136462+721626396+716488888+716941794+722414906+732300735
1160+745518481+759447157+770406856+776539884+780068222+785496287+795414843
1150+808781141+822943392+836050254+847425641+856961364+864906013+871787509
1140+878077109+883935171+889271474+893934965+897791785+900628958+901971440
1130+900889934+895938260+885682432+869847099+849966738+828628904+807947456
1120+788417458+768698290+746539155+720509917+691358403+662019964+636071771
1111+615285278+598544070+584160756+573297888+569790661+576393213+592324286
1101+614470395+639710288+665797407+691150110+714741306+736094990+755050418
1091+771499721+785232039+795830980+803054497+807822326+812624614+820308159
1081+832122784+846784143+860959870+869671468+865485396+839339050+787308295
1071+719358916+657932327+623348769+620474698+639925704+668770105+697941704
1061+723060190+743073189+758945355+771958145+781901277+786273183+782127088
1051+770487260+758453691+754520830+761486131+775451319+791194440+806437556
1041+821273969+836005528+850541757+864701955+878190880+890526815+901174011
1031+909785698+916867658+924013466+931857563+937168840+932933679+911325693
1021+867524177+805599123+743087498+703086912+695306215+708268632+724125397
1011+736415066+749684147+767672867+788077811+806633272+821513255+833413225
1001+843540907+852443409+860181177+866828327+872580382+877669314+882351542
992+886904212+891514057+896089635+900267558+903815211+906940568+909892090
982+912192232+912431583+909001872+901341620+890921840+881212411+876205167
972+878069986+885794599+896211556+906336095+914695341+921096531+925971843
962+929893603+933278138+936337850+939061636+941032847+941213291+937810339
952+928990358+915222619+901130440+893205875+894055731+898791925+898213055
942+887537112+872722325+866075367+874272201+892615840+911635694+926018751
932+935781568+942460546+947116464+950624654+953737626+956691779+959287997
922+961401279+963197565+964808787+966007338+966219031+964670310+961035066
912+956608744+954205739+955865794+961038852+967589363+973847391+979157835
902+983343201+986492621+989032049+991511095+994196700+996909450+999317845
892+1001370550+1003362231+1005648192+1008359208+1011278903+1014020721
884+1016456003+1018872547+1021647733+1024951544+1028737779+1032796732
875+1036751859+1039347500+1036401431+1020242173+985458600+938456457+898787048
866+885828417+902575528+933882355+959907743+969857420+965074062+953142971
856+939893461+924891813+903541979+874381802+844795606+828008517+832339226
846+853723198+880384373+903798142+923257041+941773166+960915133+979073324
836+992039527+994498423+981793517+951623895+905485469+848829533+790147072
826+740871803+714004003+717677621+748474046+793302011+838156541+873870438
816+894971938+896270977+873308253+828562746+776488099+737437857+723638739
806+732477777+753152552+776448763+798107379+817265132+834471373+850382618
796+865081002+878250237+889706092+899281278+905382221+903108453+885738965
786+852061988+813065841+787216469+786001747+805588920+833300287+858885410
776+877522174+885521367+879233436+860706979+840650730+830565014+832890567
766+842992326+857966316+877465898+898215237+913889377+919686222+914194437
756+898959342+877606621+852449698+820720574+776425021+717854535+654056128
747+603646028+584804693+603377223+649639624+706099780+756976518+790628020
737+797803153+775464858+735882334+705422026+705336553+732431255+761307869
727+764825940+732575635+675064838+614237589+568886454+546151915+544016238
717+558098856+583950281+616022710+648546696+677710595+702090302+721954236
707+738906560+755000623+771200436+786955172+801291579+813779979+824527728
697+833734969+841103893+845153926+843165839+832768132+814938167+795803772
687+784002687+784726579+796503536+813697329+830919228+845090206+854742460
677+858853647+857259301+852196743+848143950+848988929+856672924+871212489
667+887625473+899802781+907703859+911315939+906500753+889039375+861734391
657+835491662+821785332+823864155+836141695+850992738+864303080+875677890
647+885986593+895605800+903914802+909308216+909781720+904600320+895804532
637+887182385+881640548+880497760+884498704+893537437+905546173+917306510
628+926679436+933501447+938620730+942628476+945325119+945554652+941067242
618+929974777+914463947+901808001+898636379+904819715+914535432+921955627
608+924386866+921660192+915623034+909982697+907806402+908215416+906976759
598+901293365+892637786+883715777+874612939+864519844+856448973+856303502
588+866537256+883728482+902219646+918315249+930974852+939800287+943132332
578+937906721+922849631+903338435+889749470+888142676+895849771+905665014
568+909743796+901454879+880900550+859443810+852144189+863445460+884400397
558+904080615+918512569+928778985+936266430+941563654+945233614+947948160
548+949909104+950520251+949435536+948041205+948790893+952756480+958477862
538+963423312+966438939+968509291+971019972+973761148+975365568+975487169
528+975495896+976764776+978982910+980841568+982018237+983253685+984944669
518+986693919+988114559+989421812+990976694+992693282+994227245+995655713
509+997524896+999842556+1001603933+1001977334+1001266340+1000028518+997620315
499+992383666+983321704+970935269+956042837+938850199+921073430+907642578
489+903173520+907780477+918004285+930450976+943479487+956019929+966671167
479+974657077+980663049+986073019+991515330+996353488+999694646+1001866321
469+1003922171+1005880163+1006922462+1007428050+1009229534+1012957375
460+1016517990+1017423994+1015978649+1014563335+1013597012+1010982506
452+1004720114+994708385+983439904+975739803+976534665+986931923+1003013665
442+1018795288+1030144494+1036161311+1037042160+1031834387+1017488291+988359300
432+939199215+874808976+816573004+790213359+805170794+848863478+897913835
422+936629306+962486828+975519446+974782528+964730950+950463782+935705720
412+927721607+933903146+953290367+977094541+996572626+1007813322+1010943555
402+1008026941+1001884802+995478157+992175181+994436821+1001078966+1009933277
392+1020081558+1029345139+1033652619+1030573657+1019299850+995671948+957191143
382+915931816+888498044+878918430+881792500+891300951+902608254+910542188
##END=
