##TITLE=X7796
##JCAMP-DX=5.0
##DATA TYPE=LINK
##BLOCKS=1


$$ === CHEMSPECTRA SPECTRUM ORIG ===
##TITLE=X7796
##JCAMP-DX=5.00
##DATA TYPE=INFRARED SPECTRUM
##DATA CLASS=XYDATA
##ORIGIN=ComPlat
##OWNER=
##XUNITS=1/CM
##YUNITS=TRANSMITTANCE
##XFACTOR=1
##YFACTOR=8.9799535e-010
##FIRSTX=3997.453
##LASTX=373.96442
##MAXX=3997.453
##MAXY=0.964215164154523
##MINX=373.96442
##MINY=0.4307687896568238
##NPOINTS=2559
##XYDATA= (X++(Y..Y))
2559A066464775A067589901A068344852A068252525A067653954A067155741A067065803
2552A067353473A067827392A068242503A068452779A068556524A068742972A068971303
2545A068969511A068561568A067836884A067019141A066332290A065994507A066136151
2538A066667817A067314776A067761747A067813785A067578684A067462527A067749932
2531A068222192A068335760A067785775A066900595A066396010A066678769A067483303
2524A068191991A068373594A068066542A067826926A068297063A069287647A069876661
2517A069619457A068805829A067815113A066986020A066798576A067370465A068083335
2510A068371138A068268986A068048820A067837480A067521469A066898338A066035925
2503A065417905A065515808A066256357A067226829A068203939A069165583A069948412
2496A070120988A069317317A067722055A066215934A065695818A066169007A067077617
2489A068040988A068824414A069120912A068738392A068002490A067759822A068322418
2482A068928889A068778416A067694376A066136417A064758533A064085157A064656847
2475A066301293A067843521A068230754A067180698A065343565A063981280A064209079
2468A065952093A067757565A068456098A067974612A066963917A066164560A065900851
2461A066130974A066529358A066462253A065217186A063420475A063421006A065367792
2454A067755574A069618528A070474702A070092115A068568803A066478249A064671449
2447A063959840A064759595A066550665A068256906A069129740A069007743A068311731
2440A067699487A067540253A067740905A067885470A067592424A066904046A066406033
2433A066456943A066833224A067606097A068976546A070387949A070979021A070368037
2426A068741445A066998365A066289279A066340255A065704712A064092392A063220088
2419A064442056A067004937A069716829A071719569A072594461A072601497A072327765
2412A072178288A072121670A071775523A070862997A069608837A068443752A067583463
2405A067237117A067551271A068146723A068508800A068604314A068714298A068994999
2398A069304174A069403405A069394644A069712117A070420141A070856957A070342283
2391A068978007A067659994A067103968A067149369A067149104A066449243A065048792
2384A064105733A064291584A064877544A064969142A064230983A063250223A062504232
2377A061658877A060330111A058684736A057408008A057134476A058188249A060485695
2370A063223075A065277787A066004131A065654732A065083772A064916307A065205571
2363A065741551A066367071A067005866A067448920A067316436A066495108A065811112
2356A066532544A068472426A070183447A070573070A069542594A067969767A067087375
2349A067227426A067766858A068383948A069252335A070407397A071531528A072179881
2342A072001730A071048847A069879449A068931013A068284319A067934721A067814183
2335A067744423A067522730A067085051A066844640A067401263A068129997A067848367
2328A066576617A066153210A067844251A070303188A071788931A071793378A070943244
2321A070056737A069368094A068829990A068597411A068620974A068341468A067350420
2314A065818944A064350127A063576922A064012078A065697278A067847836A069322428
2307A069622178A069268730A068853686A068249671A067159458A065734316A064163347
2300A062324222A060806818A061372866A063894726A066301293A067573971A067957089
2293A068085857A068297992A068433929A068190730A067569259A067074232A067393829
2286A068537275A069860067A070909459A071481747A071299945A070340424A069040200
2279A067954633A067338339A066969492A066294323A065045075A063886562A063677281
2272A064195340A064616822A064827365A065700730A067636231A069698974A070755402
2265A070472777A069571335A069032833A068971170A068936788A068920858A069090645
2258A069011591A068108889A066708837A066007184A066421764A067083259A067557510
2251A068153162A069059183A070064038A070825495A071038891A070597230A069878851
2244A069444557A069236472A068781602A068070923A067589370A067711235A068638232
2237A070431956A072496889A073690581A073464839A072390755A071212064A070096761
2230A069091176A068461009A068299851A068317772A068330384A068657414A069706143
2223A071183124A072135410A072012815A071392472A071305122A071950688A072521913
2216A072312167A071579318A071143897A071345876A071758465A071885175A071711338
2209A071479158A071187505A070706152A070203293A070057201A070420672A071088141
2202A071659964A071750964A071331075A070911849A070997606A071386100A071454201
2195A071024089A070531121A070357217A070475631A070832862A071547989A072514744
2188A073246066A073359568A072820070A071712201A070334052A069389002A069359996
2181A069819180A070017907A069956510A070243052A071112568A072112112A072718118
2174A072957201A073228344A073621086A073741823A073321867A072641521A072148287
2167A072048989A072287741A072495031A072166473A071260915A070349651A069909118
2160A069833119A069818051A069824623A069991689A070344009A070630484A070423792
2153A069593637A068645068A068249273A068559179A069293289A070123709A070668584
2146A070575592A069939253A069308024A069138701A069433606A069877325A070127161
2139A069983525A069438452A068644471A067781859A066872983A065790469A064537769
2132A063328280A062274308A061252196A060215547A059330235A058708431A058299626
2125A058139928A058359431A058705976A058406623A056906211A054510398A051847158
2118A048943574A045176381A039829724A032463733A023059094A011821436I98597433
2111I82736342I63645699I40885103I13814365H82402355H48800361H16997667G90316485
2103G69969491G56147845G49451249G50687487G59731444G75114898G94661739H16247560
2095H38148531H59068343H78011567H94398748I08408567I20772413I32010536I42141984
2087I51114521I59153092I66623159I73702541I80235789I85850934I90210326I93336333
2079I95820294I98407799A001220980A003753925A005619866A006774264A007204176
2072A007116162A007228934A008224961A010007600A011795881A012872288A013148741
2065A013035903A012882245A012778168A012830339A013198921A013826897A014447572
2058A014833345A014866134A014528417A013985799A013569494A013541284A013805657
2051A013867187A013280828A012205948A011295943A011014180A011305700A011905135
2044A012632873A013319326A013769549A014069897A014707032A016002677A017566345
2037A018708131A019305176A019823169A020537565A021218708A021679883A022263653
2030A023530225A025568011A027773328A029402441A030418646A031520209A033040799
2023A034260776A034425851A034009679A034111166A035013538A036116827A036850870
2016A037074289A037020592A037207504A037985090A039021207A039622501A039584866
2009A039382289A039451518A039677526A039809745A040010331A040548833A041210528
2002A041504371A041340623A041087004A041000251A040889073A040456372A039860920
1995A039666773A040188681A041143821A041964019A042189562A041719028A040913631
1988A040196513A039551014A038821617A038257428A038165631A038372058A038581936
1981A038877173A039386736A039852424A039982321A039926698A040052413A040510004
1974A041283408A042328950A043404428A044168009A044636220A045087638A045487084
1967A045533679A045144919A044436497A043575212A042969737A043078858A043844629
1960A044761669A045400199A045514497A045049339A044337863A043834473A043608001
1953A043579592A043973397A044888844A045750925A045856993A045278400A044718459
1946A044642193A044947320A045287958A045351280A044896809A043899787A042730919
1939A041914902A041614952A041588601A041590725A041467732A040951598A039872868
1932A038588773A037776871A037708372A037913338A037626797A036575147A035249900
1925A034272856A033732496A033428232A033338094A033373406A033090183A032198830
1918A031096071A030493318A030631246A031071646A031206122A030828712A030197484
1911A029731198A029746265A030286891A031112798A031987756A032868489A033666120
1904A034162209A034376534A034612897A035070156A035819997A036979373A038400466
1897A039484573A039720338A039112274A037952898A036657917A035825174A035871769
1890A036497820A036919038A036731129A036246391A035887434A035620008A035236890
1883A034872689A034822443A035052765A035289990A035444711A035639853A035971199
1876A036371707A036563863A036249046A035538300A034906541A034550703A034249028
1869A033907195A033579102A032966393A031726105A030267178A029477379A029687589
1862A030496106A031418257A032191329A032653765A032737996A032503957A032063955
1855A031545963A031052396A030577150A030092412A029695886A029522780A029574751
1848A029726220A029817220A029756022A029566056A029216856A028510889A027391869
1841A026200766A025349105A024994463A025212240A026051422A027198120A028013075
1834A028115094A027660623A026975763A026171428A025209452A024165303A023200008
1827A022293455A021243864A019924457A018320500A016404247A014205369A011862456
1820A009417458A006799287A004143813A001855992A000198536I99013738I97986913
1813I97083215I96610623I96913361I98124841A000067644A002157734A003634516
1806A004292560A004814601A006019644A007965832A010039991A011745237A013158233
1799A014621608A016118236A017149176A017331044A016886397A016372055A016141799
1792A016180363A016242159A016096000A015798374A015698745A016030621A016576292
1785A016866882A016669615A016159588A015625533A015181947A014843301A014700926
1778A014823654A015062605A015131834A014900915A014518991A014221099A014066644
1771A013895861A013502787A012791510A011803846A010697106A009695703A008989537
1764A008639673A008547345A008484222A008170201A007424674A006358423A005416027
1757A005080965A005455587A006192418A006839245A007186852A007338586A007502798
1750A007667608A007536915A006926528A006080045A005408394A005052092A004808429
1743A004388273A003762089A003289365A003322220A003723459A004100669A004412500
1736A004898101A005510015A005908797A005987253A006008359A006208083A006544605
1729A006866658A007088285A007133752A006951817A006696936A006674701A006993899
1722A007456734A007863946A008246798A008734855A009316568A009795664A009952575
1715A009696831A009080537A008303482A007735842A007734049A008318882A009136492
1708A009745949A009919985A009789292A009723979A009946336A010285646A010411626
1701A010190464A009717275A009142399A008580731A008121482A007807924A007566054
1694A007234576A006769485A006336984A006143566A006282556A006742536A007362282
1687A007805336A007778189A007278052A006562195A005956454A005651128A005546322
1680A005356290A004962087A004547906A004329930A004307959A004362719A004445821
1673A004529387A004473433A004160673A003737929A003494929A003483911A003480526
1666A003336691A003116059A002870471A002594815A002419584A002525585A002848567
1659A003172478A003476145A003887074A004376259A004814336A005207875A005622587
1652A005999001A006263174A006527613A007034123A007900784A008950442A009814448
1645A010236395A010254582A010095149A009965916A009997113A010281398A010804036
1638A011333312A011610495A011727648A011995140A012355823A012382771A011983989
1631A011580958A011418405A011228307A010765672A010206726A009799248A009486156
1624A009115052A008774149A008669940A008812912A009034738A009219527A009348428
1617A009389647A009270901A008954823A008493979A007994639A007547270A007258073
1610A007270020A007556429A007774339A007599042A007122734A006681006A006438405
1603A006348798A006319593A006251625A006043804A005629689A004951534A004027458
1596A003141747A002744491A002955166A003334633A003374856A003070327A002711436
1589A002284710A001509779A000406689I99337318I98473511I97687761I97007481
1582I96691203I96764216I96911303I96932941I96891656I96755720I96387005I95926560
1574I95679512I95586454I95279933I94656935I93999820I93583581I93481098I93698211
1566I94243948I95007662I95665042I95854676I95543243I95127403I95043239I95319625
1558I95627009I95719470I95679910I95687078I95748542I95828590I95962469
1551I95982581I95509657I94633969I94126995I94448251I94961597I94662311
1544I93328767I91518781I89832982I88601921I87902857I87479317I86895016
1537I85988928I84970001I84018314I83108243I82272579I81701885I81452314
1530I81244692I80669285I79594272I78348741I77399509I76838638I76435608
1523I76147473I76109772I76132804I75826084I75225587I74640888I74010921
1516I73167026I72517611I72637816I73345642I73876046I73827128I73455426
1509I73209042I73272563I73460272I73448457I73115718I72516084I71597318
1502I70335791I69131213I68612955I68994613I69888422I70655587I70734839
1495I69949354I68815798I68285659I68921069I70506773I72429531I74024063
1488I74652172I74142609I73256500I73055516I73652760I74141746I73896954
1481I73370333I73335420I73796728I74065680I73741769I73212427I73055383
1474I73227892I73149636I72485352I71498087I70614301I70027677I69801736
1467I69918689I70041483I69671906I68786128I67929888I67513251I67427295
1460I67424441I67393510I67180644I66633779I65930268I65468363I65384265
1453I65484492I65634500I65895753I66263803I66531627I66488284I66129924
1446I65707048I65590626I65910953I66299779I66266193I65849489I65586776
1439I65854534I66527844I67249011I67825944I68390067I69117540I69763504
1432I69793439I69142298I68413896I68129146I68252073I68621451I69311488
1425I70317405I71256946I71568445I70821525I68923392I66251856I63420820
1418I60699834I57891498I54906073I52038066I49437949I46775439I43704457
1411I40264361I36698817I33147875I29476993I25492754I21675448I19163942
1404I18377861I18485853I18902424I20254819I23188405I27286544I31635648
1397I35579863I38648257I40326953I40174357I38281999I35721973I33928448
1390I33393729I33689497I34391481I35432378I36777870I38076634I38909975
1383I39360729I39831130I40300934I40447491I40409723I40681596I41418361
1376I42475851I43982834I46154765I48622927I50613919I51718203I52132517
1369I52334099I52782663I53792097I55449619I57561746I59658539I61200568
1362I62044529I62687904I63803672I65497169I67115597I67802514I67351229
1355I66601454I66733209I68011994I69575728I70526420I70720236I70456328
1348I70103876I70077591I70497879I70907680I70825640I70339640I69769676
1341I69200310I68685570I68432282I68523880I68842680I69333724I69967143
1334I70431106I70254016I69345472I68137908I67095087I66431533I66388190
1327I67139492I68237205I69050302I69951943I71866005I74354412I75594833
1320I74855745I73693514I73872660I75076110I75686298I75316322I75227512
1313I76197652I77429045I78007307I78164682I78562071I79317885I80216938
1306I81218540I82358203I83420671I84107190I84584362I85471599I87156667
1299I89504359I92067505I94201335I95469567I96270716I97235613I97953195
1292I97451863I95795469I94067722I93129309I93142120I93860764I94803757
1285I95247143I94491793I92627712I90931493I90853369I92649416I95594087
1278I98971391A002077088A004178461A005292437A006095975A006633283A006174099
1271A004874074A004379777A005839302A008209429A009693114A010227833A011262357
1264A013853580A017909504A021807323A022655068A019799340A016843784A017053530
1257A019731173A022065257A022295248A020867317A019490496A019235615A019589063
1250A019516913A018566354A016649503A014190301A012825295A014283426A018045773
1243A021540296A022977917A022741953A022078333A021662957A021439804A021153395
1236A020941525A021313160A022203915A022536588A021600498A020368906A020285140
1229A021202910A021710415A021210079A020578651A020784216A021592931A021892284
1222A021186649A020348993A020433622A021222292A021736567A021698335A021521246
1215A021378473A021267228A021433432A021896731A022111123A021759931A021265038
1208A020931768A020378729A019542136A019325421A020222150A021166470A020974978
1201A020232571A020398509A021653731A022917183A023541575A023888386A024353211
1194A024456690A023161245A020065571A016057105A012752348A011553346A012878196
1187A015313503A015915593A012997937A008623079A006870972A009307076A013646688
1180A017163646A019437462A021099830A021501864A019207472A014619284A010393306
1173A008477717A008244010A008562346A009683158A011537350A012412507A011283198
1166A009634970A009096666A008807138A006968146A003852758A001594341A001847762
1159A004706742A008630447A010802643A009369668A005700113A002524258A000314162
1152I97734422I94656869I92464428I92131490I93126455I93716000I92462172
1145I89838691I87738512I87066530I86682018I85133285I82210915I78526759
1138I74880967I72277465I71706506I73526182I77113896I80838675I82587396
1131I81433729I78583510I75514519I71780049I66236457I60096217I56506247
1124I56492905I57677969I57508645I55786075I53673219I51518945I48581576
1117I44428743I39904940I36708110I36097126I37790026I40000055I40825564
1110I39705416I37456424I35286153I33971260I33692816I34222225I34956866
1103I35128179I34465025I33585420I33477627I34590408I36407363I37865959
1096I38330453I38214031I38407050I39050093I39573794I39902019I40576922
1089I41454403I41544341I40480346I39176471I38683768I38902740I39065824
1082I38888403I38479731I37769914I36748532I35853528I35573558I35963180
1075I36810925I37909700I39048367I40069218I41043076I42355181I44573441
1068I47862135I51340860I53610827I54463682I55198190I56811639I58906508
1061I60628878I61755996I62578452I63294508I63779511I63952153I64335935
1054I65635695I67872075I70444779I72688129I74343261I75717892I77405482
1047I79747798I82531840I85194018I87308932I88935590I90516116I92383119
1040I94409621I96266667I97953859I99729994A001662309A003640623A005451671
1033A006764175A007389363A007487399A007412793A007688516A008900793A010977608
1026A013042143A014275262A014668535A014750376A014832614A015000477A015339854
1019A015769633A015960861A015614315A014707165A013596243A012937934A013269677
1012A014573286A016284903A017815517A019090585A020449618A022029747A023590759
1005A024878306A025746162A026130674A026268336A026695527A027619072A028733645
998A029572229A029828172A029631369A029345292A029101297A028809047A028404092
991A027785076A026626961A024508795A021610322A019002439A017177784A015486012
984A013300541A010453044A006782030A002321548I97885559I94057434I90195856
977I85616297I80458146I74713038I67462540I57880081I47082292I37471358
970I29722250I23047159I17234945I12913055I10633863I10335108I11177874
963I11641970I09640226I03338163H93905646H83488453H71546355H57424826
956H41402045H23349776H03727533G85167559G70030290G58056797G48688929
949G44748498G49586256G61164153G76243012G93602722H12342573H31618536
942H51893048H73231887H93051065I10142819I27326900I45930416I61727189
935I73403587I83864854I93097847I99719506A004222534A007475319A009704730
928A010933999A011248618A011291496A012279890A013808246A014702652A014702652
921A013904821A012348986A010321157A008081789A005356223A002256699I99984410
914I98989777I98116744I96379836I93757484I91115817I89131596I87507062
907I85774801I83630218I80361968I75757850I72425017I70980892I69440588
900I67018490I64679161I63149411I61399296I58594411I54908661I50723438
893I45604381I38822094I32052949I27562931I24163922I19769550I13579529
886I06321398H99017402H91339182H82547451H73760367H66539406H59873143
879H51204472H40283092H30473165H22945816H15799859H07763213G99015556
872G90333145G82132219G74199518G66217631G58274375G50644144G43344861
865G36141821G28784592G21316715G14137703G07473166G01205951F95447369
858F90573303F86701503F83723977F81655791F80684390F81012615F82579801
851F85133123F88870048F94084685F99633057G03833679G05352013G03177560
844F97778666F90114053F80251159F69453237F59781304F50165060F35658290
837F18045823F08546598F04870606F01236628E96555648E91327537E86348864
830E82829981E81188588E80639400E80443593E80300953E79947571E80398591
823E83173208E86948631E89826594E91085533E91696517E93420945E96175451
816E98708595F00531657F02124596F03737979F05007339F06056001F07748702
809F10497897F14212919F18757962F23775133F28784936F33367084F37227599
802F40598333F45090674F52363938F60569975F67939284F74464035F80478627
795F86424984F92935465G00136911G07147662G13216946G18436163G23518846
788G29372610G36181513G43173812G49560436G55189719G60454204G65603328
781G70346037G74266689G77208970G79354417G81455657G84460464G88129355
774G91408357G93584735G94270191G93658079G92787701G92258159G91471215
767G89388625G85950521G83752838G84465442G86338352G87675083G87475957
760G84693043G78066671G66580704G49543178G26941684G01696132F79916362
753F66840841F65007557F74348410F89584843G04564006G18115902G31029535
746G42922515G52683324G60070820G65751544G70494385G74681468G78653893
739G83558956G90763787G99781990H09093240H17938469H26107733H33501800
732H39837249H44700695H48029612H50131251H51188409H50926426H48638604
725H43651435H36046361H26258338H14279269H00943291G88192477G76475391
718G64306954G50461347G35766403G22196718G10237030F99120507F88821993
711F80585358F75984426F76188331F82157189F94077118G09765368G25651216
704G39199197G48737516G52992765G51527266G44272255G31700057G16272530
697G01053553F87031189F73973854F62219532F52781771F46400523F43015320
690F42140627F43320580F46200269F50432221F55526055F60837002F65916300
683F70901743F76484564F83398473F92005481G02294571G13897425G26094935
676G38103408G49507601G60374421G70956490G81402225G91727489H01889603
669H11803672H21282519H30001768H37642685H44139758H49744150H54824377
662H59668773H64541644H69812235H75806184H82483266H89364851H95852896
655I01623491I06663164I10910647I13950235I15128196I13872376I09746891
648I02186819H90349925H73416808H51035281H23412766G91274279G56154616
641G20661990F88065116F61374310F42556136F32272357F30152133F35189615
634F45936029F60750250F78330459F98072708G19830175G43360724G67983743
627G92550409H15642218H35895158H52104321H62987667H67052420H62838655
620H49383069H26767303G96500465G61309117G24416704F88835533F56868958
613F29779569F07776380E90349034E76649917E65763782E56923199E49610276
606E43523734E38556079E34762967E32227002E30936004E30734986E31278102
599E32122428E33036348E34154670E35753650E37961987E40703251E43786911
592E47010922E50245055E53466411E56729915E60118038E63737811E67762473
585E72406416E77823033E84039139E90943689E98288573F05743506F12996128
578F19808550F26046560F31647501F36458510F40211232F42873277F44932237
571F47154147F50154640F54226627F59318337F65049373F70908646F76540717
564F81819672F86718163F91203602F95260257F98947135G02400904G05789558
557G09275718G12960937G16809771G20690464G24562795G28560509G32795448
550G37104527G41096466G44490962G47279451G49362970G50035683G47976856
543G41955295G31885642G19541908G08113421G00520162F97786166F98914412
536G02076860G05816639G09532258G13299915G17345285G21622174G25833085
529G29710792G33218258G36570605G40087961G43948411G48053984G52138516
522G55955025G59368637G62361496G65016704G67488186G69911744G72284526
515G74478891G76414990G78139551G79698440G81042472G82114697G82957198
508G83720646G84573235G85575103G86636377G87614880G88433884G89107991
501G89679283G90130568G90413393G90611788G90935035G91369860G91469223
494G90743941G89255941G87590587G86137500G84591090G82352785G79238592
487G75464032G71090635G65907991G59754742G52588142G44386155G35338017
480G26061814G17449230G10311636G05113858G01892801G00401616G00224128
473G00598816G00398562F98749934F95713268F92168632F89132363F87246709
466F86651324F87126371F88436950F90580206F93642958F97544361G02088476
459G07166048G12710303G18550859G24482813G30349919G35865501G40454087
452G43434733G44370889G43265210G40565398G37020695G33122279G27826731
445G17619084F98238912F68865617F34143010F00909797E73602232E53902231
438E43257635E43064915E52361628E67214346E83042581E97065742F08723488
431F18689463F27881569F36956589F46159515F55422841F64578109F73492037
424F82111723F90466572F98569128G06313856G13583337G20395427G26839798
417G32974262G38849067G44490431G49835362G54796446G59362464G63589106
410G67571420G71426825G75206297G78871139G82433896G86026256G89725812
403G93381361G96718176G99601914H02107181H04394007H06670013H09169638
396H11934896H14741904H17471121H20326915H23416549H26408744H28935251
389H31014389H32733507H33855779H34228410H34477583H35891043H39489709
382H45108836H50881490H53159687H47374820H30339419H03155777G72362119
375G47348813G35090106G36298068G46145962G58402147G69194626G77989410
368G86084400G94506089H03118938H11201583H18222024H23974234H28481842
361H32002052H34923757H37591178H40221164H42867278H45496733H48208227
354H51205799H54424068H57426950H59872545H61922146H64034006H66473296
347H69122730H71661781H73847716H75659163H77204378H78540976H79705529
340H80842271H82015785H82934618H83274990H83316806H83808647H85099048
333H86766592H88200762H89242056H90153654H91272209H92832226H94829457
326H96873150H98480692H99706907I01113266I02905928I04502186I05189634
319I04939333I04401694I04305914I04976968I06286816I07923563I09637703
312I11257524I12622066I13644311I14448845I15307807I16319100I17194257
305I17475423I16991017I16132187I15642006I15892706I16425898I16621572
298I16638099I17049958I17817255I18344872I18339363I18015717I17675876
291I17443629I17269394I17105315I17075579I17313600I17711254I18083951
284I18432023I18857289I19418757I20102820I20765046I21263789I21808730
277I22889916I24678197I26705562I28290868I29226759I29925822I30810604
270I31746827I32315198I32471711I32611961I33071676I33831009I34703843
263I35627786I36605825I37388588I37545168I36978257I36049335I35059283
256I33887428I32239663I30053396I27543416I24906661I22192246I19549449
249I17222135I15084587I12630695I09628079I06385516I03293095I00388515
242H97362866H93954830H90408402H87153958H83909736H79876910H74997003
235H70047336H65238252H59588526H51966791H42187928H30940181H18975184
228H06468830G93054330G78366355G62478383G45857561G29071929G12657602
221F97366011F84695577F76846441F75388575F80086216F89460323G01901497
214G16030990G30439924G43356543G53695878G63462993G78325203G99864561
207H20163831H35169013H47253287H58648918H69606937H79505076H87817113
200H94198427H98588219I01332702I02989030I04001783I04573937I04606660
193I03437394H99937893H93353205H83739484H71283841H55702322H36605705
186H14083993G88661153G60826502G31093056G00701300F71784534F46793730
179F28082155F17469619F15470198F20976355F31820010F45687454F60533601
172F74336329F85244700F92100464F93915827F89023840F75884863F54634635
165F27218879E96598991E66036319E38136023E14375318D95897550D84064540
158D79700468D82366064D90618861E02709009E17138353E32951255E49639846
151E66702062E83371404E98989362F13473897F27198568F40733141F54721189
144F69409363F84277812F98677453G12541445G25764784G37431292G46564524
137G53313756G58544057G62752712G66330867G70425289G76367996G84153412
130G92393764G99994126H06997309H13281251H17007955H15061767H05234383
123G88065834G67252952G48840132G38832075G39989327G50404862G65367829
116G80783409G94623241H06051594H14819431H21449918H26948641H31935610
109H36022864H38227650H38545986H38407461H38929834H40112109H42230740
102H46480215H53035167H60106982H66015307H70735648H74839960H78018470
95H79769449H81017900H83144231H85400457H85674653H84354517H84338587
88H86872660H90132945H91850005H91787746H91122666H90425394H88871683
81H84885784H77579398H68698326H62867528H64018873H71815506H82520237
74H92494044I00589764I07719327I14783509I21501943I27265636I32178199
67I36458207I39823033I41906219I42527624I41731121I40494750I40870235
60I43827052I47223074I48609453I48226070I47198648I45553073I43188190
53I41465156I42499414I47144618I54045186I60093031I62383972I60843669
46I58259017I57788417I60439775I64670001I68093370I69219359I68570011
39I67991882I68109499I67325409I63751634I56866731I47407265I39198574
32I38248214I42355579I43438358I37756904I26712664I13436955H98724222
25H81159412H60795957H40009958H20712555H01768933G78204001G43138699
18F96728211F52924013F21440716E97451979E75782857E56649402E41345365
11E29418301E19617435E11236865E04267599D99206488D97042092D99030494
4E06831010E23429132E49567630E76063359
##END=


$$ === CHEMSPECTRA PEAK TABLE EDIT ===
##TITLE=X7796
##JCAMP-DX=5.00
##DATA TYPE=INFRAREDPEAKTABLE
##DATA CLASS=PEAKTABLE
##$CSTHRESHOLD=0.93
##MAXX=3997.453
##MAXY=0.964215164154523
##MINX=373.96442
##MINY=0.4307687896568238
##$CSSOLVENTNAME=- - -
##$CSSOLVENTVALUE=0
##$CSSOLVENTX=0
##NPOINTS=27
##PEAKTABLE= (XY..XY)
381.04707946051576, 0.4463414873702722
483.03737569194664, 0.7748510278099948
522.7002686708365, 0.7528860013833063
542.5317151602812, 0.6634677677808513
596.3599270602031, 0.4307687896568238
623.2740330101637, 0.5526893758675793
681.3518405863952, 0.6064958006911215
902.3308157544952, 0.6601074970190071
991.5723249569974, 0.48766976841814524
1032.6517498279904, 0.6166096960233434
1043.984004964816, 0.6287980109018048
1134.6420460594213, 0.6266087323623281
1223.883555261923, 0.4765975495103151
1273.4621714855352, 0.5658736852265815
1349.9548936591086, 0.5766392970920844
1378.2855315011725, 0.6070308712204191
1437.779870969507, 0.59717369390086
1456.194785566849, 0.7038064040733033
1541.1866990930412, 0.5207902220017948
1582.2661239640343, 0.6112514170375865
1716.8366537138386, 0.6687806881234842
1739.5011639874901, 0.8174766939257477
1899.5692677951697, 0.8403921164250948
1943.4817564503687, 0.8418315095796284
2361.3586646207973, 0.8246990487209463
2936.4706128147077, 0.8963114659374893
3348.6813934167317, 0.6730037366536922
##END=


$$ === CHEMSPECTRA PEAK TABLE AUTO ===
##TITLE=X7796
##JCAMP-DX=5.00
##DATA TYPE=INFRAREDPEAKTABLE
##DATA CLASS=PEAKTABLE
##$CSTHRESHOLD=0.93
##MAXX=3997.453
##MAXY=0.964215164154523
##MINX=373.96442
##MINY=0.4307687896568238
##NPOINTS=71
##PEAKTABLE= (XY..XY)
3348.6813934167317, 0.6730037366536922
2939.3036765989054, 0.894951705214603
2613.501341415168, 0.895024065679906
2593.6698949257234, 0.8921414063168943
2582.3376397888974, 0.8935442016709386
2576.6715122204846, 0.8941159292684184
2565.339257083659, 0.8927214188194732
2528.5094278889756, 0.8765420363455602
2518.593704644253, 0.8733162924711089
2510.094513291634, 0.8739371942939547
2497.3457262627053, 0.8698099295397592
2487.430003017983, 0.8695160192536856
2476.097747881157, 0.8737993286598505
2469.015088420641, 0.8740506811502969
2461.932428960125, 0.873799209226469
2452.0167057154026, 0.8708774493499276
2432.1852592259575, 0.8669105809331678
2419.4364721970287, 0.8670958921515891
2412.3538127365127, 0.8670924348694916
2396.7719619233776, 0.8693754713074711
2361.3586646207973, 0.8246990487209463
2341.527218131352, 0.8381832283611601
2325.945367318217, 0.844483558348788
2291.9486019077403, 0.8680036109952388
2280.616346770915, 0.8711251658572018
2269.2840916340892, 0.8696476860258887
2253.7022408209536, 0.8678121009149165
2240.953453792025, 0.8743722478971598
2233.870794331509, 0.8757497709680692
2198.4574970289286, 0.8918255014307132
2187.125241892103, 0.8897817178938341
2000.1430321344799, 0.8909294646085715
1981.7281175371381, 0.8725879239527471
1964.7297348318998, 0.8589261809979917
1950.5644159108676, 0.8406108662963641
1939.2321607740419, 0.8384518070964055
1930.7329694214227, 0.8382585683750344
1923.6503099609067, 0.8425118371427558
1909.4849910398748, 0.8429336587844788
1898.1527359030492, 0.8401407046669552
1739.5011639874901, 0.8174766939257477
1716.8366537138386, 0.6687806881234842
1582.2661239640343, 0.6112514170375865
1541.1866990930412, 0.5207902220017948
1456.194785566849, 0.7038064040733033
1437.779870969507, 0.59717369390086
1378.2855315011725, 0.6070308712204191
1349.9548936591086, 0.5766392970920844
1273.4621714855352, 0.5658736852265815
1223.883555261923, 0.4765975495103151
1134.6420460594213, 0.6266087323623281
1043.984004964816, 0.6287980109018048
1032.6517498279904, 0.6166096960233434
991.5723249569974, 0.48766976841814524
902.3308157544952, 0.6601074970190071
821.5884979046127, 0.8120625057494999
800.3405195230648, 0.8222422636526721
780.5090730336196, 0.8235296055405577
681.3518405863952, 0.6064957997931262
623.2740330101637, 0.5526893758675793
596.3599270602031, 0.4307687896568238
542.5317151602812, 0.6634677677808513
522.7002686708365, 0.7528860013833063
498.61922650508177, 0.7941319389515704
483.03737569194664, 0.7748510278099948
460.3728654182951, 0.8445599121994125
447.62407838936633, 0.8454313322750245
436.2918232525408, 0.8600895447498609
427.7926318999216, 0.8692522088737487
417.87690865519926, 0.8425425333178048
381.04707946051576, 0.4463414873702722
##END=

##END=

