##TITLE=LSH-R283A
##JCAMP-DX=4.24
##DATA TYPE=INFRARED SPECTRUM
##DATE=11/11/2020
##SAMPLING PROCEDURE=Diamant-ATR
##ORIGIN=Angelika Moesle
##XUNITS=1/CM
##YUNITS=TRANSMITTANCE
##RESOLUTION=4
##FIRSTX=3997.453
##LASTX=373.96442
##DELTAX=-1.4165319
##MAXY=0.92218751
##MINY=0.25375539
##XFACTOR=1
##YFACTOR=8.5885404e-010
##NPOINTS=2559
##FIRSTY=0.87704784
##XYDATA=(X++(Y..Y))
3997+1021183800+1021511161+1021760724+1021528442+1020755254+1019860130
3989+1019265787+1019100059+1019359200+1019999278+1020812648+1021477294
3980+1021798894+1021814162+1021659747+1021435445+1021186576+1020964496
3972+1020870181+1020999473+1021327667+1021724497+1022086072+1022362008
3963+1022517256+1022566391+1022559382+1022506707+1022444039+1022426827
3955+1022285598+1021716724+1020859910+1020343919+1020441357+1020658371
3946+1020587375+1020597160+1021175680+1022076495+1022588183+1022452714
3938+1021935335+1021294632+1020660592+1020209977+1020133081+1020380424
3929+1020588416+1020465092+1020239333+1020558157+1021661829+1022853569
3921+1023352071+1023246305+1023237907+1023740365+1024425831+1024722239
3912+1024475591+1023960572+1023464222+1023055107+1022790554+1022882856
3904+1023345061+1023655974+1023431812+1023076344+1023049902+1023135265
3895+1023007846+1022906452+1023308696+1024013871+1024108464+1023431534
3887+1022917140+1023333472+1024169813+1024530486+1024652631+1025050988
3878+1025245586+1024699129+1023793526+1023062880+1022578744+1022585060
3870+1023658265+1025251763+1025904541+1025404721+1024883733+1025303674
3861+1026320109+1026846302+1026144249+1024222558+1022064211+1021852471
3853+1025002963+1028305927+1029022137+1028385945+1027892926+1027972875
3844+1028342709+1028445005+1027909374+1027026256+1026518524+1026580291
3836+1026650246+1026505824+1026449471+1026567590+1026654410+1026700700
3827+1026920282+1027207321+1027132022+1026764548+1026827494+1027332866
3819+1027145139+1026328021+1026340444+1027581319+1028626347+1028572146
3810+1027919506+1027646000+1028344166+1029404948+1029792757+1029990200
3802+1031189852+1032699307+1032537812+1030917942+1029554853+1029270798
3793+1029513560+1029518209+1029155038+1028834964+1029006105+1029643963
3785+1030229562+1030305069+1030029481+1029982774+1030394873+1030723205
3776+1030395150+1029573521+1028740650+1028174066+1027954553+1028083221
3768+1028499414+1029100490+1029618840+1029701773+1029483232+1029633483
3759+1030426727+1031026484+1030512853+1029190640+1028203423+1028923588
3751+1031980806+1035218742+1035793653+1034108755+1032354804+1032063392
3742+1032371252+1031790997+1030414860+1029010963+1028241523+1028560764
3734+1029951405+1031540948+1032221417+1031760322+1030913917+1030651098
3725+1031187562+1031742555+1031689534+1031366823+1031358217+1031718612
3717+1032083935+1032147367+1031908144+1031570512+1031251410+1030964024
3708+1030827861+1030805514+1030684757+1030523471+1030630695+1031020585
3700+1031380009+1031685925+1032066030+1032271038+1031851097+1030691836
3691+1029273157+1028535572+1028991462+1029758473+1029794214+1029057114
3683+1027950598+1026863790+1026037789+1025539218+1025602719+1026591742
3674+1027665987+1027342999+1025983241+1025108243+1025399377+1025960686
3666+1026067701+1025908635+1025824384+1025912175+1026016900+1026024048
3657+1026128981+1026379932+1026187902+1025274318+1024367326+1024387869
3649+1025148842+1025495010+1025368216+1025301106+1025229138+1024847298
3640+1024051764+1023073915+1022319535+1021971701+1021810276+1021527262
3632+1021090249+1020709033+1020687936+1021115094+1021504013+1021347238
3623+1020538725+1019383490+1018537085+1018402379+1018386903+1017800679
3615+1017072393+1016849688+1016802912+1016250903+1015468069+1015163749
3606+1015130576+1014635058+1013616055+1012602396+1011984040+1011534465
3598+1010719013+1009609165+1009017737+1009265079+1009388264+1008474611
3589+1007039553+1006548269+1007466642+1008236498+1007515777+1005598874
3581+1003486402+1002055647+1001779018+1002467190+1003146757+1002758740
3572+1001201608+999250352+997640684+996839528+997150649+998068050+998352522
3563+997462464+995974385+994792499+994215367+993830613+993271247+992607226
3553+991957918+991205134+990305568+989491296+988906599+988322457+987464463
3543+986451220+985574903+984865009+984099663+983161858+982247996+981656082
3533+981414292+981204842+980662896+979786232+978966685+978482133+978161921
3523+977702283+977046104+976303383+975552751+974871310+974345465+973941070
3513+973507665+972992300+972554523+972345559+972218487+971839562+971081643
3503+970177566+969454000+969009214+968770963+968683935+968660755+968541734
3493+968287868+968037056+967803524+967358807+966628926+965945264+965586326
3483+965340094+964858110+964216505+963755688+963542560+963363091+963098468
3473+962838633+962699000+962682483+962653543+962355192+961574578+960416289
3463+959386251+959083458+959693000+960793895+961733782+962127004+962017421
3454+961735031+961605669+961630445+961467008+960856494+960037711+959540181
3444+959557878+959752129+959712848+959439967+959210668+959165975+959306857
3434+959639562+959973030+959887459+959254113+958444698+957822664+957390371
3424+957070227+957022688+957501758+958400837+959156675+959339892+959122253
3414+958897604+958763592+958611398+958372175+958018651+957666445+957645763
3404+958164460+959008228+959759346+960154234+960205173+960133830+960139590
3394+960170890+960006689+959572938+959130719+959114966+959710281+960634761
3384+961450699+961954405+962116733+961928172+961533285+961298088+961532730
3374+962183773+962888324+963376207+963733063+964125938+964456977+964578844
3364+964669758+965042784+965678767+966222449+966418921+966376448+966355419
3354+966413993+966423987+966381167+966490056+966951012+967760635+968637992
3344+969175219+969276335+969368429+969915233+970812300+971505817+971647879
3335+971454877+971453281+971931587+972652447+973107920+973078148+972868767
3325+972951284+973463943+974204235+975025031+975964988+976922294+977478398
3315+977292058+976554265+975857140+975646788+975934174+976460852+976972054
3305+977349383+977641280+977998067+978488102+978948850+979109025+978939133
3295+978801582+979105347+979825096+980524165+980861935+980886573+980809816
3285+980735072+980680940+980715501+980958888+981456348+982064572+982503597
3275+982585143+982426841+982395055+982756353+983346671+983678404+983477005
3265+983000433+982652877+982437806+982080048+981611111+981486607+981998988
3255+982817425+983328419+983305655+983040200+982936655+983219322+983857942
3245+984514399+984745848+984546809+984467901+984925179+985620430+985917740
3235+985626121+985141430+984945513+985221309+985881375+986715634+987437188
3225+987745256+987540525+987118086+986978869+987322539+987815003+988005160
3216+987841653+987639976+987721937+988202187+988900561+989347429+989166641
3206+988589717+988308091+988703048+989439523+989907142+989885627+989702966
3196+989800890+990217360+990583030+990625087+990510576+990583377+990950018
3186+991468507+991944384+992179512+992030788+991584267+991071191+990522791
3176+989778265+988944630+988494986+988682714+989056434+988800625+987545244
3166+985697672+983911519+982325031+980491824+977976067+974744446+970965952
3156+966721852+962013187+956913869+951662633+946617793+942089361+938229530
3146+935099858+932771412+931398398+931224273+932340923+934401206+936857210
3136+939494210+942428103+945694840+949187614+952808500+956394408+959732489
3126+962810596+965735606+968370662+970454612+972098703+973790818+975862831
3116+978154495+980200343+981619855+982326766+982483124+982303170+981824447
3106+980896289+979505717+977994250+976740327+975818970+975213592+975079441
3097+975487861+976143277+976617836+976754276+976711873+976678283+976584870
3087+976140987+975164387+973765487+972200096+970737487+969659841+969150651
3077+969145863+969439079+969921688+970649626+971685147+972952464+974334222
3067+975862206+977648290+979586984+981334551+982722902+984065241+985841192
3057+988091008+990335271+992203455+993891477+995792695+997882196+999714015
3047+1000904089+1001427922+1001528552+1001543404+1001844879+1002744999
3038+1004250914+1005939005+1007338737+1008489879+1009873996+1011740029
3030+1013749026+1015386454+1016501091+1017367206+1018372953+1019657551
3021+1020968660+1021933392+1022508373+1023022906+1023764030+1024683375
3013+1025534499+1026147789+1026535875+1026798485+1026962408+1026961437
3004+1026752334+1026307687+1025509446+1024223043+1022382342+1019773588
2996+1015929095+1010546276+1003815567+995954398+986553585+974695103+959624710
2986+941113178+919317211+894630310+867743283+839606775+811160812+783153805
2976+756276703+731349399+709237939+690596837+675800991+665178804+659254317
2966+658637974+663676429+674239972+689652578+708557956+728959811+748727835
2956+766292054+781010033+793035145+802807526+810578614+816399487+820386945
2946+822701858+823322226+822134233+819270434+815145911+810179563+804685149
2936+799096212+794125561+790492252+788494706+788020425+788916173+791072577
2927+794177195+797794819+801777280+806285101+811328899+816585895+821748646
2917+826806672+831868514+836866717+841547830+845648549+848982673+851489339
2907+853359814+855012857+856762436+858565939+860235639+861792563+863473644
2897+865487360+867908248+870743454+873949119+877374921+880777474+883965511
2887+886914673+889579016+891505982+891906282+890379686+887388052+883749815
2877+879938842+876213717+873168783+871702287+872432863+875336429+879892899
2867+885407231+891150861+896396476+900615591+903692866+905806518+907146428
2857+907915313+908444420+909021344+909653441+910181160+910576880+910973711
2847+911402604+911633359+911366793+910517543+909218926+907620293+905767446
2837+903624576+901162049+898442949+895537093+892316715+888537666+884192866
2827+879566926+874868810+870043692+865042436+860073103+855387688+850905684
2817+846295081+841428253+836473218+831527065+826505475+821431279+816497965
2808+811831635+807428330+803273965+799401781+795939196+793139315+791239276
2798+790347761+790605583+792333925+795849462+801189252+808105815+816246875
2788+825238505+834648756+843990231+852821129+860858367+868016859+874307779
2778+879689904+884141996+887898213+891400147+894923664+898418797+901718500
2768+904713049+907345121+909596255+911475058+912992701+914213034+915291999
2758+916357501+917398504+918332006+919139755+919935914+920947144+922391154
2748+924317218+926583829+929027063+931597091+934237283+936685167+938599433
2738+939917204+940887141+941692947+942239473+942327126+941858605+940903173
2728+939710946+938637187+937973304+937873021+938392828+939475888+940888321
2718+942266193+943310319+943989400+944556191+945339858+946538608+948178535
2708+950157759+952300560+954479240+956661599+958768450+960606792+962101603
2698+963466775+964923901+966366940+967561664+968583652+969730559+971017239
2689+972082532+972655917+972874042+973080438+973461167+973922470+974236506
2679+974254134+973988539+973578592+973252273+973234020+973548195+973986527
2669+974340815+974555470+974627923+974579552+974580801+974908509+975673993
2659+976693412+977635173+978243466+978468878+978492404+978628498+979147403
2649+980140867+981491881+982897999+984000282+984654587+985081676+985604398
2639+986257454+986825564+987235650+987670095+988258262+988873148+989356590
2629+989806789+990486494+991461637+992457530+993117040+993337802+993334262
2619+993413170+993704582+994084548+994366868+994563271+994905344+995567838
2609+996426735+997205128+997840834+998501454+999198510+999688267+999895913
2599+1000104530+1000530994+1001018808+1001316257+1001411891+1001525776
2591+1001936348+1002722791+1003537619+1003823478+1003407077+1002674280
2582+1002115331+1001928714+1002073413+1002434780+1002891156+1003358775
2574+1003795302+1004148063+1004379166+1004531777+1004715063+1005038884
2565+1005582357+1006366788+1007339154+1008352952+1009170764+1009637480
2557+1009905088+1010212461+1010355634+1009834508+1008724243+1007870135
2548+1007957995+1008844028+1009960469+1010892236+1011444870+1011650086
2540+1011875914+1012555828+1013647840+1014593488+1014925568+1014764837
2531+1014633809+1014886356+1015428303+1015917227+1016099750+1016021952
2523+1016036595+1016489501+1017255402+1017759941+1017655772+1017234512
2514+1016928457+1016747948+1016527532+1016386650+1016545438+1016930054
2506+1017262758+1017351590+1017171636+1016896325+1016850035+1017191692
2497+1017736345+1018270033+1018857436+1019642630+1020567526+1021418651
2489+1021970799+1022095164+1021946231+1021905562+1022090722+1022147630
2480+1021808610+1021351957+1021195876+1021368821+1021720819+1022287194
2472+1023046085+1023604757+1023588448+1023199599+1022970578+1023033316
2463+1023012565+1022622189+1021991202+1021387282+1020962136+1020769065
2455+1020719721+1020554549+1020131485+1019699261+1019674623+1020151195
2446+1020759002+1021013215+1020735267+1020082488+1019275919+1018490170
2438+1017933164+1017771045+1018019984+1018670541+1019690863+1020732421
2429+1021184633+1020813134+1020091719+1019672056+1019729172+1019987341
2421+1020179510+1020235308+1020137662+1019928975+1019885878+1020355301
2412+1021326973+1022412114+1023275522+1023883260+1024384052+1024916698
2404+1025471622+1025868939+1025975051+1025890453+1025803008+1025752346
2395+1025670038+1025539079+1025393408+1025229832+1025029127+1024830503
2387+1024710927+1024680460+1024672063+1024639583+1024652908+1024937449
2378+1025774068+1027144722+1028505313+1029322570+1029807886+1030523194
2370+1031317826+1031523667+1031173474+1031025027+1031353914+1031689742
2361+1031786555+1031985525+1032430311+1032589099+1031941873+1030692877
2353+1029382671+1028191833+1027028338+1025957424+1025286116+1025353364
2344+1026120028+1027031878+1027713180+1028449446+1029555547+1030684688
2336+1031163480+1030829318+1030257252+1030188754+1030755893+1031236767
2327+1030775394+1029340823+1027765438+1026921601+1027012446+1027669596
2319+1028514821+1029312993+1029816838+1029908724+1029819337+1029859311
2310+1030017127+1030122685+1030242192+1030546235+1030930642+1031094982
2302+1030927103+1030547414+1030052313+1029447976+1028815324+1028293990
2293+1027892440+1027535029+1027322595+1027487629+1028027285+1028596783
2285+1028814630+1028596575+1028303983+1028515723+1029329857+1029992005
2276+1029706700+1028726353+1028085442+1028306274+1028927475+1029353870
2268+1029610859+1029949393+1030219082+1030196527+1030100547+1030057380
2259+1029554436+1028271851+1027000023+1026844567+1027826510+1028974875
2251+1029589483+1029892068+1030493837+1031542960+1032563074+1033107796
2242+1033297467+1033402469+1033126465+1031887602+1029892554+1028340002
2234+1028215082+1029279265+1030647143+1031923898+1033147077+1033949482
2225+1033707622+1032563490+1031516727+1031313384+1031932018+1033246527
2217+1035292098+1037571131+1038980511+1038886126+1037767395+1036579264
2208+1035924750+1035860833+1036157449+1036659004+1037334199+1037967684
2200+1038116686+1037562873+1036689055+1036290628+1036851104+1037911401
2191+1038491100+1038286300+1037989268+1038349940+1039383587+1040489826
2183+1041007760+1040697957+1039931779+1039472072+1039977930+1041297853
2174+1042146548+1041273146+1038924296+1036194995+1033537661+1031181940
2166+1030204994+1031818132+1036086800+1041956183+1047811964+1051928923
2157+1053372100+1052369475+1049808469+1047183406+1046197160+1047204226
2149+1048687933+1049020083+1048091300+1046772904+1045625649+1044745030
2140+1044421487+1045315569+1047598350+1050023540+1050616496+1048807926
2132+1046221797+1044827686+1045116252+1046341513+1047612855+1048291658
2123+1048001288+1046810589+1045234926+1043890159+1043204901+1043233147
2115+1043532678+1043450161+1042765667+1041914890+1041413196+1041256352
2106+1041111166+1040882840+1040688380+1040474905+1040228396+1040336660
2098+1041132611+1042290623+1043145772+1043339954+1042980322+1042540255
2089+1042557536+1043090807+1043659125+1043872809+1043895641+1044300869
2081+1045550697+1047339696+1048632483+1048789882+1048280138+1047917869
2072+1048013641+1048419979+1048720343+1048545247+1048246409+1048686337
2064+1049984746+1051225760+1051545973+1050814078+1049455638+1048077836
2055+1046933427+1045764450+1044605328+1044176365+1044858638+1046056833
2047+1047411039+1049591663+1052747637+1055321344+1055614074+1053826186
2038+1051658748+1050583531+1051136095+1052931062+1054843384+1056085717
2030+1057119086+1058444769+1059248146+1058774281+1058169320+1059218304
2021+1061828029+1064060981+1064323452+1062746818+1060523860+1058452403
2013+1056703726+1055771751+1056492194+1058749020+1060949075+1061371237
2004+1059851025+1057898451+1057265729+1058386681+1060146601+1061244234
1996+1061514548+1061660219+1062158235+1062856262+1063503489+1064180765
1987+1064794402+1064522492+1062540630+1059398467+1056979592+1056820249
1979+1058811688+1061709632+1064608965+1067204324+1068684006+1067707337
1970+1063904136+1058427141+1052995812+1049114189+1047797737+1049047149
1962+1051598786+1053784268+1054833460+1055054847+1054816041+1053996286
1953+1052669007+1051774924+1052314857+1053881289+1054862400+1054387009
1945+1053201931+1052415418+1052279949+1052501266+1052954103+1053603966
1936+1054342384+1055218631+1056344303+1057423545+1057912608+1057743133
1928+1057331867+1056840167+1056058860+1055113559+1054626509+1054888425
1919+1055376794+1055268946+1054237659+1052802810+1051881037+1052100619
1911+1053368699+1054873573+1055784937+1056066285+1056377962+1057268644
1902+1058725979+1060381035+1061804086+1062620579+1062685191+1062208065
1894+1061584504+1061127226+1060911252+1060699235+1060257849+1059892527
1885+1060056311+1060441205+1060186298+1059116910+1058132052+1058125875
1877+1059013365+1060035908+1060719153+1061214392+1061807903+1062472063
1868+1062958905+1063133655+1063056551+1062827878+1062469842+1061903189
1860+1061121327+1060321281+1059649765+1058939940+1057928640+1056619336
1851+1055286366+1054253552+1053751095+1053846589+1054374586+1054879958
1843+1054916740+1054573695+1054168329+1053707303+1052982279+1051894917
1834+1050558755+1049273116+1048525953+1048738943+1049717347+1050823447
1826+1051754590+1052540686+1053253426+1054075471+1055283520+1056926293
1817+1058561292+1059566832+1059840130+1059887738+1060179566+1060672169
1809+1061046028+1061187326+1061227925+1061323837+1061528498+1061817203
1800+1062194809+1062653197+1063019839+1063097289+1062924136+1062786793
1792+1062963625+1063372878+1063703847+1063835707+1063786364+1063494120
1783+1062894849+1062141649+1061462706+1060841297+1060073106+1059112538
1775+1058245452+1058029062+1058835215+1060220304+1061517394+1062562283
1766+1063269263+1063543671+1063618693+1063850282+1064181598+1064267932
1758+1064029473+1063579551+1062964319+1062187800+1061265263+1060175610
1749+1058891012+1057519526+1056258524+1055177130+1054198240+1053299854
1741+1052562755+1051941901+1051275034+1050689158+1050696167+1051563600
1732+1052481487+1052733479+1052634515+1052517506+1052376346+1052216656
1724+1052136082+1052062865+1051817327+1051474907+1051430907+1051945787
1715+1052654918+1053176530+1053612364+1054177698+1054925554+1055802426
1707+1056834546+1058031005+1059179162+1060138967+1060954280+1061340354
1698+1060989328+1060488258+1060341338+1060082128+1059276253+1058197010
1690+1057238247+1056479147+1055795902+1055203224+1054835126+1054384788
1681+1053274732+1051477405+1049321627+1047092978+1044876752+1042720210
1673+1040821767+1039378521+1038393454+1037481674+1036168623+1034498576
1664+1032753439+1031065695+1029435484+1027856352+1026327258+1024860207
1656+1023529805+1022368739+1020979972+1018863335+1016461810+1014321022
1647+1012868615+1012290997+1012048305+1011835593+1011943580+1012550276
1639+1013615292+1015273540+1017693595+1020170002+1021932212+1023527653
1630+1025840623+1029202716+1033079550+1036737843+1040323196+1044186081
1622+1047494944+1048972474+1047442963+1039719553+1022078993+999042429+980999487
1612+974361566+981006913+997486338+1015948388+1030491408+1040217083+1046431663
1602+1050265053+1052629102+1054603051+1057173357+1060681676+1064697866
1594+1068477332+1071424828+1073205776+1073741823+1073088906+1071160899
1585+1067587552+1061712200+1052977560+1041776159+1029045039+1014259117
1577+995446041+974086463+954858027+937179713+916147079+889415995+862337077
1567+841301528+826795220+817202100+811231462+808132049+809503050+818677965
1557+833309401+851018320+872394693+896011443+919757764+942467314+962519462
1547+978850856+992591680+1005240700+1017321957+1030027885+1043391935+1052954866
1537+1057536876+1059822155+1061652793+1063298411+1064138362+1063953688
1528+1062890130+1060914861+1058229004+1055358889+1052228801+1048286939
1520+1043510748+1037566412+1029274268+1018267604+1004890159+988443769+967987643
1510+942151682+901851748+827724767+731863794+659131201+612669639+579915936
1500+559471539+557431520+578865148+617778605+659609646+697914186+735495229
1490+772518224+799795419+810567926+810698468+806885343+798444127+781064443
1480+754622202+725729440+702149195+688189483+684835024+690596698+700757443
1470+709810630+716902567+725405411+740103402+762629459+786556775+803996560
1460+812416401+808455453+782270341+733678817+683723996+642799668+609812225
1451+586055217+574706896+576447314+587971079+604826028+624577396+645664855
1441+665880787+684438124+703331635+723808234+743083030+759576474+775833264
1431+794278172+813996435+832055548+847651855+862005205+875243571+886304853
1421+895375599+903472798+909731655+912677347+913300005+913624521+915121899
1411+918463866+923319035+928708308+933783198+937856573+940101253+939711363
1401+935567338+925884622+909606249+887961783+864146757+842467035+825647549
1391+812652361+801308551+791073132+782884741+777526976+774965969+774938140
1381+776782450+778755012+778544660+774921553+768753888+762743969+759845886
1371+761456595+767362899+775658167+782060058+781386043+770053823+748345093
1361+722278307+699725809+684680123+678169481+680790866+692356340+710895008
1351+733210435+755983695+776551070+793773285+807999564+819451569+826965737
1341+828580888+823471090+813942997+804540588+798071309+794003069+790501482
1332+786854016+784363590+785425274+791705437+802961039+817321676+832506441
1322+846845217+859459120+869888235+877787991+882864130+884966123+884473868
1312+882647601+881119756+880810994+881496183+882283181+882262777+880742566
1302+877160683+871057698+862228466+850956554+838146318+825167022+813491549
1292+804373056+798613672+796500991+798042994+803182773+811561251+822049149
1282+832723316+841674208+848284091+853838953+860639756+870280624+882647116
1272+896261006+909279166+920221010+928099876+932245497+932251535+928244020
1262+921484371+914864772+912095842+915296719+923198348+931937013+937353769
1252+936617294+928552990+913469203+892942566+869246145+844492272+820174649
1242+797261340+776348352+757981519+743606585+736169105+738627746+750909014
1232+768318124+783334801+789433691+784071206+769267935+750032767+731690571
1222+717549724+708378557+703716112+703173542+706243668+711293990+715387630
1213+715459459+709957550+699649191+687088101+675494728+667886870+666339939
1203+671187058+680820500+692573632+703915499+712935999+718225890+718763881
1193+713893305+703475849+688481102+671448002+655713658+643709713+636041476
1183+632125223+631344679+633392609+637509707+641988865+645763612+650747657
1173+660782857+677153948+696576775+714459541+728671523+739595809+748363900
1163+756138874+763998863+772503858+781547052+790761108+799909582+808970264
1153+818005268+826952551+835539924+843355427+849761344+853288817+850911236
1143+839013196+817134504+791302708+771883559+766555498+775319147+791890736
1133+808371479+818198826+816949067+803775381+783797978+767488722+764423037
1123+776049168+795164690+812518419+823045666+826590490+825334207+821829914
1113+818278844+816184693+816321550+819012821+824237268+831434277+839448821
1103+846834598+852272937+854967539+855071708+853746512+852374331+851502178
1094+850633357+848913898+845867090+841733406+837460366+834387464+833764875
1084+836205333+841093952+846393352+849293309+847141208+837876420+820344402
1074+795067044+764763029+733674306+706156432+685695656+674660191+674157733
1064+683631277+700608094+721113494+740712528+755668618+763664077+764187840
1054+759168956+753098937+750639255+752411736+753518600+747191384+729697536
1044+701812534+667409674+632037987+601697467+580920122+571220160+571252917
1034+578044664+588202529+599106550+609873089+621152218+633814493+647840135
1024+662243453+675703276+687020159+694841770+697649841+695745846+693804792
1014+699515110+717811085+746752427+779552004+809615755+832854483+846230261
1004+846043297+828888261+794597343+748064230+697820149+652281748+616516284
994+591683712+576850841+570856919+572559723+580235246+591596684+604392000
984+616869740+628144566+638542313+649320719+661413705+674133651+685478225
975+694233685+701495792+709471610+718968126+728687069+736811750+742528523
965+745830237+746562132+744331054+739139572+731369734+720157298+700450694
955+662581294+600583733+526100243+470004059+461435563+503393156+572525266
945+641276681+695738073+735343728+764119203+785365451+801077657+812604683
935+820736999+825569127+826829365+824217350+816989249+803439484+781599657
925+751358033+716752038+686170076+668942308+670120862+687797024+714973311
915+743447937+766429883+779834255+783729966+782838589+783733783+790276070
905+801821696+815349392+828260814+839465893+849150969+857974094+866168662
895+873376845+879291477+884093416+888186501+891804195+894979948+897692386
885+899946712+901816423+903377026+904438224+904340925+902077646+896548531
875+886978590+873810874+859593201+848579181+844517326+847747211+854149727
866+858141696+857903306+857055097+860376105+868769920+879192165+888267699
856+894641622+898522690+900507605+901154831+900952946+900191070+898862889
846+896781022+893731716+889459440+883535924+875362523+864361897+850169209
836+832837688+813181330+792854080+773764027+757526809+745633210+739418977
826+739004380+742505135+747070488+750810465+753595981+756367617+759969557
816+764435738+769297708+774624243+781355438+790209793+800607609+811136800
806+820772879+829133521+835795316+839939202+840577407+836598138+826511512
796+808752764+783516907+755475686+733835106+726948177+735438529+751647918
786+766430785+775381885+778630578+777229110+771482079+761856202+749920547
776+737436560+723881243+705408020+678350546+644659038+611913177+586023154
766+564449650+537605721+496568548+440016648+376693682+322906859+295458108
756+303420844+344333582+406867710+476971458+543204478+598736508+640501203
747+667843703+681862683+685009149+680654911+672651471+664582171+658935562
737+656964180+659040495+664964427+674440608+687476187+703993366+723187658
727+743498113+763038503+780197565+794236809+805376514+814320326+821799863
717+828311060+833916861+838373742+841640687+844125353+846244974+847849299
707+848229265+846622442+842630751+836495356+829527229+824141912+822636760
697+825494105+831106986+837269793+842786623+847606537+851762082+854692089
687+855531693+853591263+848335933+837957965+817001880+779137268+728749043
677+687494787+679251361+706652435+749173939+785757007+809686613+821324264
667+821012379+814441568+809290616+808934454+813104851+818863332+823519947
657+827231817+831382366+835932104+839225283+839171289+833852388+821571606
647+801784984+777365967+755564171+744488593+747227749+760097600+776660653
637+792475016+806324104+818635492+829841195+839753557+847691552+852642146
628+852240944+841890042+818684766+788715607+766477006+762917122+775919806
618+794394140+809301303+818663599+824457058+828858766+833223553+837856780
608+842074924+845160249+847177782+848594935+849305593+847595225+839233402
598+818857156+785112695+745087447+712233599+698712635+708034887+733388794
588+763165714+788350978+805641136+815844909+820708406+821515114+819675801
578+817057609+815266459+814879900+815538161+816690829+817897282+818626123
568+818446445+817181904+814259045+808258704+797846314+783624269+769273556
558+760162628+759597294+766255203+775711536+784000279+789380461+791896218
548+792289787+790722175+786098248+777472427+766562299+757936478+755630726
538+759521856+765831445+771146043+774932102+778282466+781705145+784767152
528+786959712+788056999+788058734+787433022+786909189+786540188+785616124
518+784014160+782895845+783131875+784059547+784575399+784210701+782922356
509+780952500+779090007+778122013+777786602+776929440+774865131+772287885
499+770527965+770268755+771238693+772774727+774300630+775067710+774057451
489+771035072+767588450+766468539+769349133+775151337+781104140+785068765
479+786204430+784498504+780640199+775674268+770424489+765690216+762504191
469+761379769+761794574+762866183+764294439+766276439+768945779+772611845
459+777725807+783256934+786435880+786252385+784811637+784738073+786780243
449+789446946+790661311+789962451+789221604+790671929+794529054+799443143
439+804596525+810015084+815668425+820984897+824686912+825477727+823544168
429+820862752+819709182+821224258+824665120+827058525+824066613+809985450
419+777743851+726696671+663425339+589652715+511304606+452052829+439844605
409+478141892+543281825+607005750+654052772+683227576+699707904+709165763
399+716620178+725985111+736179029+742436359+744207938+744456252+745378581
390+748416991+755235422+766244793+778767851+788627954+794804017+799060401
380+801852441+802341781+800833090+799687848+800389554
##END=
