##TITLE=HMS-Q501
##JCAMP-DX=5.0
##DATA TYPE=LINK
##BLOCKS=1


$$ === CHEMSPECTRA SPECTRUM ORIG ===
##TITLE=HMS-Q501
##JCAMP-DX=5.00
##DATA TYPE=INFRARED SPECTRUM
##DATA CLASS=XYDATA
##$CSCATEGORY=SPECTRUM
##ORIGIN=Angelika Moesle
##OWNER=
##XUNITS=1/CM
##YUNITS=TRANSMITTANCE
##XFACTOR=1.0
##YFACTOR=9.4679509e-10
##FIRSTX=3997.453
##LASTX=373.96442
##MAXX=3997.453
##MAXY=1.016613485944049
##MINX=373.96442
##MINY=0.17038437807889265
##NPOINTS=2559
##XYDATA= (X++(Y..Y))
2559A051924572A052003705A051823090A051664382A051788150A052050228A052156117
2552A052115574A052167637A052339439A052391062A052244253A052159579A052344098
2545A052636079A052721193A052474287A052008112A051532934A051196255A050972517
2538A050707794A050332840A049982563A049848786A049999435A050389876A050987751
2531A051748804A052442810A052725411A052550839A052370098A052679014A053353567
2524A053647626A053045658A051844179A050756962A050252259A050307406A050722526
2517A051440643A052351023A053076569A053259451A052988496A052742031A052842946
2510A053234647A053732614A054163849A054362218A054222586A053708754A052884055
2503A052060175A051695482A051837821A052012896A051856077A051480997A051236735
2496A051305733A051588397A051830896A051804140A051562963A051497365A051835617
2489A052259362A052291342A051885036A051391980A051173844A051265127A051331103
2482A051144381A050843398A050777674A051186120A051872697A052441677A052676558
2475A052586786A052202136A051555849A050945509A050798071A051066129A051247122
2468A051123606A050950231A050938144A051155713A051598595A052096247A052447343
2461A052624432A052766898A053148966A054087612A055233880A055383396A054492092
2454A053434904A052723333A052405541A052281710A052154291A051960959A051721545
2447A051483137A051287413A051088289A050863669A050773959A050999209A051452793
2440A051875404A052195463A052606931A053246608A053855941A053816594A052838351
2433A051705176A051262357A051585564A052304248A052988244A053450139A053665316
2426A053536134A052865547A051731743A050735368A050430922A050921838A051749307
2419A052113749A051752455A051105350A050903330A051491007A052519866A053433267
2412A053922357A053939166A053481427A052582757A051521225A050756584A050654409
2405A051279355A052177521A052653202A052467236A051924572A051471554A051316057
2398A051286154A051107049A050815698A050672855A050784598A051028294A051243723
2391A051348730A051415525A051685346A052299211A053069455A053549732A053450453
2384A053148274A053078835A052988181A052562863A052012707A051767879A051890387
2377A052397609A053419165A054696945A055321387A054756688A053759747A053213494
2370A053190264A053302574A053183528A052853208A052698655A052821731A052861140
2363A052689968A052638912A052887832A053162249A053135809A052890980A052938196
2356A053528139A054173041A054367380A054029253A053304966A052498776A052066470
2349A052169715A052364747A052243371A052015918A052156998A052560282A052292098
2342A050626458A048640633A048203291A049143762A050255028A051122662A051941632
2335A052756510A053291242A053357911A053058564A052576965A052018310A051584619
2328A051564600A051864010A052003579A051900019A051810499A051862121A052037637
2321A052378660A052957397A053679166A054237191A054408300A054334581A054225985
2314A053959437A053122525A051905811A051248885A051473379A052169904A052753488
2307A052763624A052142078A051351437A051059267A051561137A052421657A052918239
2300A052892554A052885944A053264550A053681243A054011626A054427753A054859178
2293A055060757A054977720A054732514A054289506A053510134A052434878A051422638
2286A051049950A051617418A052665667A053317494A053322468A053093881A052930201
2279A052784336A052519929A052145037A051883903A052067414A052739135A053458574
2272A053788958A053706299A053467388A053350356A053412177A053445102A053148714
2265A052410829A051556101A051173970A051575806A052547314A053572773A054139864
2258A053970077A053180884A052318790A052076543A052563996A053186235A053428923
2251A053125673A052376834A051559627A051118444A051228992A051753022A052409003
2244A052930326A053160927A053080913A052811091A052605546A052666171A052909552
2237A053138579A053324419A053476516A053371761A052805803A052107768A051872005
2230A052159894A052471769A052517159A052560597A052826452A053051702A052878012
2223A052341706A051797845A051581409A051776000A052124640A052203647A051853937
2216A051364721A051137204A051282440A051648958A052067477A052383633A052422224
2209A052180354A051930363A051930237A052140126A052311550A052305570A052208054
2202A052103487A051996465A052031090A052435696A053072603A053442143A053285388
2195A052829663A052386340A052048969A051809680A051687738A051709583A051889191
2188A052172422A052402393A052436577A052270190A051997409A051705491A051459907
2181A051331607A051379389A051600862A051930993A052295875A052623614A052828656
2174A052843953A052639604A052216993A051721545A051501142A051802189A052462137
2167A053094763A053433078A053448879A053312206A053226085A053223189A053208269
2160A053101436A052727299A051839772A050648240A049970791A050396423A051536774
2153A052456660A052663086A052428897A052228892A052129298A051933007A051742194
2146A051930804A052472587A052793779A052555309A052190427A052335914A052996680
2139A053618856A053859970A053919021A054073384A054239709A054171845A053852541
2132A053453664A053024002A052466418A051840591A051461607A051518706A051744145
2125A051762213A051605331A051538600A051615656A051765361A052016044A052307081
2118A052372049A052064204A051545714A051105224A050990018A051311147A051931748
2111A052597740A053213557A053818735A054362092A054682151A054656025A054314058
2104A053868406A053572395A053509693A053607020A053824967A054147670A054397598
2097A054311540A053909955A053582594A053612560A053830381A053985878A054183743
2090A054573618A054924209A054946180A054719671A054432034A054022266A053411170
2083A052773634A052319672A052040029A051844809A051763283A051853622A052024669
2076A052089952A051951390A051609234A051053664A050339513A049761028A049698011
2069A050161416A050682550A050868831A050935688A051347219A052021017A052383066
2062A052236257A052015981A052047962A052108209A051945598A051739109A051769893
2055A052022717A052298267A052419769A052298645A052054131A051962218A052065841
2048A052080950A051872068A051644300A051530857A051401486A051147025A050790579
2041A050383959A050067551A050069440A050414051A050841131A051131413A051282754
2034A051315428A051163582A050839998A050547828A050539581A050902512A051480053
2027A052003516A052315705A052455275A052485493A052301100A051789661A051201858
2020A051109505A051811821A052949024A053831200A054044425A053679166A053119189
2013A052691416A052448728A052242742A051960455A051650406A051452416A051482948
2006A051704988A051847893A051624973A051117815A050753436A050838676A051275452
1999A051738353A051966121A051931245A051815598A051778518A051777385A051710402
1992A051586256A051404445A051094270A050726870A050562496A050759920A051201040
1985A051603820A051687109A051350115A050840502A050636279A050991843A051629002
1978A051969584A051660731A050875441A050146307A049878689A050003401A050165193
1971A050204665A050271711A050499102A050817649A051120648A051357166A051439384
1964A051286469A050979127A050677451A050394220A050011144A049541695A049214964
1957A049179520A049266964A049236116A049081627A048859336A048469461A047921320
1950A047489517A047314631A047215226A047119851A047236442A047624869A048013925
1943A048154816A048063281A047889150A047731828A047587600A047424863A047322626
1936A047420645A047675547A047808380A047578786A046995768A046251399A045550468
1929A044954355A044319904A043486265A042531629A041661603A040869766A040020641
1922A039236359A038813181A038729641A038629985A038315592A037947814A037790555
1915A037974633A038429224A038883879A039041075A038868140A038617898A038513016
1908A038490416A038285878A037722187A036864815A035910367A035049155A034491633
1901A034429057A034815721A035347683A035770294A036022866A036079840A035951099
1894A035890726A036263540A037078922A037868051A038109480A037651111A036738151
1887A035782382A035082584A034641527A034229618A033595104A032511790A030774760
1880A028498906A026385851A025297374A025469805A026388117A027451286A028467365
1873A029442147A030235872A030672711A030796353A030723767A030348686A029533367
1866A028514581A027720856A027282317A027139663A027498124A028655221A030416425
1859A032131987A033339636A034116553A034786259A035489267A036131210A036644286
1852A037105362A037566627A037972052A038343984A038824765A039408287A039827372
1845A039852995A039583551A039315996A039173090A038938838A038308856A037302598
1838A036332538A035784333A035599689A035422095A035083528A034702970A034316243
1831A033717927A032767194A031588064A030344972A029002601A027429189A025669685
1824A024063348A023040847A022794130A023193385A023958340A024779262A025371156
1817A025593573A025501723A025241974A024964221A024743252A024454104A023820722
1810A022669795A021028267A018975585A016574137A013974007A011462704A009290787
1803A007422876A005585560A003693789A002108164A001321993A001544158A002691685
1796A004614556A007168478A010139661A013189787A015963608A018328165A020413394
1789A022330724A023972442A025216226A026215812A027337969A028793342A030402890
1782A031800786A032822342A033581758A034227730A034811126A035355049A035811655
1775A035965011A035633054A034978143A034379575A033979691A033585976A033017941
1768A032293654A031467759A030554987A029656191A028927497A028376334A027846134
1761A027220119A026507037A025752910A025005645A024377363A024028471A024046728
1754A024363953A024871993A025665467A027023009A029008330A031268635A033411782
1747A035379286A037261992A039000974A040434313A041488039A042244118A042889964
1740A043568420A044287230A045026438A045785979A046462736A046924567A047238141
1733A047558263A047860191A048006371A047946312A047680772A047193066A046546402
1726A045967728A045759286A046046483A046598339A047035052A047241100A047401948
1719A047666670A047963247A048120066A048062400A047943920A048071213A048585108
1712A049268663A049783124A050023609A050113256A050121566A050003779A049801759
1705A049674592A049690141A049788350A049960026A050255721A050612104A050859136
1698A050925364A050916739A050927819A050851015A050508356A049965503A049523502
1691A049368446A049414717A049493913A049524572A049515066A049489632A049415221
1684A049245685A049061293A049049331A049322552A049830214A050393779A050781010
1677A050866502A050724981A050472094A050079324A049454567A048640444A047882225
1670A047498079A047608438A048030041A048532919A049103661A049772233A050316031
1663A050419276A050109164A049772485A049678747A049725836A049773367A049943217
1656A050366898A050879911A051204943A051248885A051068081A050755954A050471150
1649A050394724A050563441A050825141A050978119A050926497A050727877A050522017
1642A050416191A050439736A050560671A050699485A050766405A050748841A050727184
1635A050791712A050990395A051317505A051666208A051861366A051851041A051777763
1628A051767501A051783240A051746411A051627491A051389021A051061282A050871538
1621A051025209A051353955A051451094A051162953A050710690A050364632A050256476
1614A050422927A050758787A050984100A050907422A050650569A050427649A050254084
1607A050049043A049850297A049745919A049712805A049668926A049610504A049599613
1600A049645129A049698262A049747492A049816742A049886684A049971042A050188612
1593A050548395A050769427A050582831A050130379A049838587A049945483A050259058
1586A050358462A050031730A049510155A049208542A049296804A049605027A049853318
1579A049904500A049879633A050015614A050353741A050678269A050780695A050614182
1572A050220844A049718471A049288053A048966043A048561059A047987484A047527353
1565A047494931A047774888A048005804A048130957A048415258A048928271A049382107
1558A049519221A049389221A049209424A049153520A049260354A049457715A049705565
1551A050076931A050580942A050997006A051042899A050709620A050304951A050113193
1544A050064215A049877619A049520039A049263690A049260983A049409366A049669996
1537A050099406A050527935A050666874A050575906A050603480A050819223A050903645
1530A050688719A050477634A050569799A050706158A050419905A049876485A049799493
1523A050462273A051308440A051729414A051735709A051766683A052158005A052783203
1516A053101247A052769542A052150577A051853056A051967129A052193826A052463836
1509A052917547A053454231A053735258A053612812A053305092A053117048A053109998
1502A053102821A052947702A052753677A052822234A053326623A054042222A054452557
1495A054185694A053356652A052487444A052106320A052368839A053028346A053728585
1488A054241724A054485041A054519099A054516266A054567952A054592189A054564175
1481A054697826A055197493A055858763A056146463A055794550A055119808A054535405
1474A054075021A053700192A053627858A053889244A053995321A053532797A052747445
1467A052193323A052097444A052325400A052708350A053141978A053461848A053462226
1460A053150225A052831174A052789120A052979997A053160801A053180884A053002409
1453A052612408A052168078A052090456A052634820A053403993A053721849A053494899
1446A053248811A053335751A053570444A053644100A053512463A053375223A053474754
1439A053857263A054222523A054105239A053329896A052309851A051776818A052098199
1432A052928564A053637049A053954149A054048140A054075399A053870231A053195741
1425A052228640A051496798A051241394A051170004A050996124A050839872A050934240
1418A051310895A051918969A052766079A053813069A054878567A055721775A056277471
1411A056843679A057800457A059034356A060007753A060474999A060605566A060458631
1404A059955376A059146416A057952680A056172274A054120096A052540578A051737346
1397A051481878A051603757A052055138A052643508A053092244A053323538A053412303
1390A053264802A052827019A052444132A052473720A052770549A052967910A052960670
1383A052736743A052150451A051293331A050607194A050273852A050031415A049771541
1376A049730117A049920616A050002645A049873967A049829522A050093614A050513770
1369A050705087A050440932A049957067A049789986A050257736A051181398A052129802
1362A052838791A053299993A053490051A053296216A052862966A052671018A052993029
1355A053593863A054144397A054548814A054782436A054847090A054948446A055339203
1348A055971199A056549809A056884222A056997288A057009501A057110102A057492863
1341A058132603A058825350A059568586A060515038A061441848A061815418A061480376
1334A060729711A059801894A058903286A058424080A058521785A058724370A058379509
1327A057347565A056143567A055559416A056121407A057684368A059496817A060761818
1320A061216473A061133625A060783977A060170175A059393070A058830637A058657766
1313A058668719A058872691A059738057A061459350A063333620A064261815A063847325
1306A062890800A062741347A064036439A065987135A067067806A066571475A065280287
1299A064483539A064710929A065650457A066783883A067642199A067876639A067527119
1292A066946429A066290447A065390960A064111229A062606750A061383301A061175427
1285A062344610A064319481A066015968A066775069A066639718A065963339A064989816
1278A063607847A061649345A059755182A059416236A061308637A063875151A064600634
1271A062871662A060480035A059151577A059033601A059774697A061380657A063483828
1264A065517874A067964398A071293412A073741823A073143129A070404751A067883061
1257A066243862A064744798A062881987A060880801A059220701A058184098A057875246
1250A058370821A059362095A059946311A059582058A058974298A059149060A059958146
1243A060368733A059900606A059030832A058509571A058774985A059688827A060535687
1236A060617150A059973254A059171849A058452284A057593589A056552832A055719886
1229A055528695A056071485A057006228A057772631A058058819A057986296A057776282
1222A057544358A057466422A057678955A058003797A058227160A058532109A059151830
1215A059786659A059862581A059169709A057883934A056287795A054827197A054071055
1208A054224978A054939570A055773334A056480435A056841036A056761084A056505365
1201A056303030A055968492A055451513A055281726A055821683A056577888A056890140
1194A056908899A057220020A057761047A057816447A057070944A056052347A055359915
1187A054981497A054665594A054606165A055358970A056995273A058518134A058755847
1180A057924727A057418324A057852204A058407460A058520274A058806589A059550959
1173A059813603A058977699A057772505A056996407A056604705A056363718A056169064
1166A055896976A055961000A057276175A059803027A062270324A064017175A065701450
1159A067606945A069052244A069876944A070677845A071385072A071169392A069857554
1152A068119643A066495301A065232567A064585650A064509475A064444634A063858153
1145A062703197A061179204A059516838A058213939A057980631A058990163A060355260
1138A060822757A060147512A059378464A059663772A061085654A062765270A063801368
1131A063707063A062227516A059684925A057402461A056697122A057226819A057202267
1124A055652840A053450013A051889506A051392483A051504038A051351437A050145362
1117A047884743A045624313A044533507A044654316A044942520A044577323A044013632
1110A044469357A046318697A048410977A049581294A050112060A050706598A051254425
1103A051442910A051600924A052166819A052922079A053286836A052924283A051841157
1096A050280777A048760246A047964947A048218904A049062552A049432470A048452337
1089A046262164A043728387A041575419A039997537A038822310A037917219A037212636
1082A036413119A035275286A034191028A033943807A034876409A036774098A039354587
1075A042236626A044650665A045958662A046357413A046595569A047101405A047737494
1068A048334236A048818479A048929404A048430115A047581619A046968068A046860606
1061A047007352A047013899A046759501A046451782A046340038A046370760A046295593
1054A046164018A046235786A046554019A046965110A047442302A048116477A048954522
1047A049661812A049971105A049876485A049577957A049274518A049040958A048861854
1040A048686338A048415698A048009141A047622225A047393260A047253062A047047894
1033A046720785A046340731A046059766A046066880A046386435A046707627A046677724
1026A046162570A045201072A044146591A043527311A043553941A044083574A044893101
1019A045708545A046139529A045894512A045009818A043758353A042353595A040876125
1012A039539105A038765777A038831753A039528718A040338811A040951796A041396441
1005A041768940A042145469A042581866A042962298A043047223A042788293A042214277
998A041155578A039446248A037369707A035577025A034509764A034142112A034260151
991A034793876A035789936A037191358A038646290A039740873A040520686A041189384
984A041624334A041631448A041319762A041018149A040975215A041150416A041303457
977A041221176A040891926A040424870A039815411A039006514A038132773A037424854
970A036912282A036431627A035805549A035034424A034306234A033729196A033186343
963A032515315A031607454A030536227A029706051A029264050A028955826A028661390
956A028452949A028397927A028489022A028623995A028629283A028399060A027940188
949A027327267A026754510A026349211A025883288A025030763A023774073A022348603
942A020896126A019435717A017982295A016349014A014053203A010821642A006978797
935A002432314I96991065I91783752I87712636I84049965I79838083I75167769
928I70347373I63895332I52882643I37718508I21544904I04313104H84398137
921H59053063H24783929G83504225G42455310G02720311F61865043F28389194
914F15171789F22510602F47123771F87233725G33747183G74165549H05349554
907H29845755H50550229H73225104I03036332I28225406I40783744I48649231
900I57947176I68569234I76765482I81956867I85860903I89441293I92815759
893I95983232I99033170A001444376A002667133A003326892A004370986A006380419
886A009288647A012404875A015059399A016871218A017544827A017033765A015449399
879A012586309A008365110A003802448I99672091I95364015I89639787I80985359
872I68111243I51893571I36965136I29870837I33747489I43870006I50624731
865I48827076I43432727I44985427I58354740I77806554I94370600A004149010
858A008731503A011137672A013042160A014696783A015859105A016378665A016402965
851A016495634A017501892A019497160A021412287A022744837A023706587A024418661
844A024754521A024647058A024272040A023911565A023657797A023267230A022251088
837A020393123A018296499A016118979A013596786A010591734A006913514A002392527
830I97223365I91470870I84240905I74112659I58959792I31750207H86018450
823H36793307G98054935G66688615G42383102G34993800G49836743G79211573
816H15505059H53509891H85903244I07007414I14460489I05654027H84272607
809H64018443H58638133H73315381I00000433I26229760I45765870I58399816
802I66904161I73935883I78081664I77968787I75719185I72418123I67673145
795I60168197I47727331I29930203I09313424H85809443H54376265H10800562
788G63112066G29387421G17854983G25720470G48457167G81002491H16533793
781H49485675H78426877I03692251I24746624I40219234I47788837I45806538
774I34118163I09506063H65019162H02863496G45871389G14370096G09088812
767G26457789G65989887H12916072H44431026H60169429H66908415H65650843
760H54677312H36567176H22385692H24378631H45650699H78721691I11345268
753I35683328I51046020I59254292I61958800I61084934I57618303I50633670
746I38421769I19545356H90580357H46018855G86278613G21473019F61754685
739F15257092E94842332F06098339F40152674F87474021G40788411G91635252
732H31930669H57137433H65527516H55666573H28274923G88184926G41075419
725F94815604F63278930F58987789F83239916G25822771G71890891H13006411
718H48998347H81097013I07658927I26266714I37426527I43562287I46646912
711I47660662I46796051I43480069I36562167I25662859I12705706I00445581
704H89943010H80642484H71465915H61928807H53574859H50216006H54416997
697H63868927H74219276H82826488H88728877H91592219H91251511H87663819
690H81122950H72652222H63981489H56727853H51566938H48438811H47779619
683H51534076H62119810H79492627I00383698I20725556I37686402I50093650
676I57884284I61311443I60702740I56877900I51528941I46892433I44780575
669I45691647I48610073I51654975I52812764I50018798I42257626I32373326
662I26846962I30029482I39601277I49300743I55089059I57132360I57162830
655I56304766I55097558I53893560I52782483I51550975I49891190I47603563
648I44645160I41061623I36808444I31570410I24953680I17062445I08743437
641I01070842H94662491H89503212H85201495H81318863H77604130H73987101
634H70338029H66224607H60909265H53619935H43883640H31570445H16662093
627G99226637G79674034G58752556G37134114G15116794F92741644F70060976
620F47191258F24170198F00902043E77272658E53253271E28935546E04504628
613D80136539D55997225D32427709D10065306C89780956C72540500C59147233
606C49946112C44816862C43227523C43751521C43507669C39054641C29085102
599C16499158C06932872C04350777C07948951C13309966C15930368C13449567
592C05570041B93036412B76883079B58210905B38287738B18728856B01517453
585A88620547A81336363A79959085A83963659A92304355B03634080B16598331
578B30098101B43230407B54943099B63888674B69067641B71101562B72779321
571B77700035B87843264C02418747C19292967C37531844C58203079C82674759
564D10807567D40395150D65912278D77695903D67864957D41440346D17496127
557D12984016D26489436D41441888D42580791D25821147C96054145C61660235
550C31146471C10627208C01794211C02093274C07121954C13160072C18247898
543C22211237C26343639C31960940C37842554C39382600C31311411C11571488
536B83084154B53087731B30991262B24916757B37994766B67211974C06251991
529C49704903C94508432D38043940D76217457E04090422E18155252E17606386
522E03648515D79243157D51082524D30166334D26840217D43795900D73995712
515E04662675E24413142E30906009E33557322E46007505E73957116F11314654
508F47606378F76553308F97563992G12135288G20832587G23228180G20050823
501G15160044G14598430G22843782G39922981G61973540G83910971H01654903
494H13096120H18278755H19180509H18803855H19337895H20588604H20319916
487H15987917H05763414G88139536G61629433G26296060F86460523F51134704
480F30055652F28131082F43030432F67398836F93401277G16366874G35602440
473G52808555G69981493G88124238H07049441H25803345H42926486H56612206
466H64967225H65973924H58343508H44026043H27838526H12004370G94531267
459G76676474G66925763G71736338G86218428G99165697H03916026H00042711
452G87481414G63576919G25806654F75881147F21917574E77632000E57679953
445E70071022F10795471F66137110G21039140G65571494G94725355H05510213
438G98266838G81364666G70164437G76765554H00883778H32477677H61785335
431H85042725I02857920I16620256I26952977I34204724I39486071I44639180
424I50860620I57686923I63415559I65838914I62985582I55287175I47545834
417I46149512I52860483I63145045I71250009I74685289I73207567I65384323
410I46954254I13153436H65232702H15362342G81377320G73579635G87675564
403H11411028H35332080H55217584H67736450H69554313H61746618H51447199
396H46704488H49891666H55742684H55116732H42329366H21224252H03970544
389H02131969H17994895H44338295H71640801H94544766I12498776I27011713
382I39592274I51027952I61300300I70040031I76988906I82032097I85317483
375I87447536I89110658I90467004I91082003I90378805I88119886I84416484
368I78982222I70286056I56012218I35473313I12262068H93525036H84926952
361H86306151H93079069I01116861I09137908I17365506I25553318I32532034
354I37245912I39992159I42162691I44419596I45433724I42906871I36167760
347I27898044I22971696I24933724I33160064I43322683I50481951I51420660
340I44168535I26319218H94595570H46487359G84111480G17609274F61167890
333F21374595E92042259E66021121E49926965E59906766F02772851F67434972
326G35405205G94440802H41098739H75648271H98758789I11585375I15905160
319I13418787I04775565H88142900H59911506H21434078G86007406G72335662
312G86015338H11740215H27440341H21830248G96786976G59001414G10785803
305F45654800E58746836D67907262D13876297D26828067D97708102E90557612
298F75712808G43034740G92356517H24858907H43291431H51687873H51740188
291H43332855H30393203H21867643H23477379H31473181H38185412H42033545
284H48893340H64253766H86569425I08822507I24940334I33421512I35694911
277I33080868I25856254I13614637H94579202H63479430H10953351G29471402
270F25340515E24418179D58795189D43050964D64804820D97561828E18769149
263E19061099E04585052D92646812D97939427E20540583E49815851E77186159
256F00966256F22424669F41410497F54140511F55898756F49921704F50470727
249F70087039G05767164G43767589G74706954G97335999H10607922H11322955
242H01497014G91502860G91206723G99174133H03491085G92662915G64016905
235G22552242F74761382F26578004E87664619E72571308E90987652F37375390
228F95296510G51005234G99007493H37554297H64894450H79901325H83115825
221H76711000H63932763H48525499H34440838H24226093H16082852H03141312
214G76571592G31721571F74241822F17323561E73653300E55320181E66648648
207E91323134F14597711F34234106F51557189F69970511F94247569G24354618
200G52265827G67747818G66776373G53738828G36523270G22513084G19854721
193G34665683G60304249G76425916G69235486G49532926G41949348G59282315
186G93931755H29167361H50168916H46194560H11209637G49522665F81172314
179F35405933F31084763F62993433G10459134G54983368G87624446H08386712
172H24016078H40987814H57152919H63146214H51928483H24369250G85623134
165G38118213F79989721F11457245E41614630D86207771D57227002D55094054
158D71394637D97102484E26580369E55936313E81165866E99856124F13688338
151F27265841F43825920F61736743F75284153F79601169F75114555F66735425
144F59452516F55971846F56844390F60019103F60654877F53934147F38212680
137F13159839E76512739E27984309D76328413D37285846D22468337D32243568
130D59068316D94856690E34835415E76632351F17507009F52457873F74198258
123F75932014F57354759F28735001F05291204E95396517E95312411E94387426
116E83287231E58722221E24385380D88563482D59413997D41633804D37017882
109D46359045D67855136D93454387E10519988E09457921D92699567D78700682
102D89158147E26611374E74017175F15597548F47960306F75537669G02878767
95G30755918G57009546G80018078G99846672H16374456H29031380H38520579
88H46635113H54657418H62698547H70033079H75821458H79548719H80258967
81H74750734H55605822H11556074G36192320F41992256E60914850E24977683
74E42948124E95775186F57146696G11744405G53881167G81999810G98084523
67H06325531H11229405H15909477H19160238H13774010G89101664G39964720
60F82376690F52061199F67950755G16610884G72559086H17820197H48850342
53H69005542H80008032H81697910H73636069H56040520H32411072H10124875
46G97590271H00233588H16453904H39181283H62360987H83197288I00518230
39I13851786I22533536I25146320I21802072I16338662I14471191I20200582
32I30689304I38813910I43510161I47356153I51206616I53728180I53089699
25I48518097I41139561I33691019I28637692I26335083I24979743I22459250
18I20353120I24983143I37609283I50280309I54481111I47755094I34594222
11I21928232I13011663I06261471I00000685H96064731H96338896H99950951
4I04865841I08893520I10134975I10195474
$$ === CHEMSPECTRA INTEGRALS AND MULTIPLETS ===
##$OBSERVEDINTEGRALS= (X Y Z)
##$OBSERVEDMULTIPLETS=
##$OBSERVEDMULTIPLETSPEAKS=
$$ === CHEMSPECTRA SIMULATION ===
##$CSSIMULATIONPEAKS=
##END=


$$ === CHEMSPECTRA PEAK TABLE EDIT ===
##TITLE=HMS-Q501
##JCAMP-DX=5.00
##DATA TYPE=INFRAREDPEAKTABLE
##DATA CLASS=PEAKTABLE
##$CSCATEGORY=EDIT_PEAK
##$CSTHRESHOLD=0.93
##MAXX=3997.453
##MAXY=1.016613485944049
##MINX=373.96442
##MINY=0.17038437807889265
##$CSSOLVENTNAME=
##$CSSOLVENTVALUE=0
##$CSSOLVENTX=0
##NPOINTS=0
##PEAKTABLE= (XY..XY)
##END=


$$ === CHEMSPECTRA PEAK TABLE AUTO ===
##TITLE=HMS-Q501
##JCAMP-DX=5.00
##DATA TYPE=INFRAREDPEAKTABLE
##DATA CLASS=PEAKTABLE
##$CSCATEGORY=AUTO_PEAK
##$CSTHRESHOLD=0.93
##MAXX=3997.453
##MAXY=1.016613485944049
##MINX=373.96442
##MINY=0.17038437807889265
##NPOINTS=57
##PEAKTABLE= (XY..XY)
963.2416871149335, 0.895809712367496
1321.6242558170443, 0.8945136095373767
1596.4314428850662, 0.8932374736689104
1603.5141023455822, 0.8803971428057903
1310.2920006802187, 0.8775341528030165
862.6679227756058, 0.8738650699817726
398.0454621657541, 0.8713858150821807
420.70997243940565, 0.8658168335852521
382.46361135261895, 0.8483896876329707
885.3324330492569, 0.8378444931622656
1517.1056569272869, 0.8129543684111669
1362.7036806880374, 0.8049803399202105
1341.455702306489, 0.8026735806712706
933.494517380766, 0.8016556519193638
1446.2790623221263, 0.7786307352718522
781.9256049257228, 0.7781402490222729
1068.0650471305703, 0.7752394695870719
923.5787941360436, 0.7594546097812321
437.708355144644, 0.7551545524145693
712.5155422126659, 0.74911064051139
946.2433044096947, 0.7324214001419921
815.9223703362, 0.7312436126134996
990.1557930648942, 0.7291879074442142
1021.3194946911649, 0.7261215468029036
638.8558838232993, 0.7024739997151013
1532.687507740422, 0.695888521020442
647.3550751759185, 0.6815549153561198
1485.9419553010162, 0.6796615732364334
1080.8138341594995, 0.6765782848457086
1460.4443812431587, 0.671361805575533
1396.700446098514, 0.623926402995156
575.1119486786547, 0.621070922971036
456.1232697419855, 0.6173683415927128
728.097393025801, 0.6153426782316334
624.6905649022669, 0.5975079549822137
1051.066664425332, 0.5947114243139874
1667.2580374902263, 0.582441629331716
1417.9484244800624, 0.5631937992617498
699.7667551837371, 0.5421077030892777
1004.3211119859261, 0.5280086412918307
668.6030535574664, 0.5257744207487113
840.0034125019542, 0.5206681503206018
478.78778001563705, 0.4970462926239764
742.2627119468334, 0.466435582705753
518.4506729945265, 0.45323145529725134
597.7764589523063, 0.43088081581539484
750.7619032994526, 0.41947847733496674
528.3663962392493, 0.41376638491979933
1106.311408217357, 0.4041302216701345
559.5300978655196, 0.3999909471520653
800.3405195230648, 0.3918560458669817
1161.556152009382, 0.39101123859728143
1228.1331509382326, 0.32496613352926207
1218.2174276935102, 0.2881578213012849
1148.8073649804533, 0.28573727716522396
1127.5593865989053, 0.2129500811863231
1198.3859812040655, 0.17038437807889265
##END=

##END=

