##TITLE=FSS48_ATR
##JCAMP-DX=5.0
##DATA TYPE=LINK
##BLOCKS=1


$$ === CHEMSPECTRA SPECTRUM ORIG ===
##TITLE=FSS48_ATR
##JCAMP-DX=5.00
##DATA TYPE=INFRARED SPECTRUM
##DATA CLASS=XYDATA
##$CSCATEGORY=SPECTRUM
##ORIGIN=JASCO
##OWNER=
##XUNITS=1/CM
##YUNITS=TRANSMITTANCE
##XFACTOR=1.0
##YFACTOR=1e-05
##FIRSTX=4000.6047
##LASTX=649.8934
##MAXX=4000.6047
##MAXY=0.9403300000000001
##MINX=649.8934
##MINY=0.24050000000000002
##NPOINTS=3476
##XYDATA= (X++(Y..Y))
3476H5481H5471H5457H5440H5427H5421H5426H5440H5457H5470H5472H5462H5445H5427
3462H5416H5417H5431H5453H5475H5490H5495H5490H5479H5466H5454H5443H5434
3449H5427H5423H5421H5419H5417H5417H5424H5443H5476H5515H5548H5559H5542
3436H5501H5454H5420H5412H5429H5460H5491H5512H5519H5516H5509H5501H5494
3423H5490H5486H5483H5480H5477H5477H5481H5494H5515H5542H5568H5585H5588
3410H5575H5545H5503H5460H5426H5414H5430H5464H5500H5527H5540H5541H5539
3397H5542H5547H5549H5538H5507H5461H5413H5381H5383H5421H5480H5541H5590
3384H5617H5624H5611H5583H5542H5491H5429H5361H5293H5236H5198H5187H5203
3371H5249H5315H5386H5445H5484H5500H5498H5489H5485H5490H5496H5491H5468
3358H5431H5389H5352H5329H5320H5326H5350H5393H5449H5502H5537H5543H5519
3345H5471H5409H5352H5318H5317H5343H5375H5396H5398H5386H5377H5387H5422
3332H5467H5499H5506H5487H5448H5393H5323H5237H5147H5103H5151H5268H5390
3319H5484H5542H5564H5555H5520H5469H5414H5362H5321H5295H5290H5312H5360
3306H5419H5474H5515H5541H5553H5552H5539H5519H5499H5489H5492H5506H5518
3293H5514H5483H5425H5355H5302H5284H5294H5323H5368H5432H5513H5595H5659
3280H5693H5697H5676H5641H5605H5579H5565H5550H5525H5488H5446H5413H5401
3267H5406H5422H5447H5481H5522H5563H5595H5611H5612H5602H5586H5566H5545
3254H5527H5517H5520H5532H5543H5539H5512H5470H5435H5428H5454H5496H5534
3241H5554H5552H5529H5494H5453H5417H5393H5388H5401H5427H5452H5462H5449
3228H5413H5365H5327H5318H5342H5378H5398H5383H5322H5214H5081H4973H4948
3215H4997H5063H5101H5098H5068H5040H5045H5084H5133H5171H5186H5167H5104
3202H4998H4877H4809H4848H4981H5146H5291H5388H5428H5412H5350H5263H5182
3189H5133H5131H5168H5226H5288H5340H5376H5393H5393H5376H5341H5288H5224
3176H5176H5178H5241H5340H5437H5513H5559H5576H5566H5541H5512H5491H5479
3163H5471H5464H5455H5446H5437H5426H5407H5377H5336H5295H5273H5281H5310
3150H5339H5362H5379H5390H5397H5396H5381H5348H5299H5240H5188H5164H5169
3137H5181H5177H5154H5130H5128H5167H5235H5304H5355H5383H5394H5391H5376
3124H5349H5308H5257H5209H5180H5183H5214H5246H5248H5201H5095H4938H4786
3111H4745H4871H5072H5239H5339H5379H5380H5366H5356H5368H5402H5450H5494
3098H5520H5519H5492H5443H5377H5298H5218H5167H5185H5274H5383H5459H5485
3085H5465H5411H5340H5279H5258H5292H5362H5433H5477H5487H5469H5435H5393
3072H5352H5312H5278H5252H5243H5258H5301H5370H5461H5566H5664H5728H5736
3059H5688H5608H5536H5507H5533H5597H5660H5687H5664H5594H5496H5410H5377
3046H5411H5482H5553H5602H5629H5641H5645H5646H5646H5647H5651H5659H5671
3033H5680H5675H5647H5588H5498H5390H5295H5259H5304H5403H5507H5586H5632
3020H5653H5662H5669H5678H5685H5686H5676H5660H5646H5639H5641H5644H5639
3007H5624H5603H5589H5594H5622H5664H5703H5727H5733H5724H5709H5697H5696
2994H5707H5723H5733H5727H5700H5658H5610H5569H5543H5530H5525H5522H5522
2981H5532H5559H5600H5648H5690H5719H5734H5738H5736H5731H5721H5704H5684
2968H5667H5661H5670H5687H5702H5706H5699H5685H5676H5679H5697H5723H5751
2955H5773H5784H5782H5766H5739H5707H5679H5662H5660H5674H5698H5724H5745
2942H5757H5757H5749H5737H5726H5718H5715H5713H5712H5712H5715H5725H5739
2929H5752H5759H5754H5740H5724H5715H5715H5724H5733H5736H5732H5723H5718
2916H5722H5737H5759H5780H5793H5795H5783H5760H5732H5707H5689H5682H5687
2903H5703H5725H5753H5782H5806H5818H5813H5790H5757H5725H5707H5708H5726
2890H5755H5788H5818H5845H5866H5878H5875H5856H5822H5783H5747H5724H5714
2877H5715H5724H5740H5761H5786H5811H5831H5841H5843H5839H5833H5828H5823
2864H5816H5808H5802H5802H5812H5830H5852H5873H5887H5896H5898H5895H5886
2851H5871H5852H5832H5810H5787H5763H5740H5725H5724H5740H5769H5798H5812
2838H5805H5777H5739H5706H5689H5689H5703H5725H5746H5761H5768H5769H5768
2825H5771H5780H5792H5802H5802H5792H5776H5761H5756H5762H5775H5790H5798
2812H5797H5787H5769H5751H5738H5737H5751H5776H5805H5828H5842H5846H5847
2799H5849H5855H5861H5862H5857H5846H5832H5818H5803H5789H5777H5770H5769
2786H5774H5780H5783H5781H5775H5769H5765H5764H5768H5773H5778H5779H5775
2773H5762H5740H5711H5678H5641H5600H5554H5506H5464H5439H5442H5477H5534
2760H5596H5646H5669H5664H5637H5597H5552H5509H5472H5445H5434H5442H5467
2747H5500H5531H5551H5554H5541H5512H5469H5411H5336H5248H5149H5047H4941
2734H4829H4708H4573H4429H4288H4169H4092H4072H4110H4198H4318H4451H4582
2721H4703H4812H4905H4981H5038H5078H5104H5121H5134H5144H5152H5162H5178
2708H5202H5230H5253H5262H5253H5234H5216H5209H5221H5252H5299H5354H5405
2695H5434H5426H5380H5321H5291H5328H5442H5605H5762H5863H5888H5852H5796
2682H5755H5739H5735H5719H5676H5607H5531H5467H5431H5425H5442H5473H5506
2669H5534H5554H5561H5558H5544H5523H5495H5464H5434H5408H5390H5382H5383
2656H5393H5412H5437H5466H5495H5517H5527H5526H5514H5497H5478H5462H5447
2643H5436H5429H5427H5428H5429H5426H5416H5399H5380H5364H5356H5355H5356
2630H5354H5346H5330H5311H5291H5272H5255H5242H5234H5234H5238H5241H5235
2617H5215H5181H5144H5114H5102H5112H5142H5184H5231H5276H5316H5349H5376
2604H5398H5418H5441H5468H5497H5524H5543H5550H5547H5540H5531H5523H5512
2591H5495H5473H5451H5437H5439H5457H5483H5507H5519H5513H5493H5465H5438
2578H5420H5412H5414H5425H5438H5450H5459H5462H5461H5459H5460H5463H5469
2565H5479H5491H5506H5522H5538H5548H5551H5546H5532H5514H5493H5469H5440
2552H5403H5354H5289H5209H5119H5029H4955H4910H4903H4934H4994H5072H5153
2539H5231H5301H5362H5417H5467H5510H5547H5573H5588H5592H5591H5593H5606
2526H5631H5660H5682H5689H5674H5646H5614H5592H5584H5589H5599H5604H5592
2513H5546H5443H5259H4979H4617H4215H3842H3567H3426H3411H3475H3554H3591
2500H3540H3364H3033H2529H1867H1107H0353G9723G9313G9168G9276G9583H0014
2487H0502H1000H1480H1925H2320H2657H2936H3165H3360H3532H3688H3822H3926
2474H3995H4030H4041H4044H4053H4077H4116H4159H4194H4210H4200H4168H4127
2461H4093H4079H4090H4125H4177H4235H4291H4337H4366H4372H4353H4310H4249
2448H4180H4108H4036H3957H3861H3739H3585H3405H3206H3000H2795H2596H2404
2435H2224H2062H1925H1818H1735H1667H1602H1527H1434H1314H1159H0961H0711
2422H0400H0017G9550G8985G8326G7605G6897G6304G5928G5831G6004G6363G6785
2409G7158G7430G7623G7817G8102G8530G9096G9742H0390H0973H1459H1850H2164
2396H2424H2643H2827H2980H3105H3205H3283H3339H3373H3388H3389H3383H3372
2383H3357H3333H3298H3252H3204H3163H3137H3124H3115H3093H3042H2951H2809
2370H2608H2340H2002H1606H1184H0792H0488H0319H0300H0409H0601H0823H1037
2357H1226H1389H1535H1669H1791H1900H1996H2084H2169H2254H2339H2420H2496
2344H2567H2636H2708H2784H2863H2941H3012H3073H3123H3164H3194H3211H3205
2331H3173H3113H3033H2943H2856H2780H2723H2690H2688H2720H2779H2853H2922
2318H2976H3013H3046H3087H3141H3198H3237H3234H3175H3059H2893H2690H2462
2305H2217H1957H1676H1363H1001H0583H0110G9600G9084G8592G8154G7791G7518
2292G7350G7294G7353G7521G7780G8107G8477G8864G9248G9613G9949H0250H0520
2279H0764H0991H1204H1404H1587H1744H1870H1962H2022H2056H2076H2090H2110
2266H2143H2192H2256H2331H2411H2491H2566H2633H2693H2751H2810H2874H2943
2253H3013H3082H3143H3193H3230H3254H3266H3266H3253H3224H3173H3097H2995
2240H2876H2758H2662H2607H2604H2651H2739H2855H2983H3113H3235H3344H3439
2227H3522H3601H3684H3775H3873H3967H4045H4098H4125H4134H4138H4149H4173
2214H4204H4231H4245H4242H4228H4214H4211H4223H4247H4273H4291H4299H4302
2201H4305H4316H4333H4352H4369H4379H4381H4375H4360H4337H4307H4268H4221
2188H4163H4089H3997H3889H3775H3665H3571H3496H3441H3400H3372H3357H3361
2175H3387H3436H3504H3585H3671H3753H3827H3889H3944H3998H4058H4127H4205
2162H4285H4359H4423H4477H4524H4569H4616H4663H4708H4746H4775H4795H4809
2149H4823H4841H4862H4882H4897H4903H4900H4897H4899H4911H4932H4952H4964
2136H4962H4948H4929H4912H4902H4899H4899H4897H4890H4879H4868H4863H4868
2123H4885H4912H4944H4973H4993H5003H5003H5000H4998H4999H5004H5012H5019
2110H5027H5034H5042H5048H5051H5052H5052H5055H5066H5084H5105H5122H5130
2097H5131H5129H5131H5143H5165H5190H5211H5223H5223H5215H5202H5187H5170
2084H5149H5126H5102H5083H5075H5080H5095H5113H5128H5132H5123H5103H5077
2071H5050H5024H5000H4976H4950H4921H4892H4862H4834H4808H4781H4752H4720
2058H4689H4663H4645H4636H4635H4641H4648H4655H4660H4662H4662H4662H4664
2045H4670H4682H4700H4723H4748H4776H4803H4829H4851H4865H4869H4864H4850
2032H4832H4817H4810H4814H4831H4857H4884H4905H4912H4901H4875H4836H4790
2019H4743H4702H4676H4671H4689H4724H4766H4804H4831H4847H4859H4871H4883
2006H4891H4893H4890H4887H4892H4906H4927H4946H4957H4957H4948H4935H4922
1993H4910H4900H4891H4884H4880H4881H4886H4898H4919H4951H4992H5036H5075
1980H5100H5106H5098H5085H5077H5081H5092H5103H5105H5099H5091H5090H5101
1967H5118H5128H5118H5088H5047H5012H4997H5005H5029H5057H5083H5103H5123
1954H5144H5167H5188H5203H5205H5191H5165H5136H5117H5117H5142H5181H5217
1941H5233H5222H5191H5158H5137H5135H5144H5155H5160H5158H5157H5161H5173
1928H5189H5202H5206H5194H5165H5124H5079H5042H5025H5031H5057H5091H5120
1915H5136H5140H5137H5133H5131H5133H5138H5146H5159H5176H5196H5215H5229
1902H5241H5252H5268H5291H5321H5353H5382H5401H5408H5400H5379H5349H5315
1889H5284H5257H5236H5215H5192H5164H5133H5102H5074H5051H5033H5020H5012
1876H5008H5009H5015H5024H5035H5049H5068H5092H5122H5159H5197H5231H5257
1863H5272H5278H5281H5286H5300H5321H5349H5380H5409H5437H5464H5488H5507
1850H5518H5520H5514H5505H5496H5491H5491H5496H5507H5526H5552H5583H5610
1837H5629H5639H5645H5654H5670H5693H5718H5739H5756H5773H5793H5819H5847
1824H5871H5884H5884H5876H5865H5859H5861H5867H5875H5879H5877H5873H5869
1811H5869H5871H5874H5875H5875H5878H5890H5912H5944H5976H6003H6020H6028
1798H6032H6034H6038H6044H6054H6069H6091H6123H6160H6194H6216H6215H6189
1785H6140H6075H6005H5939H5884H5840H5800H5759H5716H5674H5646H5641H5664
1772H5707H5757H5800H5830H5850H5868H5890H5916H5942H5964H5978H5986H5994
1759H6014H6055H6116H6181H6227H6241H6223H6188H6152H6130H6128H6143H6171
1746H6204H6233H6247H6236H6195H6126H6043H5963H5904H5875H5877H5899H5925
1733H5941H5942H5934H5924H5917H5914H5914H5915H5914H5915H5918H5927H5941
1720H5957H5970H5976H5972H5957H5931H5895H5852H5805H5762H5731H5717H5724
1707H5747H5776H5802H5816H5817H5803H5776H5741H5704H5674H5657H5655H5666
1694H5681H5696H5706H5713H5718H5723H5727H5732H5741H5755H5768H5773H5760
1681H5731H5694H5666H5659H5672H5692H5702H5692H5664H5630H5601H5587H5587
1668H5595H5604H5607H5603H5595H5592H5605H5641H5697H5759H5806H5822H5802
1655H5759H5715H5690H5692H5713H5737H5748H5739H5714H5685H5664H5661H5674
1642H5698H5721H5734H5725H5692H5633H5557H5472H5391H5322H5272H5246H5245
1629H5266H5299H5326H5331H5307H5259H5208H5174H5171H5194H5223H5236H5216
1616H5166H5099H5032H4979H4946H4933H4942H4979H5049H5149H5263H5365H5429
1603H5438H5399H5331H5263H5213H5189H5190H5208H5245H5302H5374H5451H5512
1590H5544H5546H5527H5501H5473H5440H5401H5369H5362H5395H5466H5556H5644
1577H5717H5764H5770H5709H5569H5385H5259H5330H5701H6349H7083H7621H7754
1564H7487H7005H6535H6214H6065H6029H6033H6036H6030H6030H6045H6077H6120
1551H6172H6228H6278H6310H6311H6283H6239H6199H6179H6183H6202H6223H6238
1538H6247H6257H6273H6295H6316H6323H6310H6273H6221H6164H6111H6067H6030
1525H5995H5962H5930H5906H5898H5913H5953H6012H6078H6137H6177H6195H6195
1512H6188H6189H6208H6251H6308H6364H6401H6411H6400H6391H6406H6456H6532
1499H6606H6648H6641H6589H6513H6439H6383H6351H6336H6329H6325H6327H6341
1486H6376H6431H6500H6567H6614H6626H6603H6556H6506H6473H6465H6482H6510
1473H6531H6530H6496H6429H6334H6228H6131H6058H6014H5998H6000H6016H6047
1460H6097H6164H6239H6302H6334H6325H6280H6215H6152H6110H6104H6138H6205
1447H6288H6363H6406H6404H6359H6289H6217H6163H6136H6137H6159H6191H6220
1434H6231H6217H6184H6149H6133H6143H6172H6200H6211H6204H6190H6186H6200
1421H6231H6277H6342H6431H6543H6661H6756H6803H6786H6715H6615H6519H6453
1408H6428H6446H6497H6568H6641H6699H6729H6723H6682H6616H6536H6452H6373
1395H6306H6257H6228H6220H6231H6260H6305H6360H6412H6443H6439H6400H6341
1382H6289H6264H6272H6305H6346H6382H6408H6415H6385H6294H6125H5891H5637
1369H5431H5335H5375H5527H5726H5911H6051H6148H6222H6287H6341H6363H6325
1356H6216H6049H5863H5714H5648H5688H5824H6018H6222H6394H6511H6573H6594
1343H6594H6586H6575H6560H6540H6523H6516H6530H6565H6616H6669H6714H6747
1330H6772H6797H6827H6859H6887H6905H6911H6907H6899H6896H6909H6948H7016
1317H7112H7220H7319H7389H7418H7401H7335H7218H7047H6837H6625H6457H6371
1304H6376H6456H6581H6721H6852H6961H7038H7080H7085H7053H6990H6906H6817
1291H6736H6673H6635H6632H6669H6744H6844H6948H7042H7121H7185H7239H7285
1278H7327H7367H7412H7466H7533H7611H7692H7766H7825H7863H7882H7888H7899
1265H7936H8009H8110H8213H8299H8358H8389H8399H8402H8415H8453H8523H8615
1252H8710H8788H8833H8842H8824H8793H8761H8733H8708H8685H8669H8676H8725
1239H8821H8946H9069H9171H9249H9308H9352H9383H9401H9405H9398H9383H9372
1226H9376H9404H9454H9507H9542H9545H9515H9464H9409H9363H9335H9326H9335
1213H9354H9375H9389H9387H9366H9326H9272H9206H9134H9063H9002H8958H8926
1200H8891H8839H8764H8683H8643H8698H8878H9147H9421H9624H9723H9730H9681
1187H9627H9611H9651H9720H9781H9810H9803H9765H9703H9626H9545H9472H9416
1174H9382H9370H9376H9391H9410H9428H9447H9469H9496H9525H9549H9560H9560
1161H9548H9527H9497H9462H9430H9414H9425H9467H9533H9610H9692H9778H9867
1148H9949I0007I0027H9999H9928H9829H9730H9660H9635H9641H9663H9690H9720
1135H9756H9802H9855H9911H9960H9993I0004H9991H9952H9896H9848H9840H9884
1122H9964I0056I0146I0226I0293I0347I0391I0425I0447I0452I0436I0398I0340
1109I0279I0250I0296I0417I0575I0737I0889I1028I1156I1279I1408I1553I1714
1096I1877I2020I2126I2197I2241I2272I2302I2343I2404I2481I2556I2598I2588
1083I2519I2398I2242I2079I1939I1846I1819I1870I2017I2278I2620I2935I3153
1070I3295I3409I3525I3653I3786I3903I3987I4033I4033I3967I3807I3556I3268
1057I3002I2747I2430I1957I1203H9964H7974H5072H1419G7399G3351F9424F5533
1044F1249E5686D8188D0399C5226C2852C1843C1197C0528B9891B9628B9978C0815
1031C1897C3083C4320C5582C6869C8272D0044D2482D5430D8141E0125E1524E2695
1018E3914E5317E6878E8447E9866F1110F2280F3473F4657F5700F6522F7171F7780
1005F8503F9405G0350G1053G1354G1299G1015G0641G0332G0259G0533G1134G1928
992G2765G3553G4246G4800G5149G5221G4993G4538G4024G3680G3711G4206G5077
979G6106G7064G7819G8356G8735G9033G9300G9554G9799H0033H0253H0450H0612
966H0731H0814H0890H1010H1224H1519H1819H2069H2277H2479H2715H3003H3323
953H3629H3886H4092H4261H4401H4509H4582H4621H4645H4698H4808H4922H4980
940H4988H4969H4935H4878H4789H4665H4520H4370H4226H4081H3925H3755H3587
927H3437H3263H2935H2416H1900H1518H1191H0698G9721G7931G5241G1996F8681
914F5424F1961E7922E3177D8051D3280C9618C7440C6701C7147C8481D0409D2698
901D5203D7801E0320E2561E4400E5846E6990E7952E8866E9935F1494F3682F5828
888F7157F7740F7923F7916F7826F7746F7830F8310F9354G0823G2320G3554G4486
875G5218G5857G6395G6580G5979G4429G2296G0105F8223F6874F6209F6283F7004
862F8144F9440G0700G1851G2918G3982G5146G6459G7798G8935G9769H0358H0807
849H1207H1624H2087H2560H2957H3225H3370H3426H3399H3235H2810H2071H1246
836H0626H0258H0063G9988H0023H0176H0450H0810H1176H1442H1512H1328H0887
823H0241G9498G8793G8277G8094G8325G8853G9304G9276G8610G7365G5697G3860
810G2233G1233G1111G1856G3275G5102G7046G8830H0270H1318H2037H2512H2778
797H2824H2637H2191H1366G9920G7543G4026F9447F4182E8717E3459D8759D4993
784D2517D1476D1704D2864D4633D6772D9093E1416E3583E5486E7064E8263E9042
771E9404E9374E8969E8127E6729E4695E2155D9479D7084D5274D4259D4212D5227
758D7212D9886E2923E6118E9410F2766F6047F9018G1506G3497G5081G6344G7317
745G7988G8340G8363G8029G7278G6047G4331G2196F9699F6817F3470E9601E5264
732E0656D6057D1729C7851C4549C1938C0132B9203B9129B9784C0966C2453C4039
719C5534C6759C7572C7952C8065C8209C8645C9483D0693D2164D3761D5353D6849
706D8200D9398E0453E1382E2200E2916E3534E4051E4466E4787E5053E5325E5661
693E6092E6605E7161E7715E8242E8742E9239E9754F0301F0873F1450F2009F2530
680F3011F3465F3904F4336F4761F5165F5543F5894F6222F6526F6797F7016F7164
667F7235F7244F7224F7219F7271F7404F7618F7892F8197F8502F8785F9035F9250
654F9438F9612F9787F9972G0175G0395G0625G0854G1067G1247G1378G1449G1456
641G1404G1296G1139G0929G0653G0281F9758F9009F7948F6503F4651F2441F0003
628E7540E5288E3473E2256E1704E1785E2378E3315E4410E5504E6478E7268E7849
615E8228E8429E8503E8533E8622E8874E9357F0066F0905F1708F2283F2462F2159
602F1408F0367E9296E8480E8159E8432E9230F0330F1440F2293F2736F2766F2513
589F2188F2002F2099F2530F3248F4147F5099F5997F6781F7441F8000F8497F8968
576F9433F9896G0355G0801G1226G1620G1977G2297G2585G2853G3105G3338G3548
563G3737G3915G4070G4132G3952G3345G2189G0538F8666F7003F5974F5819F6499
550F7733F9138G0401G1370G2049G2523G2867G3096G3173G3042G2681G2130G1496
537G0924G0548G0447G0621G1001G1490G2003G2494G2956G3394G3815G4212G4574
524G4894G5170G5406G5611G5793G5964G6138G6330G6546G6787G7044G7304G7557
511G7789G7992G8161G8297G8400G8473G8519G8532G8509G8447G8345G8212G8057
498G7887G7704G7499G7254G6944G6542G6021G5354G4509G3437G2072G0326F8105
485F5331F1972E8069E3751D9234D4801D0767C7425C5003C3607C3193C3561C4400
472C5362C6157C6640C6841C6931C7134C7630C8484C9646D0992D2394D3765D5067
459D6301D7476D8598D9671E0692E1656E2544E3327E3976E4470E4802E4978E5021
446E4966E4872E4809E4859E5088E5530E6171E6959E7822E8696E9540F0339F1089
433F1788F2430F3007F3516F3965F4363F4724F5051F5340F5587F5789F5957F6110
420F6269F6453F6671F6923F7203F7502F7806F8101F8373F8613F8821F9006F9180
407F9349F9511F9656F9777F9870F9933F9961F9940F9850F9675F9421F9123F8839
394F8625F8514F8503F8556F8619F8631F8531F8252F7713F6820F5483F3647F1327
381E8640E5810E3137E0931D9438D8767D8888D9661E0911E2463E4156E5826E7305
368E8456E9235E9735F0159F0727F1579F2703F3953F5139F6118F6854F7398F7835
355F8217F8551F8818F9005F9133F9254F9419F9656F9958G0285G0592G0838G1003
342G1096G1146G1192G1259G1317G1259G0915G0114F8787F7047F5196F3637F2726
329F2625F3254F4346F5576F6696F7592F8272F8798F9227F9589F9893G0152G0388
316G0623G0869G1118G1355G1570G1762G1939G2109G2279G2447G2607G2751G2871
303G2959G3010G3028G3020G2997G2973G2961G2966G2975G2941G2776G2372G1649
290G0617F9409F8261F7441F7142F7409F8128F9090G0081G0953G1650G2189G2614
277G2963G3257G3508G3722G3904G4061G4201G4335G4477G4636G4812G4990G5151
264G5280G5377G5459G5546G5653G5776G5901G6009G6083G6121G6134G6140G6159
251G6203G6272G6356G6440G6513G6570G6614G6647G6669G6674G6653G6597G6502
238G6368G6189G5933G5532G4873G3824G2283G0248F7866F5431F3321F1894F1366
225F1744F2838F4346F5955F7439F8692F9709G0541G1242G1848G2378G2840G3250
212G3626G3981G4313G4602G4824G4968G5048G5096G5137G5161G5125G4971G4670
199G4259G3839G3536G3445G3592G3922G4338G4742G5071G5302G5442G5508G5512
186G5463G5372G5253G5122G4986G4835G4639G4362G3982G3514G3013G2566G2260
173G2142G2204G2387G2611G2807G2938G3003G3020G3009G2977G2923G2842G2741
160G2639G2567G2550G2605G2729G2912G3138G3391G3656G3916G4153G4358G4536
147G4705G4888G5094G5314G5518G5680G5789G5852G5882G5878G5799G5563G5042
134G4093G2594G0506F7925F5091F2333E9935E7983E6286E4414E1882D8389D4010
121C9235C4821C1547B9964C0266C2301C5676C9905D4518D9125E3441E7280F0550
108F3235F5385F7085F8440F9547G0484G1298G2010G2618G3117G3512G3830G4111
95G4399G4726G5094G5479G5837G6123G6313G6411G6448G6453G6445G6429G6424
82G6480G6654G6952G7273G7427G7234G6633G5722G4683G3608G2330G0431F7488
69F3404E8561E3738D9834D7545D7091D8192E0267E2736E5207E7500E9566F1394
56F2981F4331F5474F6458F7333F8139F8913F9684G0452G1148G1592G1495G0502
43F8302F4753E9989E4451D8797D3714C9699C6896C5077C3758C2415C0716B8659
30B6546B4862B4050B4297B5473B7277B9465C2019C5149C9050D3362D7134D9803
17E1625E3095E4538E6044E7517E8732E9481E9696E9486E9066E8702E8636E9023
4E9867F1030F2293F3460
$$ === CHEMSPECTRA INTEGRALS AND MULTIPLETS ===
##$OBSERVEDINTEGRALS= (X Y Z)

##$OBSERVEDMULTIPLETS=
##$OBSERVEDMULTIPLETSPEAKS=
$$ === CHEMSPECTRA SIMULATION ===
##$CSSIMULATIONPEAKS=
##END=


$$ === CHEMSPECTRA PEAK TABLE EDIT ===
##TITLE=FSS48_ATR
##JCAMP-DX=5.00
##DATA TYPE=INFRAREDPEAKTABLE
##DATA CLASS=PEAKTABLE
##$CSCATEGORY=EDIT_PEAK
##$CSTHRESHOLD=0.93
##MAXX=4000.6047
##MAXY=0.9403300000000001
##MINX=649.8934
##MINY=0.24050000000000002
##$CSSOLVENTNAME=- - -
##$CSSOLVENTVALUE=0
##$CSSOLVENTX=0
##NPOINTS=36
##PEAKTABLE= (XY..XY)
654.7145673381297, 0.5863600000000001
675.9277036258995, 0.24050000000000002
710.6401084604317, 0.47091000000000005
728.9605443453238, 0.76424
762.7087157122301, 0.29964
801.278054417266, 0.7255
815.7415564316548, 0.7214200000000001
837.9189261870506, 0.73445
866.8459302158271, 0.6136600000000001
924.6999382733811, 0.67142
935.3065064172661, 0.7296100000000001
966.161977381295, 0.6262500000000001
1011.4809503597121, 0.48767000000000005
1026.9086858417268, 0.68503
1077.0488261582732, 0.5480900000000001
1106.9400636546761, 0.33193
1164.79407171223, 0.70447
1181.1860406618707, 0.65819
1215.898445496403, 0.62002
1225.540780172662, 0.58159
1250.6108503309351, 0.51704
1289.1801890359711, 0.6721900000000001
1347.034197093525, 0.2913
1381.7466019280578, 0.44212
1403.9239716834531, 0.41476
1428.0298083741009, 0.71111
1438.6363765179858, 0.7809400000000001
1482.991116028777, 0.6620900000000001
1500.3473184460431, 0.6774600000000001
1522.524688201439, 0.36701
1596.770665208633, 0.7368
1609.30570028777, 0.70259
1645.946572057554, 0.29628000000000004
2857.9880408633094, 0.7729400000000001
2975.624523913669, 0.75831
3050.834734388489, 0.79168
##END=


$$ === CHEMSPECTRA PEAK TABLE AUTO ===
##TITLE=FSS48_ATR
##JCAMP-DX=5.00
##DATA TYPE=INFRAREDPEAKTABLE
##DATA CLASS=PEAKTABLE
##$CSCATEGORY=AUTO_PEAK
##$CSTHRESHOLD=0.93
##MAXX=4000.6047
##MAXY=0.9403300000000001
##MINX=649.8934
##MINY=0.24050000000000002
##NPOINTS=100
##PEAKTABLE= (XY..XY)
3586.948542388489, 0.85377
2174.346512316547, 0.85362
3640.9456165755396, 0.8535600000000001
3186.791653323741, 0.85355
1968.0005502446043, 0.85335
3882.96821694964, 0.8532000000000001
3758.582099625899, 0.85318
3870.4331818705036, 0.8531700000000001
3243.681427913669, 0.8529100000000001
3839.5777109064747, 0.8529000000000001
3819.328808086331, 0.85284
3689.1572899568346, 0.8527300000000001
3566.6996395683454, 0.8525900000000001
2163.739944172662, 0.8525900000000001
3619.7324802877697, 0.8525800000000001
2220.6297187625896, 0.85245
3607.197445208633, 0.85243
3177.149318647482, 0.8523400000000001
3253.323762589928, 0.8520900000000001
2189.774247798561, 0.85189
3901.288652834532, 0.85187
3657.3375855251797, 0.8518000000000001
3711.33465971223, 0.8517600000000001
2211.9516175539566, 0.8517100000000001
3629.3748149640287, 0.85167
3675.658021410072, 0.8516400000000001
2510.8639925179855, 0.85157
2515.685159856115, 0.85135
3722.905461323741, 0.8513100000000001
2491.5793231654675, 0.8513100000000001
2669.962514676259, 0.8512900000000001
3669.8726206043166, 0.85128
2525.3274945323737, 0.8511700000000001
3853.076979453237, 0.8510300000000001
3168.4712174388487, 0.8510200000000001
2547.50486428777, 0.8509000000000001
2554.254498561151, 0.85077
2654.5347791942445, 0.8507500000000001
3744.1185976115107, 0.8504
2500.257424374101, 0.8502500000000001
2457.831151798561, 0.8500800000000001
2688.2829505611508, 0.8499800000000001
2539.7909965467625, 0.8499700000000001
3749.903998417266, 0.8494800000000001
2202.309282877698, 0.84933
3101.9391081726617, 0.8490300000000001
2714.3172541870504, 0.8489700000000001
2580.2888021870504, 0.8488700000000001
2566.789533640288, 0.8488000000000001
2697.92528523741, 0.8486300000000001
2606.3231058129495, 0.8481000000000001
3734.4762629352517, 0.8480900000000001
3648.6594843165467, 0.84745
2592.823837266187, 0.8467100000000001
2629.4647090359713, 0.84635
2777.9566630503596, 0.84211
3020.9434968920864, 0.84079
3278.3938327482015, 0.84072
3063.3697694676257, 0.83411
2748.0654255539566, 0.83357
2888.8435118273383, 0.8268800000000001
2804.955200143885, 0.8260400000000001
2926.448617064748, 0.803
1452.1356450647481, 0.79988
3050.834734388489, 0.79168
1438.6363765179858, 0.7809400000000001
2857.9880408633094, 0.7729400000000001
728.9605443453238, 0.76424
2975.624523913669, 0.75831
1596.770665208633, 0.7368
837.9189261870506, 0.73445
935.3065064172661, 0.7296100000000001
801.278054417266, 0.7255
815.7415564316548, 0.7214200000000001
1428.0298083741009, 0.71111
1164.79407171223, 0.70447
1609.30570028777, 0.70259
1026.9086858417268, 0.68503
1500.3473184460431, 0.6774600000000001
1289.1801890359711, 0.6721900000000001
924.6999382733811, 0.67142
1482.991116028777, 0.6620900000000001
1181.1860406618707, 0.65819
966.161977381295, 0.6262500000000001
1215.898445496403, 0.62002
866.8459302158271, 0.6136600000000001
654.7145673381297, 0.5863600000000001
1225.540780172662, 0.58159
1077.0488261582732, 0.5480900000000001
1250.6108503309351, 0.51704
1011.4809503597121, 0.48767000000000005
710.6401084604317, 0.47091000000000005
1381.7466019280578, 0.44212
1403.9239716834531, 0.41476
1522.524688201439, 0.36701
1106.9400636546761, 0.33193
762.7087157122301, 0.29964
1645.946572057554, 0.29628000000000004
1347.034197093525, 0.2913
675.9277036258995, 0.24050000000000002
##END=

##END=

