##TITLE=X8198
##JCAMP-DX=5.0
##DATA TYPE=LINK
##BLOCKS=1


$$ === CHEMSPECTRA SPECTRUM ORIG ===
##TITLE=X8198
##JCAMP-DX=5.00
##DATA TYPE=INFRARED SPECTRUM
##DATA CLASS=XYDATA
##ORIGIN=ComPlat
##OWNER=
##XUNITS=1/CM
##YUNITS=TRANSMITTANCE
##XFACTOR=1
##YFACTOR=8.6766439e-010
##FIRSTX=3997.453
##LASTX=373.96442
##MAXX=3997.453
##MAXY=0.931647543870783
##MINX=373.96442
##MINY=0.45197060974723685
##NPOINTS=2559
##XYDATA= (X++(Y..Y))
2559I69963383I70565019I71024729I70922029I70496186I70110048I69748023I69358382
2551I69284466I69804422I70509374I70726659I70422269I70158753I70304800I70732086
2543I71105377I71164387I70861714I70427008I70169676I70148724I70205466I70272513
2535I70389157I70505460I70619632I70980489I71689014I72236380I71979459I71101256
2527I70609739I71205398I72367520I72882530I72409081I71890498I72237411I73198461
2519I73783540I73637082I73237686I72942639I72647798I72382152I72527924I73030157
2511I73155388I72645325I72093975I71949714I71944768I71789104I71778593I72191179
2503I72604932I72330837I71459571I70809781I70957201I71887613I73227863I74527925
2495I75560281I76467337I77472008I78404550I78833210I78511990I77449751I76067048
2487I75100021I74998146I75517759I75901973I75804974I75746858I76161367I76600881
2479I76280897I75524697I75262967I75483480I75524903I75502783I75899706I76482243
2471I76734081I76873396I77375835I78065263I78693827I79313460I79456965I78264480
2463I76023770I74194683I73802088I74909803I77194959I80111290I81879787I80925400
2455I78668821I76734493I75615237I75371849I75909735I76963730I78197364I79330359
2447I80043350I80072133I79590440I78892013I77860481I76346295I74791097I74037370
2439I74489662I75697466I76998559I78426532I80062447I80714505I79534316I77902729
2431I77127020I76714091I75567288I73768496I72208559I71792058I72960912I75019991
2423I76626641I77386963I77594630I77404481I77241535I77590920I77992514I77421517
2415I75774199I74004671I72936250I72863295I73770969I75195645I76160749I76091641
2407I75496944I75005908I74483822I73603077I72620182I72076114I72398502I73834169
2399I76040051I77780589I78048776I77255480I76356599I75870510I76033181I76981522
2391I78311467I79011337I78757988I78373431I78664013I79759088I80902868I80944223
2383I80114244I79594837I79630421I79021023I77076185I74939891I73531016I73181287
2375I74287216I76458750I77471047I76060797I73996222I73063886I73270042I73835817
2367I74330906I74808203I75118844I74710999I73521948I72534725I72838290I74537748
2359I76926223I79110121I80148729I79556848I77902180I75940648I74124339I72885896
2351I72484508I72472281I72039087I71220580I70754687I71171394I72689221I75474549
2343I79335992I82790346I83253560I80294501I76397130I73600948I72608298I73354194
2335I75227932I77536101I79917500I81707705I81695820I80253970I78934879I78245176
2327I77753935I77161986I76560282I75956998I75334685I74809988I74481418I74420554
2319I74875387I75925741I77012298I77812119I79104763I81924508I84978435I84619295
2311I81156767I77882739I76143162I75422821I75018617I74881638I75125713I75347668
2303I74989078I74155114I73648072I74161915I75372055I75728448I74638387I73270179
2295I72705777I73452634I75311672I77155528I77913927I77914407I77814868I77496189
2287I76929863I76870923I77853474I79054203I78959266I77270250I75085801I73491515
2279I72755444I72547021I72558081I72494538I71851411I70558973I69535410I69846395
2271I71734422I74238167I75514392I74968607I73832246I72983238I72416843I72130933
2263I72263515I72508552I72400906I72188019I72559387I73748987I75593049I77785054
2255I79252184I78617643I76337914I74085732I72757917I72237342I72093975I72092601
2247I72178951I72327539I72491584I72660850I72999587I73740331I74659614I74869067
2239I73843306I72447138I72001785I72782097I73873600I74210689I73557326I72512399
2231I71851892I72062443I73098028I74291475I74854916I74678299I74358453I74467542
2223I74900667I74931786I74046301I72710311I71965308I72161296I72620251I72655079
2215I72337569I72167341I72458954I73160884I73905818I74165213I73722058I72980765
2207I72515421I72475166I72560211I72499209I72424537I72615992I73038469I73421446
2199I73706464I74109295I74689978I75093358I74851481I73921138I72787456I72011265
2191I71909664I72520642I73503812I74237961I74318404I73811912I73019646I72313594
2183I72075015I72340797I72674314I72761351I72852854I73283643I73925191I74365460
2175I74400701I74252113I74413204I75174006I76113761I76262761I75120492I73315724
2167I71927594I71315723I70729063I69161501I66563918I63976158I62389704I61833751
2159I61768353I61992644I62786901I64335023I66298066I67972107I68864805I69146594
2151I69403652I69946209I70582879I70967025I70890841I70390051I69782096I69511916
2143I69866660I70823382I72052757I73052138I73435598I73180875I72559112I71896406
2135I71423025I71195094I71094661I71001853I70978634I71169539I71540495I71848182
2127I71875660I71629455I71378099I71490278I72010578I72488493I72578484I72579995
2119I72881019I73258157I73270729I72941265I72630486I72632479I72994435I73395136
2111I73434361I73305969I73603009I74261593I74460054I73760734I72610702I71627875
2103I71149411I71418079I72397471I73445421I73842962I73536168I72901353I72177852
2095I71535480I71159166I70953629I70704814I70614205I71117262I72205467I73336745
2087I73954455I73950333I73719104I73745071I74094662I74389710I74219001I73539878
2079I72790272I72540152I72936868I73650409I74258364I74411555I73899567I72957821
2071I72246753I72226419I72751940I73289963I73351721I72825582I72046300I71478669
2063I71334614I71521535I71827711I72096654I72274575I72314487I72133612I71758809
2055I71425155I71434292I71912344I72674452I73325341I73596002I73575050I73516657
2047I73513979I73498660I73445215I73359071I73136017I72749398I72584392I73137665
2039I74227863I74994710I74903002I74301779I73783540I73407845I72806484I71866936
2031I71092531I71145564I72021363I72921961I73177852I73133818I73684344I74921138
2023I75802914I75492410I74515422I74007350I74267432I74667720I74631449I74188638
2015I73780037I73847839I74486982I75270661I75517072I74941815I74019028I73455863
2007I73414714I73570858I73742461I73991070I74245793I74292368I74072886I73699526
1999I73223123I72585834I71859448I71429071I71706807I72643058I73721715I74383527
1991I74301642I73526001I72495568I71602733I70859035I70309609I70299442I70871332
1983I71465411I71621006I71469807I71305762I71094798I70628699I69904511I69204848
1975I68864118I68996357I69380571I69619081I69551485I69469669I69656108I69890360
1967I69797896I69371709I68744244I67946071I67235553I67050556I67433052I68019094
1959I68482033I68566804I68107299I67331590I66677128I66261450I66009820I66036061
1951I66346221I66477842I65920103I64717107I63393139I62375552I61639343I60880463
1943I59926695I58831345I57647859I56354803I54948193I53390180I51640712I49890488
1935I48451179I47245230I45786206I43862663I41915970I40504758I39652659I38950179
1927I38074723I36933485I35466080I33706650I32033709I30981912I30685697I30780359
1919I30972432I31515401I32990500I35679860I39212801I42817529I45851467I48115808
1911I49827906I51381661I53002051I54575590I55861226I56755230I57260897I57398082
1903I57243861I56893445I56458465I56246471I56607740I57360300I57838077I57731118
1895I57384618I57174410I57193644I57589536I58569889I59928138I61018541I61401519
1887I61280340I61102625I60948884I60655554I60353638I60364698I60653562I60935901
1879I61197837I61573189I61911995I61931642I61616330I61205599I60959188I60937824
1871I60930130I60787312I60700550I60715800I60290987I58999374I57312007I56003495
1863I55173241I54468425I53852570I53610487I53895985I54614403I55556218I56519467
1855I57426728I58346355I59370811I60522560I61751660I62989759I64217142I65430098
1847I66537401I67426046I68096102I68534517I68601358I68278076I67827159I67506008
1839I67389844I67571062I68141646I68850791I69146044I68696501I67616127I66065600
1831I63821662I60384482I55470005I49290776I42450215I35779881I30230795I26615282
1823I25275239I25979436I28087564I30836345I33674570I36462439I39293038I42113675
1815I44631160I46598736I48038319I49140333I50125976I51269619I52771921I54432154
1807I55700479I56274430I56477631I56890422I57726790I58660019I59266531I59581912
1799I60010435I60652257I61053920I60764986I59853809I58780991I57991886I57614610
1791I57419584I57170837I57018677I57310976I58053574I58857175I59376856I59567830
1783I59551137I59443422I59335982I59297925I59352126I59490066I59718479I60029944
1775I60346699I60569685I60668332I60685712I60700275I60772337I60823996I60603758
1767I59908697I58841443I57785731I57120140I56906978I56837321I56559241I56052749
1759I55597779I55455991I55685503I56124880I56416355I56146381I55075144I53252583
1751I50948878I48535124I46435447I45117661I44960829I46003078I47836698I49802695
1743I51373211I52500504I53577238I54894955I56222633I57126117I57544678I57796997
1735I58157099I58649165I59170083I59659676I60126255I60551618I60859305I61008168
1727I61041280I61071506I61286179I61831003I62610078I63379056I64041350I64672593
1719I65318811I65937827I66436075I66665105I66499825I65978494I65314621I64793222
1711I64641268I64895440I65370263I65794734I66011606I66085247I66229096I66603486
1703I67158546I67643193I67775981I67492200I67031322I66689218I66511915I66329803
1695I66029192I65698629I65551277I65706048I66082774I66624507I67484094I68699867
1687I69842891I70368206I70234525I69873255I69656452I69617708I69609327I69575254
1679I69635156I69868996I70082639I69960498I69479836I68968329I68696844I68624577
1671I68640376I68815138I69230471I69733047I70066564I70174485I70191590I70186781
1663I70107438I69980557I69953972I70080234I70265025I70496804I70889674I71423850
1655I71903413I72212749I72381190I72427010I72403448I72527443I72998007I73722676
1647I74400151I74824552I75003847I75026174I74887202I74496394I73909459I73438139
1639I73320533I73412860I73490142I73657278I74062307I74430790I74378100I74024662
1631I73851961I74055231I74394793I74597651I74607749I74472349I74229993I73964416
1623I73806553I73829154I74045614I74446452I74875249I75008038I74691352I74171533
1615I73799547I73672116I73672048I73710242I73866662I74300680I74930000I75319229
1607I75176479I74827987I74827987I75223329I75532734I75352821I74709350I73862884
1599I73011060I72251287I71709074I71585283I72030225I72942158I73950883I74749743
1591I75387855I75989765I76340319I76164389I75685925I75414234I75496532I75748713
1583I76137804I76718075I77233978I77340525I77181220I77242153I77616199I77926841
1575I78014565I78115136I78229445I77933780I77128393I76482862I76702069I77610636
1567I78395139I78617575I78548948I78552383I78631795I78693277I78855467I79308650
1559I80009689I80662365I81050838I81313873I81692728I82120702I82402491
1552I82621080I82927119I83197298I83401049I83898679I84788904I85379136
1545I84944706I83700630I82411696I81379203I80418565I79519272I78885831
1538I78521950I78285913I78179709I78257954I78519958I79084979I80103733
1531I81341764I82192420I82221204I81587007I80970396I81070760I81988257
1524I83149005I83899435I84003852I83638873I83275680I83402972I83920662
1517I84055923I83375082I82569077I82685585I83795430I84935294I85320951
1510I85170508I85199154I85676038I86275956I86634959I86681671I86457724
1503I85908847I85009760I84050290I83607548I84033872I85031056I85889131
1496I86053726I85418086I84378242I83738962I84195444I85678305I87363200
1489I88369177I88379550I87747963I87149144I86999182I87149213I87241059
1482I87269842I87550189I88158213I88677139I88621701I88006190I87366840
1475I87186377I87358460I87362238I86958034I86445428I86153747I86080654
1468I86193933I86612906I87252119I87706471I87685656I87242157I86563034
1461I85820024I85114864I84391569I83555270I82716842I82139386I81999798
1454I82340802I83081615I83946079I84553485I84751603I84775234I84933096
1447I85180812I85263315I85258094I85549913I86185484I86735529I86905619
1440I86826207I86726804I86734773I86952881I87422896I88070076I88723989
1433I89074405I88782861I87912558I87019791I86578285I86577873I86830054
1426I87289489I87926915I88581308I88947249I88482524I86610159I83346230
1419I79366768I75154634I70532457I65266946I59572982I53763540I47907317
1412I41991947I36032406I30070254I24194384I18370859I12623656I07801575
1405I05214159I04918492I05546645I06416467I08532701I12958340I19420802
1398I26777266I33691950I38756320I40735369I39038246I34398964I29205721
1391I25953538I25183874I25889720I26949554I27841703I28741614I29921391
1384I31190403I32337206I33636650I35239110I36635277I37451723I38223724
1377I39884300I42856823I46911850I51460041I55652941I58730980I60601490
1370I61790542I62869130I64226141I66172010I68825717I71891804I74731607
1363I76810333I78207256I79577113I81394659I83372884I84834793I85495506
1356I85701043I86030575I86775578I87772968I88735118I89611329I90483418
1349I91269501I91784030I91940862I91715060I91084710I90187547I89349393
1342I88847091I88774480I89091372I89572241I89822293I89734568I89837543
1335I90651310I91712930I91892020I90825384I89365261I88397823I87994030
1328I88009693I88577461I89578630I90597247I91764040I93577670I95651381
1321I96830540I96838577I96665396I97039923I97498603I97301585I96522372
1314I95803473I95558711I95790009I96225607I96425442I96372890I96879107
1307I98480880A000273215A000967108A000650628A000386494A000656330A001172989
1300A001744329A002582552A003720974A004503209A004255013A003477242A003358948
1293A003956943A004125728A003274316A001912633A000698097A000012035A000062663
1286A000598831A000779569I99772631I97508702I94856093I93066988I92933237
1279I94424273I96970404I99850944A002611953A005209262A007281256A007513034
1272A004903017A000793515I98124282I98104841I98970130I98665190I97478201
1265I97027077I98307630A001900405A007793656A013411986A015014378A012608592
1258A009710604A008913736A010100038A011692606A012410542A011936956A010413565
1251A008017259A005363140A003304885A001808284A000223685I99066441I99970062
1244A003246837A006962165A009043776A009140500A008218330A007326938A006789671
1237A006221215A005461649A005133147A005641082A006223963A005944166A005075306
1230A004537008A004443170A004068229A002982291A001644171A000950759A001393570
1223A002573827A003662170A004268339A004521895A004521070A004363208A004444543
1216A004905284A005084099A004422698A003452099A003023096A003100310A003158014
1209A003138230A003121880A002725301A001823741A001245668A001687381A002485828
1202A002614907A002433345A003077434A004503278A005633182A006196004A006960242
1195A008219842A009234338A009224926A008103816A006316702A004770847A004775862
1188A006974530A009841675A010293691A007011214A002617105A001305640A004231313
1181A008570876A011385744A012694943A014085546A015587436A015533922A013495520
1174A011424625A010944993A011354144A011707994A012715070A014780057A016425589
1167A016487484A016005310A016247325A016396943A014889970A012101551A010244505
1160A010980784A013927203A016991091A017797027A016026400A014341574A015188521
1153A017294862A017666711A016056008A014870117A015704218A017790226A019144558
1146A018460488A016312035A014687387A014906526A016168256A016794690A016069128
1139A014036909A010819967A007198134A005142902A006795716A012781293A021150329
1132A027899525A029904266A027716039A024334709A021582286A019228504A017272742
1125A016641087A017114674A017098393A016103614A015550065A016627829A018552677
1118A019443383A018243822A015739871A014097980A015181857A018861051A023038218
1111A025728678A026813518A027217860A027156789A026345495A025192441A024328870
1104A023624604A022625222A021455474A020525681A019839825A019323922A019331409
1097A020172861A021527399A022712602A023340823A023571159A023851299A024568137
1090A025736441A026882007A027509953A027724283A028201373A029277763A030307097
1083A030589504A030468050A030704912A031331690A031814207A031991373A032229403
1076A032765159A033376206A033833237A034319464A034937586A035197049A034817575
1069A034629281A035458710A036758360A037261830A036651195A035743728A035201858
1062A034899460A034568691A034491409A035282231A037108776A039023662A039257091
1055A037310810A034894308A033646797A033675512A034089403A034044063A033440780
1048A032873011A032955514A033761450A034979559A036387473A037906949A039463658
1041A041085628A042727794A043705400A043188947A041687400A040529538A040370301
1034A040737479A040657105A040027167A039805968A040625024A041976952A043173764
1027A044506939A046321187A047952568A048594665A048495400A048447931A048837160
1020A049535793A050273858A050961294A051618847A052018930A051741469A050902903
1013A050311434A050571722A051590682A052904758A053976889A054394420A054327236
1006A054427875A055092023A056304911A057727870A058457966A057921797A057120121
999A057225705A058172811A059175628A059994753A061033704A062253461A063134825
992A063780288A065041124A067472808A070495273A072502831A072699094A072095810
985A071648327A071491496A071686041A072384331A073299287A073741823A073569397
978A073100963A072318796A071381239A071170069A072255664A073573038A072977654
971A069935199A065496713A060148356A053808379A045898229A034731568A019434727
964A001936951I81813015I50624430H99901660H41383805G90859840G45476084
957G01061210F59896870F25039053E99124016E84687450E81403049E87113569
950F00391380F18350034F35643235F50180853F63525024F77365451F92251424
943G08185003G25641562G43972958G60478977G74957929G90892539H08783390
936H23235414H33106340H41676723H49472220H56264419H63222175H70574037
929H76829999H81161801H84374346H87046464H89270481H92308059H97167373
922I03631895I11221306I19515464I27335005I33521653I38737291I44088877
915I48827562I51925180I54607533I58511087I63594142I68041764I70797484
908I72869547I75569143I79750501I85894215I91736630I93110815I92586531
901I93718152I96732511I99322126I99864201I99652894I99874300A000698303
894A001927952A002651659A000434168I94026664I86768571I81099681I76194203
887I70144739I61661188I50721291I36583893I17357944H94649064H73577130
880H56355716H42714780H34170158H32522497H36282064H43537478H53398992
873H64832604H76500673H87545949H98031631I08415438I18644199I28225230
866I37054595I45454406I53615227I61377475I68339490I74265646I79361410
859I83921555I88052696I91857122I95403734I98564483A001223686A003446604
852A005314091A006438705A005158221I99962436I92632969I84970398I76173801
845I65905540I57144939I52537188I51299158I51686463I53022110I56609458
838I65561856I77943466I85283649I88844206I92428738I96533363A000400782
831A003105118A004232342A004426270A004048239A001745908I93994789I72772068
824I33242956H94114064H70022618H54645816H37642648H12774256G82518900
817G51796277G21978992F95784571F78942768F73808604F78269209F89148173
810G01731678G13000626G23058817G30965532G35299669G37066037G38419338
803G41166197G47967258G62295698G80028825G92973051H02618861H12413948
796H23566251H36093976H49070763H60338063H68677766H75102720H80348789
789H82122851H75399003H59161103H38982279H20820767H08205524H02691541
782H03876264H09830791H18623610H28956650H39736967H49589002H56630909
775H60457044H63231655H67482670H74718437H84521973H94568622I03462973
768I11873226I20723062I28387695I29723204I24121566I15955525I08632858
761I05432748I09046406I18111396I26299351I26951134I16236147H93306479
754H61257552H25033038G89059949G61043929G49406360G52450876G64005529
747G80527348G98841570H15671695H30268803H43510206H55390681H65490432
740H74869567H85059652H94928655I02162704I07465242I12626060I18090650
733I23348467I27900918I31708573I35165193I38516435I41477624I44027532
726I46786687I50122541I53748426I57369093I60900591I64099397I66903754
719I69724254I72984680I76678781I80202243I83026315I85530266I88346919
712I91525598I94783620I98015400A001182950A003933998A005569845A005783007
705A005261402A004767825A004227053A003319792A002159594A000446328I96740205
698I89854305I80069866I67476812I50698896I27869731H98375796H63582414
691H25688049G86392227G46824921G08233571F73011942F45063106F28242256
684F24516967F33273789F50927710F72336528F94102149G15280356G35695355
677G54913748G72274201G87265897G99633218H09039625H14880185H16475089
670H13096369H03917275G88672781G68541975G45686224G22065686F99411693
663F79672796F64497821F54538621F49690023F49688375F54203249F62530244
656F73474537F85479077F96649996G04775233G07748168G04331666F94709692
649F80403510F63665369F46959033F32812636F23448683F19971179F22011298
642F28287801F37486541F48852900F62226472F77675542F95266538G15104358
635G37139060G60555504G83300928H02250585H13917486H15426864H05496722
628G85068946G57421134G27522857G00375217F79261447F65176326F57322438
621F54006024F53529689F54722931F56971266F59945781F63360567F66926343
614F70368058F73429336F76027606F78431124F81101731F84370263F88355495
607F93047330F98340250G04057846G09971911G15831088G21482461G26918199
600G32131158G37043917G41616427G45897050G49993638G54049558G58093113
593G61881121G65076698G67577215G69482279G70781792G71225152G70379511
586G67536753G61678126G52256606G40598841G30180067G24724614G25754291
579G31995484G40844564G50153287G58935801G67004569G74397580G81169994
572G87391472G93112365G98423696H03582179H08899623H14467188H20129621
565H25726656H31182453H36358454H41000690H44746793H46851830H46069663
558H41503541H33780930H25005903H17672932H14022728H15834984H23686331
551H36253487H50925405H65302962H78167226H89385202H99184548I07515183
544I14062964I18740853I21877147I23834144I24619471I23967002I21724711
537I17989943I12702175I05167446H94183721H78592314H57641970H31175309
530G99942691G65795046G31365958F99365256F71987005F50778572F36711587
523F29965276F29594527F33748613F40459752F48265622F56188206F63336935
516F68602652F70787513F69446508F66040172F63914115F66230390F73577993
509F83897363F94612763G04331666G12750644G19901571G25928228G31152865
502G35855072G39912229G42886676G44673446G45973234G47841477G50696187
495G53983679G56897880G59253518G61537575G64272068G67554271G71175554
488G74958547G78820677G82582993G85943577G88752193G91163817G93437226
481G95740174G98176048H00783867H03452619H05965432H08147406H09982264
474H11646482H13374998H15263369H17256569H19221947H20950601H22324305
467H23526545H24826882H26239125H27651161H29081951H30578826H32101324
460H33683106H35500241H37604796H39738891H41655908H43533631H45821329
453H48825040H52088763H52821401H45588451H27350824H03965568G87566783
446G85110713G92504685H01320036H07586302H12494871H18052887H24558627
439H31034140H36494746H40587899H43104696H43012919H38585906H29384142
432H18392724H11160735H11577511H18664209H28044511H35730714H39789794
425H39529232H34503538H24342304H09301835G91265761G74005260G61635122
418G56333753G57450123G62552345G69145465G75701695G81713033G87244532
411G92517462G97708919H02874615H07915217H12642567H16850029H20171113
404H21868372H20915292H16367718H07833125G96153309G84074166G75709732
397G74272348G79905723G89924138H01050062H11194671H19532795H25763477
390H29583291H30046298H24400627H08396635G80949757G50025994G30425792
383G31596020G47917248G62728068G61532354G41998786G14446942F93916122
376F89200244F97147902G06903832G09369932G03452364F95541526F94037163
369G03219829G20973771G41561196G60175411G75179128G87018936G96172750
362H02692709H07002116H09866032H11347313H10205661H04158878G91035357
355G71331218G50438716G36776897G35796406G45275631G56366795G58528849
348G44296651G13499768F76251622F49482426F45792446F64625113F95116164
341G26047484G52003050G72511476G88624900H01073625H10461209H17730293
334H23718549H28652398H32503399H35479838H37946076H40244833H42735320
327H45657078H48681741H50784373H50935297H48217222H39965243H21548046
320G92414968G62538606G47374622G53943149G75027723G97990021H15726445
313H28048839H36776329H42883565H46885491H49453672H51415547H53587149
306H56314361H59164263H61504856H63330096H65159526H67211942H69102511
299H70571495H72096055H74206999H76537494H78203291H78796614H78523000
292H77750382H76639988H74886123H71165299H61287229H37523873G95633971
285G45566831G07342247F89755853F80695259F65818011F48413317F41206678
278F45447800F50044355F48805981F46698609F46715783F39895830F15261759
271E75892639E38989137E20904874E25785998E47590571E78233163F12127801
264F46008356F77711951G05961467G30389452G50970900G67705813G81056166
257G91971058H01006097H07540689H09495557H03472953G86310960G58530085
250G26949112G02310301F92409767F97357492G11365674G27802791G42321587
243G52798957G57955241G56589781G48322208G35176773G21929600G13979950
236G14084573G20678998G28975355G33675364G31316566G21132732G05068288
229F87606165F74523174F70166024F75331240F87748158G04031810G20976175
222G35933866G47077789G53469425G54327157G48171215G33719604G12919841
215F92774265F82162389F85224492F97660027G11451543G23409301G37699478
208G57127667G74901942G86339881G93318864G98673473H02777960H02568096
201G95024024G83014400G75082405G77187167G86862791G97443273H05475152
194H11645520H17103034H21882112H25836088H29093148H31714844H33676375
187H35157725H36510889H37926154H39360791H40812877H42340733H43782240
180H44849699H45511237H45915647H45916953H44993273H42815488H39879511
173H37376521H36231848H36332212H36590645H35201759H30090057H20307955
166H07323336G94469101G85162372G81474453G83570903G90021411G98682472
159H07564251H15376785H21710511H26765058H30876827H34442260H37985782
152H41700835H45129565H47814529H49973354H51916406H53177930H53017458
145H51559189H49854510H49031813H49541534H50891332H51732508H50274170
138H45329400H37339700H27944422H18592490H10269412H04361461H02471029
131H04884233H10215005H17000609H24811357H33360376H41237346H46407232
124H48275956H48506636H49074748H50431003H52215232H54358394H56601646
117H58316217H59433961H60386493H61165569H61547860H61801415H62369595
110H63255493H63861799H63227602H60937294H57549438H53376735H47757580
103H40500724H33491722H29425978H29168507H31552241H35088068H38912140
96H42367250H44752770H46048230H46793164H46699257H44934470H42155874
89H40001033H38466581H35647112H29832861H20974232H10353770G99639950
82G89980606G81450685G73440239G65992753G60793602G59923093G63559489
75G69643507G75680949G80785025G86006777G92715923H00825222H08977524
68H16106537H21771100H26096444H29870438H33248539H35017037H34992031
61H35949029H40458476H46527587H50696580H52646708H53064032H51585912
54H48675489H46653300H47481630H50677620H53835003H54561046H52339845
47H49001930H47341285H49286330H54365607H59811718H62789394H62542639
40H60782729H59840501H60406621H61376533H61660107H61575612H62460342
33H65859052H71512761H76107735H77007165H74202396H69747424H65868120
26H62470715H58298356H54234948H53097282H56196754H61445366H64536183
19H62016294H57001316H59026254H68712389H76691441H78449702H77128550
12H75795445H73393163H69109449H66173128H67493868H70622811H72156507
5H72061501H71473467H69702428H63874851H53559122
##END=


$$ === CHEMSPECTRA PEAK TABLE EDIT ===
##TITLE=X8198
##JCAMP-DX=5.00
##DATA TYPE=INFRAREDPEAKTABLE
##DATA CLASS=PEAKTABLE
##$CSTHRESHOLD=0.93
##MAXX=3997.453
##MAXY=0.931647543870783
##MINX=373.96442
##MINY=0.45197060974723685
##$CSSOLVENTNAME=- - -
##$CSSOLVENTVALUE=0
##$CSSOLVENTX=0
##NPOINTS=48
##PEAKTABLE= (XY..XY)
383.88014324475216, 0.7526935378069605
398.0454621657841, 0.7435895240763373
406.54465351840327, 0.7411892450731017
437.70835514467353, 0.7352078591713411
447.6240783893959, 0.734610919085987
481.62084379984344, 0.6593582069347582
517.0341411024524, 0.7231910865391796
559.5300978655196, 0.6962755358699573
603.442586520719, 0.6780575545628287
654.4377346364345, 0.6725114021340579
675.6857130179824, 0.5918880131326277
694.1006276153244, 0.5814791944126854
708.2659465363563, 0.6194949777889805
723.8477973494914, 0.6007792981140971
753.594967083659, 0.45197060974723685
767.7602860046909, 0.5563522011307964
823.0050297967159, 0.6484703454991105
859.8348589913994, 0.560331108725198
871.167114128225, 0.6384243397761823
896.6646881860825, 0.6021913316717256
905.1638795387021, 0.5979945092981112
916.4961346755276, 0.6337644492559469
934.9110492728691, 0.6718085445212877
964.6582190070367, 0.6562438644331556
983.0731336043782, 0.703815285193391
1004.3211119859261, 0.6812126078776101
1097.8122168647378, 0.5760546356038648
1111.9775357857698, 0.5462767512167935
1157.3065563330724, 0.706298533736256
1195.552917419859, 0.6288177401242955
1250.7976612118841, 0.567044439820739
1284.7944266223608, 0.5379269148446159
1306.0424050039092, 0.5637114675844662
1341.455702306489, 0.5418711332167051
1434.9468071853007, 0.6502332122115204
1451.9451898905604, 0.7883883744705266
1481.6923596247066, 0.6964668662799249
1524.1883163878028, 0.5846397313664116
1563.8512093667127, 0.8257444543901525
1616.262889374531, 0.7237797412972736
1721.0862493901482, 0.5044627218547251
2337.2776224550566, 0.8050552052500561
2362.775196512914, 0.785422091088098
2848.6456355043097, 0.8200449388097918
2953.468995519946, 0.803439382489484
3005.880675527764, 0.8276615779484742
3090.872589053956, 0.8077716273180965
3429.423711266619, 0.8346867606407472
##END=


$$ === CHEMSPECTRA PEAK TABLE AUTO ===
##TITLE=X8198
##JCAMP-DX=5.00
##DATA TYPE=INFRAREDPEAKTABLE
##DATA CLASS=PEAKTABLE
##$CSTHRESHOLD=0.93
##MAXX=3997.453
##MAXY=0.931647543870783
##MINX=373.96442
##MINY=0.45197060974723685
##NPOINTS=173
##PEAKTABLE= (XY..XY)
3986.1207448631744, 0.8410136149283657
3979.0380854026585, 0.8417722026249057
3967.7058302658324, 0.8417635008187384
3952.1239794526973, 0.8421635071174942
3945.0413199921813, 0.8432747760939662
3933.709064855356, 0.8437013667619673
3920.960277826427, 0.8431776801104033
3913.8776183659106, 0.8423370764373986
3894.046171876466, 0.845971171600221
3888.380044308053, 0.8466208023409866
3881.297384847537, 0.8462009473516451
3877.0477891712276, 0.8464090271549973
3858.6328745738856, 0.8449333946652463
3845.884087544957, 0.8462954203857571
3828.8857048397185, 0.8451375404782543
3809.054258350274, 0.8431893632114146
3799.138535105551, 0.8479176803484386
3789.2228118608286, 0.8441188374095651
3775.0574929397967, 0.8434358284873804
3763.725237802971, 0.8467280907781389
3755.226046450352, 0.8488997862008221
3746.7268550977324, 0.8499595566927545
3738.227663745113, 0.8443947477442699
3729.728472392494, 0.8442928830772195
3718.3962172556685, 0.8438337489209428
3697.1482388741206, 0.842289273335496
3682.982919953088, 0.8438975855931082
3658.901877787334, 0.845470015589872
3639.0704312978887, 0.8458700817574708
3631.9877718373727, 0.844799760466556
3623.4885804847536, 0.843982164650181
3610.739793455825, 0.8475961135135319
3599.4075383189993, 0.8438444177222821
3592.3248788584833, 0.8412313501010499
3579.576091829554, 0.8434833929815758
3573.9099642611413, 0.8435329244709434
3556.911581555903, 0.8434501336701784
3541.329730742768, 0.8433713358609362
3532.8305393901483, 0.8432412790425259
3524.331348037529, 0.8454161327635886
3515.83215668491, 0.8433396860669821
3508.749497224394, 0.843514982906687
3497.4172420875684, 0.8437820716975387
3493.167646411259, 0.8437381427171374
3476.1692637060205, 0.843291405749665
3464.8370085691945, 0.8434348749242159
3452.0882215402657, 0.845323865332356
3430.840243158718, 0.8344921513270497
3409.5922647771695, 0.8412109651938713
3391.177350179828, 0.8424835841726432
3382.678158827209, 0.8428301857281946
3368.512839906177, 0.8439168373305935
3361.430180445661, 0.8445029298757439
3351.514457200938, 0.8426317612941743
3334.5160744956997, 0.84216738210666
3326.0168831430806, 0.8448613924035066
3316.1011598983578, 0.8438384577355873
3304.768904761532, 0.8435662427835194
3294.85318151681, 0.8427924553421955
3283.5209263799843, 0.8428710145437305
3263.6894798905396, 0.8438768432082009
3249.524160969507, 0.8425824085436711
3242.441501508991, 0.844353560583341
3233.942310156372, 0.8451114931932665
3226.859650695856, 0.8449142617977824
3215.5273955590305, 0.8445972840398345
3199.945544745895, 0.8428744123174817
3184.36369393276, 0.8418942734602703
3170.198375011728, 0.840648893937358
3163.115715551212, 0.8411743089763869
3151.7834604143864, 0.8390753307709008
3139.034673385457, 0.8381723212043098
3093.7056528381545, 0.8075228375692298
3063.9584831039874, 0.8297010109498677
3055.4592917513683, 0.8305061505762599
3039.877440938233, 0.8332646534995508
3020.045994448788, 0.8335656566884145
3007.297207419859, 0.8274138615004579
2977.5500376856917, 0.8393697188864552
2954.8855274120406, 0.8028283758290392
2906.7234430805315, 0.830371026597812
2893.974656051603, 0.8323486489233908
2862.810954425332, 0.8290151396028604
2847.229103612197, 0.8199088612681793
2796.2339554964815, 0.8369848773680465
2770.7363814386235, 0.837774459771926
2752.321466841282, 0.8412659213210051
2740.9892117044565, 0.840441052741713
2725.4073608913213, 0.841594521443457
2711.2420419702894, 0.8437198445428167
2694.2436592650506, 0.8445155665399199
2682.911404128225, 0.8449766676913688
2671.5791489913995, 0.8449372687867477
2657.413830070367, 0.8448205635879708
2647.4981068256448, 0.8458235306952829
2633.332787904613, 0.8430099519071723
2619.167468983581, 0.8463321963409273
2609.2517457388585, 0.8478653471707558
2596.5029587099298, 0.8472594068026842
2589.420299249414, 0.8490520760515617
2548.3408743784203, 0.8487317005198625
2535.5920873494915, 0.8511530802533984
2525.676364104769, 0.8531532930890352
2518.593704644253, 0.852540198828068
2511.511045183737, 0.8547973678698101
2497.3457262627053, 0.8534412431348157
2487.430003017983, 0.8535552663829632
2476.097747881157, 0.856384043180529
2461.932428960125, 0.856546465616015
2453.433237607506, 0.8555870691437111
2433.6017911180606, 0.8520462557117933
2419.4364721970287, 0.8548733631230726
2410.9372808444095, 0.8561477104893096
2395.3554300312744, 0.8560184883640425
2361.3586646207973, 0.7851655513608998
2341.527218131352, 0.8027491016720468
2272.1171554182956, 0.8579244060367672
2266.451027849883, 0.8587574402056335
2255.118772713057, 0.8572472373635917
2240.953453792025, 0.8647710728544484
2232.4542624394057, 0.8638108416890012
2226.7881348709925, 0.8645172758143871
2185.70871, 0.8615328113923304
2170.1268591868647, 0.866020028022312
2164.460731618452, 0.865084890578688
1721.0862493901482, 0.5044627218547251
1650.259654784988, 0.861231986942331
1614.8463574824077, 0.7223501245207818
1565.267741258796, 0.8254084036335836
1524.1883163878028, 0.5846397313664116
1481.6923596247066, 0.6964668662799249
1450.5286579984358, 0.7856117529794437
1434.9468071853007, 0.6502332122115204
1341.455702306489, 0.5418711332167051
1306.0424050039092, 0.5637114675844662
1284.7944266223608, 0.5379269148446159
1250.7976612118841, 0.5670444389530747
1195.552917419859, 0.6288177401242955
1157.3065563330724, 0.706298533736256
1111.9775357857698, 0.5462767512167935
1097.8122168647378, 0.5760546356038648
1004.3211119859261, 0.6812126078776101
983.0731336043782, 0.7038152843257266
964.6582190070367, 0.6562438644331556
934.9110492728691, 0.6718085445212877
916.4961346755276, 0.6337644492559469
905.1638795387021, 0.5979945092981112
896.6646881860825, 0.6021913316717256
871.167114128225, 0.6384243397761823
859.8348589913994, 0.560331108725198
823.0050297967159, 0.6484703454991105
767.7602860046909, 0.5563522011307964
762.0941584362781, 0.5611173540918335
753.594967083659, 0.45197060974723685
723.8477973494914, 0.6007792981140971
708.2659465363563, 0.6194949777889805
694.1006276153244, 0.5814791944126854
675.6857130179824, 0.5918880131326277
654.4377346364345, 0.6725114021340579
616.1913735496478, 0.7255685962934927
603.442586520719, 0.6780575545628287
575.1119486786547, 0.7366746701172391
559.5300978655196, 0.6962755358699573
514.2010773182169, 0.7194399868333657
481.62084379984344, 0.6593582069347582
460.3728654182951, 0.7244928512324761
447.62407838936633, 0.734610919085987
437.708355144644, 0.7352078591713411
427.7926318999216, 0.7460529837974594
422.12650433150884, 0.7475584778248566
405.12812162627006, 0.7402021327971879
398.0454621657541, 0.7435895240763373
385.29667513682534, 0.7515475787405119
##END=

##END=

