##TITLE=F. Hundemer FHU 116 B
##JCAMP-DX=4.24
##DATA TYPE=INFRARED SPECTRUM
##DATE=6/11/2018
##SAMPLING PROCEDURE=Diamant-ATR
##ORIGIN=Lara
##XUNITS=1/CM
##YUNITS=TRANSMITTANCE
##RESOLUTION=4
##FIRSTX=3997.453
##LASTX=373.96442
##DELTAX=-1.4165319
##MAXY=0.91806418
##MINY=0.36099955
##XFACTOR=1
##YFACTOR=8.5501389e-010
##NPOINTS=2559
##FIRSTY=0.86073118
##XYDATA=(X++(Y..Y))
3997+1006686781+1006683714+1006703163+1006733139+1006636310+1006380885
3989+1006134175+1006017616+1005931034+1005757173+1005586936+1005594814
3980+1005765817+1005885303+1005818240+1005692620+1005732495+1005942188
3972+1006073525+1005947974+1005684533+1005536744+1005589237+1005733192
3963+1005904265+1006142958+1006392248+1006495910+1006507343+1006727144
3955+1007272640+1007820506+1007988233+1007794782+1007522348+1007268457
3946+1006962561+1006718848+1006767995+1007069987+1007306799+1007247265
3938+1006877234+1006354046+1006003883+1006083773+1006392457+1006443417
3929+1006196009+1006132083+1006579982+1007355458+1007998829+1008261782
3921+1008242751+1008135882+1008069029+1008085690+1008134418+1008150522
3912+1008123334+1008026853+1007800986+1007470343+1007181736+1007114603
3904+1007392475+1007936018+1008342160+1008203015+1007650618+1007251099
3895+1007365984+1007911131+1008484512+1008582248+1008108486+1007558319
3887+1007514401+1008197368+1009172847+1009666407+1009292821+1008351013
3878+1007691469+1007829220+1008463947+1008949908+1009034957+1009084452
3870+1009315687+1009388954+1009146147+1008878035+1008793823+1008919235
3861+1009356259+1010125042+1010895846+1011203485+1010777336+1009685926
3853+1008630000+1008398417+1008693159+1009034260+1009288569+1009392509
3844+1009238446+1008821499+1008383987+1008250837+1008503822+1008823102
3836+1008828331+1008620868+1008635229+1009053361+1009546224+1009691573
3827+1009475187+1009242140+1009300908+1009686972+1010171191+1010409327
3819+1010415462+1010498210+1010662172+1010580121+1010139751+1009591815
3810+1009208400+1009150678+1009431129+1009868641+1010278059+1010615744
3802+1010774478+1010670746+1010560393+1010609679+1010609818+1010473113
3793+1010476459+1010783610+1011149388+1011216800+1010902051+1010427034
3785+1010113888+1010182554+1010648857+1011377625+1012127725+1012578273
3776+1012542999+1012140134+1011743055+1011774146+1012320618+1012905849
3768+1013019271+1012729966+1012344250+1012022460+1011918450+1012203223
3759+1012759385+1013099300+1012948513+1012636483+1012753250+1013698334
3751+1014988632+1015231299+1014244039+1013166851+1012720974+1012876361
3742+1013195851+1013394669+1013308645+1012803582+1012076626+1011714961
3734+1011953167+1012276281+1012308000+1012254392+1012503821+1013178423
3725+1013873799+1013979970+1013474977+1012904316+1012643942+1012652656
3717+1012782041+1012970263+1013225897+1013569158+1013908934+1014062928
3708+1014031348+1013933264+1013779758+1013604851+1013631760+1013988406
3700+1014340869+1014310684+1013960451+1013533675+1013168663+1012960713
3691+1012985739+1013121747+1013171312+1013320147+1013783801+1014217618
3683+1014088372+1013303556+1012381546+1012003708+1012482350+1013574038
3674+1014565132+1015054091+1015099195+1014648159+1013920785+1013575990
3666+1013672750+1013640962+1013223317+1012919862+1013308854+1014122740
3657+1014448434+1013822910+1012895323+1012433551+1012388029+1012306397
3649+1012062126+1011985025+1012015141+1011745216+1011120807+1010516683
3640+1010338430+1010519960+1010574056+1010253242+1009917161+1010111169
3632+1010936837+1011955746+1012408316+1011881154+1011034015+1010515359
3623+1010266905+1009965123+1009420533+1008791383+1008412987+1008365722
3615+1008508492+1008683957+1008697063+1008496920+1008403018+1008757922
3606+1009337158+1009637058+1009635525+1009727335+1010110333+1010476529
3598+1010437490+1010028979+1009602272+1009477627+1009752432+1010301622
3589+1010867055+1011161239+1011053953+1010693891+1010345401+1010227100
3581+1010404377+1010638261+1010574823+1010258610+1010178720+1010664054
3572+1011499063+1012290781+1012888422+1013225827+1013104389+1012601069
3564+1012232781+1012222603+1012282067+1012139855+1011867491+1011604189
3555+1011330570+1011097802+1011126314+1011458561+1011736920+1011548768
3547+1010912717+1010382279+1010450248+1010856041+1010983335+1010757398
3538+1010689499+1011126593+1011806005+1012269589+1012403715+1012361400
3530+1012268962+1012177290+1012087432+1011904508+1011541866+1011146461
3521+1011036176+1011330291+1011792760+1012056898+1011947590+1011638278
3513+1011507080+1011761807+1012180358+1012332818+1012115874+1011864284
3504+1011882479+1012096773+1012291548+1012518112+1012935128+1013360650
3496+1013389092+1012921744+1012283810+1011880109+1011978751+1012576391
3488+1013257337+1013560723+1013556680+1013575920+1013503141+1012997799
3479+1012278582+1011888753+1011868676+1011857522+1011816601+1012021275
3471+1012441917+1012756945+1012898042+1013077271+1013333741+1013485643
3462+1013470098+1013383515+1013262705+1013129485+1013153606+1013521196
3454+1014180462+1014837009+1015133912+1014852763+1014119603+1013434545
3445+1013274695+1013676933+1014343448+1014928471+1015081976+1014526094
3437+1013376265+1012215005+1011587528+1011545143+1011859334+1012457323
3428+1013375987+1014424802+1015225862+1015592546+1015636116+1015482401
3420+1015131751+1014623411+1014116118+1013764770+1013663966+1013870941
3411+1014338638+1014895636+1015384177+1015687703+1015597984+1014928819
3403+1013874984+1013013973+1012818710+1013270512+1013937098+1014363386
3394+1014458543+1014534250+1014883855+1015366749+1015570587+1015369817
3386+1015094246+1015026486+1014961723+1014536132+1013829811+1013302928
3377+1013222272+1013459920+1013775854+1013988615+1013922667+1013457828
3369+1012682423+1011907784+1011478568+1011496066+1011738733+1011951075
3360+1012137415+1012442684+1012853356+1013161832+1013160368+1012846664
3352+1012504867+1012511698+1012957157+1013513319+1013754871+1013547966
3343+1013097069+1012694483+1012497198+1012476912+1012481862+1012361400
3335+1012138809+1012056271+1012335258+1012890095+1013353818+1013382470
3326+1012952766+1012393746+1012094194+1012164115+1012416542+1012629233
3318+1012748649+1012891071+1013134086+1013276926+1012988807+1012339440
3309+1011923679+1012207685+1012920001+1013316313+1012991595+1012286459
3301+1011834378+1011839676+1012024552+1012157980+1012264849+1012359726
3292+1012404691+1012504658+1012781623+1013122096+1013340712+1013463614
3284+1013582125+1013578151+1013265354+1012663531+1011953864+1011328409
3275+1010994837+1011067965+1011339562+1011422659+1011187730+1010842586
3267+1010619927+1010583397+1010685177+1010887411+1011243430+1011789413
3258+1012303608+1012413753+1012056410+1011562850+1011189891+1010867613
3250+1010507621+1010250175+1010265651+1010483570+1010611213+1010380187
3241+1009812802+1009265843+1009085498+1009185395+1009142801+1008724948
3233+1008072932+1007426215+1006957821+1006772178+1006823416+1006972042
3224+1007204531+1007542216+1007777284+1007651803+1007181526+1006508040
3216+1005685579+1004879779+1004448820+1004562659+1004912683+1004948236
3207+1004376180+1003441901+1002696541+1002439444+1002461264+1002373148
3199+1002039646+1001602065+1001227991+1001000869+1000977585+1001148031
3190+1001321823+1001240887+1000830772+1000196812+999465743+998807105+998430731
3180+998327278+998215530+997955226+997767492+997835182+997947139+997726710
3170+997029382+995988514+994847957+993850380+993148311+992739869+992542376
3160+992505498+992575001+992590686+992348716+991801826+991144094+990610519
3150+990194827+989720786+989169156+988679918+988261716+987822322+987406909
3140+987077660+986684484+986090678+985471288+985113875+985058454+985105231
3131+985028269+984677967+984045401+983314750+982720666+982309923+981983950
3121+981736403+981620333+981538631+981341067+981033010+980626032+979983358
3111+979131200+978420557+978047180+977766938+977382198+977091569+977041795
3101+976960650+976555066+975913856+975266372+974645727+973933550+972961069
3091+971535391+969647732+967644909+965977470+964837053+964166355+963830065
3081+963612982+963250550+962651585+961968478+961354107+960744546+959934633
3071+958732521+957044308+955048805+953287673+952197240+951488200+950454024
3061+948952639+947546131+946611364+945886291+945023327+944112960+943440240
3051+943034865+942693416+942335585+942188074+942602372+943727313+945376348
3041+947228036+949143301+951154350+953116600+954626630+955454668+955842893
3031+956172212+956485498+956522863+956184342+955795071+955795907+956194869
3021+956547890+956565806+956483476+956676369+957150898+957625078+957993017
3012+958499265+959417510+960679296+961905528+962743186+963100042+963119282
3002+962971423+962652212+962019437+961000947+959617793+957883639+955958964
2992+954241262+952910462+951645121+950241891+949170488+948971112+949474293
2982+950174549+951012765+952259632+953882385+955491197+956787629+957737872
2972+958363118+958679331+958885678+959323051+960096016+960910112+961410434
2962+961513817+961364773+961182964+961192863+961488651+961900997+962112294
2952+961918564+961363239+960637678+959844356+958869645+957584575+956116373
2942+954737263+953558016+952524816+951642612+950982301+950508887+950076325
2932+949624801+949311934+949375441+949825641+950363886+950664693+950651309
2922+950466711+950287273+950160955+949964855+949564361+949009872+948504809
2912+948264303+948430218+948929843+949447942+949777679+950112923+950753855
2902+951694129+952681668+953486631+954010655+954343809+954739563+955390672
2893+956264929+957210780+958083504+958735589+959081917+959223781+959328628
2883+959370943+959206911+958889373+958602787+958278557+957692280+956993070
2873+956686686+956980801+957539681+958009957+958449212+959060098+959757217
2863+960253426+960478456+960631264+960822066+960972992+961124337+961522461
2853+962313064+963361182+964408325+965268570+965926650+966530704+967186693
2843+967759097+968060322+968212225+968586926+969344276+970213374+970807599
2833+971040367+971139985+971321933+971544244+971612423+971466725+971270625
2823+971175817+971097321+970810387+970233033+969512770+968841932+968288559
2813+967823302+967450622+967241347+967230332+967318030+967318657+967139777
2803+966881703+966713976+966713279+966864624+967120048+967381189+967518312
2793+967474115+967290912+967067207+966956574+967098577+967444069+967797578
2783+968116650+968576330+969248004+969925464+970362000+970509511+970458691
2774+970291661+970057917+969816435+969653867+969639367+969748257+969892630
2764+970071302+970413587+971010391+971780010+972533317+973126077+973536332
2754+973842576+974108736+974329723+974547503+974941166+975657735+976583230
2744+977420888+977989389+978343037+978620630+978886023+979126041+979305619
2734+979406213+979465956+979575265+979772968+980018423+980305079+980696720
2724+981201713+981720927+982147006+982428433+982566254+982634641+982735445
2714+982879957+983025725+983224474+983595271+984156661+984824083+985521341
2704+986162551+986627599+986918716+987223706+987668259+988116158+988350878
2694+988353527+988296851+988345789+988521602+988724046+988868349+988967410
2684+989019415+988927535+988671762+988439482+988400722+988462277+988453633
2674+988469736+988783928+989421583+990047875+990365343+990425016+990433381
2664+990436309+990333484+990069276+989715558+989440754+989376549+989448701
2655+989461667+989410847+989511232+989852890+990270813+990627878+991022447
2645+991632077+992503685+993522734+994461335+995074382+995288327+995305407
2635+995428169+995810051+996439131+997222345+997975651+998523238+998928543
2625+999428169+1000039124+1000476914+1000581134+1000599607+1000901809
2616+1001526427+1002151743+1002474718+1002472836+1002285032+1002042923
2608+1001901407+1002030932+1002441605+1002926730+1003259814+1003412204
2599+1003554625+1003832845+1004178129+1004454118+1004739170+1005223319
2591+1005811827+1006091999+1005851772+1005484808+1005652605+1006512850
2582+1007467624+1007811025+1007485819+1007045240+1006977898+1007265947
2574+1007558807+1007578257+1007267830+1006768205+1006404727+1006494237
2565+1007008013+1007640579+1008241844+1008832304+1009275323+1009396134
2557+1009338691+1009420115+1009760448+1010280290+1010828435+1011210665
2548+1011348067+1011409623+1011565917+1011729810+1011784255+1011921587
2540+1012473217+1013454273+1014471091+1015062945+1015050188+1014624039
2531+1014154320+1013843963+1013612589+1013385955+1013310388+1013536254
2523+1013980319+1014395523+1014543452+1014391201+1014293535+1014700164
2514+1015534964+1016246862+1016571232+1016768307+1017062979+1017367202
2506+1017582194+1017752848+1017949994+1018266555+1018769039+1019289229
2497+1019490696+1019252212+1018806962+1018490540+1018462306+1018602567
2489+1018650319+1018542963+1018501415+1018665865+1018874722+1018955448
2480+1018997415+1019197767+1019596170+1020071884+1020496221+1020778275
2472+1020819684+1020639688+1020599882+1021166989+1022247035+1023094453
2463+1023146807+1022696956+1022500647+1022928330+1023730923+1024511696
2455+1025125440+1025577033+1025886066+1026249893+1026978800+1027984813
2446+1028652583+1028518666+1027811300+1027111741+1026749239+1026726164
2438+1026952658+1027244194+1027292086+1027009683+1026759835+1026862103
2429+1027099890+1027137743+1027132236+1027433392+1027988717+1028502493
2421+1028865762+1029026030+1028783293+1028129814+1027513351+1027394004
2412+1027738311+1028206357+1028612778+1028957712+1029209233+1029312267
2404+1029305923+1029300207+1029400731+1029637473+1029848351+1029732978
2395+1029154997+1028326262+1027647268+1027458070+1027875783+1028703194
2387+1029537297+1030115278+1030517098+1030953146+1031443638+1031784878
2378+1031778046+1031453607+1031097240+1031057225+1031461554+1032105414
2370+1032634736+1032897271+1033126902+1033703350+1034674576+1035591915
2361+1035820779+1035015119+1033548798+1032405384+1032110991+1032057521
2353+1031555108+1030943665+1030914525+1031556223+1032505211+1033383512
2344+1033927543+1034005481+1033648765+1033053356+1032560075+1032497264
2336+1032860951+1033231749+1033171657+1032669174+1032093911+1031728481
2327+1031459672+1031069425+1030715777+1030837912+1031438271+1031805234
2319+1031377342+1030552720+1030214478+1030712291+1031579716+1032115313
2310+1032070558+1031792686+1031821338+1032357004+1033068065+1033479853
2302+1033565808+1033796345+1034526020+1035498571+1036122980+1036123747
2293+1035710355+1035178732+1034634771+1034170559+1034009664+1034283004
2285+1034836656+1035459393+1036117334+1036783222+1037261376+1037476297
2276+1037709484+1038197188+1038747912+1039168833+1039743259+1040747947
2268+1041767413+1042035037+1041366500+1040477952+1040368296+1041334224
2259+1042562478+1042916684+1042118064+1040859834+1039897113+1039450050
2251+1039414079+1039754901+1040584402+1041909905+1043436944+1044700263
2242+1045269670+1044884093+1043730710+1042538427+1041947828+1041832106
2234+1041591042+1041081030+1040960010+1041898960+1043497663+1044506255
2225+1044473142+1044377985+1044989846+1045577448+1045210345+1044382934
2217+1044154419+1044371571+1043957483+1042713404+1041705718+1041760024
2208+1042576490+1043517252+1044244696+1044406706+1043851102+1043359564
2200+1043980488+1045443043+1046423332+1046439575+1046236853+1046314303
2191+1046384921+1046330197+1046393635+1046411481+1046029599+1045619414
2183+1045837822+1046548813+1047146942+1047413311+1047270471+1046504965
2174+1045375353+1044696289+1044854187+1045337151+1045354788+1044520406
2166+1043081413+1041971181+1042517235+1045524746+1050227371+1054405136
2157+1056383420+1056433752+1055634017+1054656656+1053672673+1052500606
2149+1051097236+1050126777+1050250794+1050944009+1051209193+1051196157
2140+1051722552+1052529467+1052507508+1051527080+1050687818+1050712078
2132+1051177265+1051370716+1051136554+1050854290+1050949586+1051443774
2123+1051950510+1052181884+1052217925+1052104294+1051583965+1050516815
2115+1049261931+1048382934+1048160553+1048445326+1048815287+1048910025
2106+1048790051+1048887717+1049499579+1050413572+1051078623+1051092844
2098+1050600957+1050317927+1050914800+1052171497+1053143002+1053397380
2089+1053484520+1053911784+1054429326+1054742541+1055073464+1055538163
2081+1055714883+1055242933+1054354525+1053667793+1053727397+1054600120
2072+1055646077+1055893485+1055010932+1053929073+1054099658+1055856537
2064+1057906067+1058768892+1058104955+1056416185+1054529781+1053549910
2055+1054232738+1056230821+1058617408+1060925081+1063006608+1064247411
2047+1063821401+1061824852+1059394695+1057569080+1056672306+1056770460
2038+1057865565+1059534049+1061198072+1062768821+1064349190+1065688774
2030+1066494086+1066785830+1066741284+1066524829+1066119524+1065382808
2021+1064617581+1064586141+1065421359+1066044374+1065356248+1063695223
2013+1062373206+1062018303+1062281047+1063196434+1065361546+1068204816
2004+1069926839+1069753396+1068507993+1067078271+1065796967+1064905700
1996+1064652437+1065298248+1067041603+1069156314+1069872185+1068306735
1987+1065710872+1064106174+1064272158+1065129057+1064858575+1062945610
1979+1061236414+1062164767+1065448756+1067919903+1067384098+1065160218
1970+1064229704+1065885013+1068559510+1069723071+1068794300+1067336693
1962+1066568538+1066168531+1065709060+1065617249+1065877344+1065442970
1953+1063906450+1062449610+1062354175+1063547085+1065032157+1065932556
1945+1065846323+1064770389+1062993921+1060876282+1058642225+1056564253
1936+1055157048+1054827032+1055366532+1056113983+1056636892+1056988659
1928+1057345723+1057695747+1057929212+1058060479+1058308932+1058918354
1919+1059828652+1060642957+1061064992+1061243316+1061422615+1061540985
1911+1061418780+1061107238+1060727447+1060029701+1058630723+1056716225
1902+1054991413+1053828758+1052994794+1052309526+1051931897+1051932733
1894+1052176655+1052608939+1053197725+1053787906+1054388126+1055230246
1885+1056206491+1056783218+1056766557+1056764953+1057475387+1058764081
1877+1059854236+1060301508+1060413116+1060720128+1061383088+1062125171
1868+1062505101+1062358567+1061923076+1061457261+1061086394+1060945715
1860+1061172000+1061709340+1062272612+1062630304+1062867185+1063247812
1851+1063818961+1064335666+1064662266+1065032088+1065738409+1066665716
1843+1067383819+1067826908+1068321304+1068954010+1069359315+1069185383
1834+1068648881+1068270484+1068247967+1068345216+1068257169+1067933985
1826+1067508045+1067128464+1066877153+1066739472+1066737659+1067001728
1817+1067578663+1068219943+1068558185+1068513012+1068379862+1068457870
1809+1068699282+1068943901+1069269038+1069834053+1070589381+1071281829
1800+1071688180+1071812267+1071802020+1071721712+1071534605+1071246555
1792+1070933688+1070574602+1070068145+1069448616+1068867846+1068399242
1783+1067949531+1067453809+1067032192+1066799703+1066670108+1066517230
1775+1066391609+1066513396+1067092493+1068038832+1069010337+1069753047
1766+1070241588+1070699317+1071436729+1072488612+1073404627+1073741823
1758+1073543841+1073093014+1072587254+1072013316+1071155581+1069655799
1749+1067167363+1063553498+1058757738+1052711973+1045513104+1037314775
1741+1028284783+1019478566+1012591797+1007507430+1001330049+990397480+975008996
1731+958009191+939899572+921743595+906533713+897054010+895015843+900203106
1721+910257095+923204199+938011146+951460803+959263865+961611902+960713594
1711+957570215+952573335+945791064+936720570+925760953+915103676+905082799
1701+892200458+874373800+855883973+838690299+820764093+804689504+793719151
1691+786912202+783117017+782601148+785523193+792825096+806299640+822907873
1681+837702969+850841432+863486892+876332983+890138031+903823802+915027829
1672+923998636+932698333+941136470+947727103+952543429+956733323+960907324
1662+964849671+968130243+970720947+972788532+974641405+977337094+982257081
1652+987481640+990878352+993780738+997795307+1002870891+1007306311+1010493818
1642+1013022826+1015347300+1017415791+1018462585+1016772490+1011148482
1633+1002858482+992948238+981292966+968931373+959250411+955555471+958358447
1623+965706779+974018111+980531572+985178080+988904390+991833893+993377385
1613+993592097+992955488+991556440+988837118+983782238+975685131+964855109
1604+952712062+941284608+932205539+926072844+922940479+922954352+926124500
1594+931800792+938904226+946631093+954538932+962055548+968213549+971911347
1584+972598846+971038415+969198369+969026181+971801690+978011696+985678890
1574+991611234+995469927+998324002+1000427419+1001475259+1001816986+1002184647
1564+1002875352+1003806494+1005357305+1009415932+1017030075+1024124237
1555+1029068554+1033227705+1037178070+1040843243+1043974701+1046315767
1547+1047989758+1049480547+1051088801+1052765651+1054627098+1056838569
1538+1058651427+1059568905+1059952251+1060227265+1060576451+1060949340
1530+1061336241+1061761763+1062062082+1061981007+1061421708+1060342010
1521+1058704966+1056470281+1053105497+1047946188+1041424013+1034878414
1513+1029150814+1024542927+1021243742+1018722192+1014835684+1007929884
1504+999896214+991515519+981497710+968606585+952287586+933112282+913994838
1494+898677251+888965617+886861223+896394675+917516963+939427692+949529505
1485+941767503+916221367+880922118+851467515+840805498+850150936+871209856
1475+892678124+904332699+900490876+884371602+862561188+837575536+809714059
1465+781967049+759670603+743812331+730081805+710991689+677554166+633918837
1455+597869767+572739393+553219363+537311421+526899600+525518363+534642292
1445+551922861+574221538+599328698+625333816+651775471+679942426+708426012
1435+731518009+747644533+760378528+772429624+783934110+794227421+803838810
1425+813831662+824139125+833968363+843668287+854376314+865375318+874448740
1415+881187790+886477808+890931632+894777428+898068248+900867251+903264992
1405+905125254+906198956+906641557+906941458+907450006+908185885+908973490
1395+909783961+910729184+911750952+912730683+913786470+915146479+916675122
1385+917477297+916077691+910835704+900468011+885033935+866465891+847608403
1375+831315547+821002647+820072829+829486306+847519939+870481645+893141848
1366+911384197+923852311+930552949+932500839+932345521+932879584+935288269
1356+938950863+942264897+943866389+943247207+940542386+936183161+930665255
1346+924334229+916960801+907137697+892313252+870186136+841238897+810502082
1336+786414738+777330232+786762531+810129263+837454656+860256513+875559181
1326+884776280+890589277+894297810+894372193+886815702+867864103+837977495
1316+803332771+772971007+754590767+751427032+761534491+779902322+800984595
1306+820109359+834338952+842715186+845674665+844157176+838821776+829821412
1296+817477246+803149498+789149397+777690154+769901522+765627416+763907763
1286+763662446+764242171+765659135+768299473+772216376+776586963+779887752
1276+780692506+778414530+773468401+767048911+760935456+757120751+757074741
1266+761243374+769241699+780286504+793343055+807111226+820206397+831480555
1256+840180530+845917123+848662656+848777263+846935823+843951526+840576424
1247+837317811+834339649+831544759+828771341+825794573+821959931+815687114
1237+804174054+783765825+751824738+709870721+665003374+626644330+600822833
1227+587899292+585482310+591980575+606798746+628560780+654460774+681181694
1217+706134860+728142699+747256517+764014282+778912064+792431921+805176233
1207+817672509+830069028+842122843+853441616+863701117+872764222+880709357
1197+887752281+894127434+900013350+905460219+910315444+914206135+916569578
1187+916846125+915098308+912648283+911699086+913828854+918829359+925097226
1177+930918239+935237101+937573495+937599776+934799171+928665011+919660882
1167+909909651+902225936+898033880+896319037+894597223+890786352+884336189
1157+875995787+867063322+859354998+855529767+858151910+867664030+881733913
1147+897011416+911184403+923351291+933323021+941177949+947104785+951159508
1137+953251353+953551045+952686617+951367250+950074303+948971670+947133576
1128+941622432+928927198+908964916+887438577+872967781+871136240+880955928
1118+896559962+911928717+924224712+933562412+940865640+946506727+950396651
1108+952545241+953317510+953220750+952478945+950932247+948442278+945298480
1098+942164651+939705494+938292225+938015050+938897045+941007991+944334086
1088+948560997+953063619+957226814+960811749+963897476+966380335+967636265
1078+966848102+963850630+959712880+956260816+954693762+954573509+954085317
1068+951173102+944775153+935733798+926773797+921066484+920188811+923197019
1058+927515671+930518860+930380203+926020839+916865714+902850276+884646058
1048+863786654+842187606+821174347+801154832+782482569+766425199+755119601
1038+750722523+754430708+765575271+780936149+795229390+803908034+806890239
1028+808925060+814960228+825210527+834940078+837903600+830098865+813021192
1018+794836703+786195424+792638896+811184911+834190187+855061512+870205028
1009+878041413+878640238+874532743+870401267+870510645+876017677+884948608
999+894540547+903196325+910667211+917361993+923791522+930269570+936834967
989+943341388+949565127+955328489+960534923+964942039+968033902+969060967
979+966522757+957988416+942670063+924966307+912930826+911433344+918298782
969+928019479+937213085+945433303+952906140+959446371+964869121+969214124
959+972572634+975037856+976646877+977187353+976316791+974177542+971724171
949+970112501+969807581+970435128+971279548+971682762+971145213+969343997
939+966150844+961631630+956091904+950203688+944982127+941251077+938858285
929+936588745+933064181+927890024+922432279+919632161+921979988+928626809
919+935104509+937082026+934464832+931317758+931919232+937229397+944860132
909+951740906+956442625+959316149+961251979+962761939+963901798+964550049
899+964608538+964068479+963077385+962005077+961240128+960798643+960354717
890+959734839+959107293+958640153+958276257+957907551+957581648+957466205
880+957647734+958016022+958443147+959002725+959847842+960977872+962270888
870+963595066+964801570+965750140+966341227+966430040+965798520+964244432
860+961593707+957674852+952442277+946171970+939436476+932715203+926069846
850+919542093+913892641+910372887+909537599+910817997+913630803+918495648
840+926449009+937325251+949164911+959639613+967713854+973711727+978298352
830+981842017+984502850+986509926+988157776+989573694+990739486+991777915
820+992820177+993594537+993695968+993345387+993401087+994462660+996192770
810+997514507+997043812+993258386+985515346+976169281+970506583+972478872
800+980859497+990911187+998947017+1004147176+1007117601+1008226299+1007409624
790+1005144405+1003127222+1003403908+1006828505+1012653562+1019288880
782+1025083334+1028698453+1029304738+1026835612+1022304269+1017830717
773+1015974846+1018453662+1025017456+1033564275+1041527186+1047024667
765+1048808246+1045498743+1034779492+1013684531+980979681+939198619+892535563
755+842215421+784932802+716479967+638056378+559789954+495694566+453235033
745+430139062+422214840+429832852+454862562+495748523+548351486+608736807
735+672659972+733086527+778899656+797346401+781174564+734491850+670694026
725+606795400+560395437+545439689+563928471+603224477+646741853+686197535
715+720975618+751079936+775427445+793950107+807878754+818649522+827284177
705+834263036+840279243+847094557+856459933+868171323+880354105+891401211
696+900314087+905615886+906050540+902978894+900331097+900855957+903536938
686+906043987+908429598+912567696+918930929+925915992+932095255+937591341
676+943110642+948573894+953178156+956575914+959455364+962864485+966612197
666+969434553+971133711+972040035+972301943+972208320+972284724+972921682
656+974146241+975702211+977305794+978807876+980055928+980726487+980419964
646+978766049+975366897+969840067+962115710+953125872+945325528+941492350
636+942304702+945963880+950645592+956219477+963196872+971214856+979079125
626+985787571+990430663+989290943+974574551+942217284+902633053+876660141
616+875421082+889396576+901760469+904709143+900191742+893707490+891371862
606+897884139+913287890+932583099+949594685+960856016+966302397+967902983
596+968457959+970671242+975484710+980835656+983067273+979453896+968568383
586+950713631+931074812+919721114+923526965+938554969+953612391+961108233
577+961655681+958749461+953011266+943720551+934031224+931481093+941275406
567+959783498+977685793+988586922+991180135+985085781+969701689+946644617
557+919212356+890385369+863257122+839173054+814269383+785618349+762762117
547+763262161+792877798+838222741+881304976+913778732+936406866+952470510
537+963990960+969840973+964678249+942107488+903333100+863064996+842250416
527+851832108+883313097+917492703+942240289+957004572+965528804+971110636
517+976006294+981056294+985477911+988095384+988909897+989228063+990222154
507+991749821+992945519+993668432+994828438+997198155+1000174225+1002214623
497+1002318076+1000901669+999668117+1000296291+1002738787+1005200872+1006250106
487+1006218735+1006297928+1007108608+1008260945+1008704034+1007225096
479+1002893129+994859041+980500551+954528266+915532892+876405623+857423909
469+865232757+889501631+915598352+935387888+948468768+957405346+964403724
459+969967361+972497694+970461200+964320558+954848104+942513559+928717713
449+915330100+903421913+893064049+883887871+877270260+878030887+890193731
439+910812211+930980771+942409131+942985927+934387522+915481236+885034562
429+849458348+818833352+796448930+780497801+773207539+781124372+809058349
419+854260174+898998554+926349879+938893629+944815167+948988540+954205709
409+961347972+969040541+974889021+976830986+974303093+969594054+967145005
399+969454979+971588651+963835223+946115155+927280881+912399900+900633995
390+890436329+883279147+881277858+882386277+881829697+880037474+881414772
380+885980483+889558656+890016733+891580440+898445529
##END=
