##TITLE=SGR_SM 952
##JCAMP-DX=4.24
##DATA TYPE=INFRARED SPECTRUM
##DATE=13/9/2018
##SAMPLING PROCEDURE=Diamant-ATR
##ORIGIN=Lara
##XUNITS=1/CM
##YUNITS=TRANSMITTANCE
##RESOLUTION=4
##FIRSTX=3997.453
##LASTX=373.96442
##DELTAX=-1.4165319
##MAXY=0.93727303
##MINY=0.26518881
##XFACTOR=1
##YFACTOR=8.7290353e-010
##NPOINTS=2559
##FIRSTY=0.81700456
##XYDATA=(X++(Y..Y))
3997+935962034+936177262+936275317+936194265+936386072+937009088+937564914
3988+937622340+937410730+937343335+937406360+937352211+937166823+937071636
3978+937263853+937713088+938042623+937780689+936964568+936242268+936194880
3968+936783003+937542244+938095406+938336923+938342318+938267889+938238937
3958+938251023+938262495+938356794+938661883+939143963+939608357+939812387
3948+939619555+939209856+938937474+938841536+938590254+938129206+937878743
3938+938022684+938268094+938439417+938820164+939664622+940638136+941171291
3928+941151557+940798396+940302455+939857863+939635192+939520476+939230887
3918+938819822+938745120+939139729+939528602+939521091+939202072+938864070
3908+938718763+938905791+939543078+940493580+941126156+940805156+939696237
3898+938677042+938381512+938656967+939029042+939260044+939452807+939715220
3888+939953528+940146360+940382347+940611368+940701912+940567804+940017032
3878+939090019+938399198+938552971+939477663+940371148+940660464+940602287
3869+940611710+940790270+941302394+942368295+943672914+944339768+943878037
3859+942623879+941433908+941207549+942244498+943348910+943134842+942450918
3849+942140024+942138044+942176283+942067166+941810353+941653916+941857059
3839+942342552+942779838+943032554+943184006+943239998+943130199+942888135
3829+942682808+942636170+942638560+942460546+942129099+942021075+942429955
3819+943066901+943522759+943503435+942839381+942038624+941805642+942223330
3809+942838220+943185713+943304390+943619653+944296271+945068145+945442063
3799+945271628+944868007+944494497+944314435+944417406+944701191+944932534
3789+944958755+944814336+944638916+944577393+944713755+944969202+945178763
3779+945295596+945417277+945546195+945537250+945311301+944946396+944656807
3769+944735947+945275111+945945106+946362179+946560952+946838045+947168672
3759+947068228+946264466+945260089+944604365+944357248+944594327+945763609
3750+947721083+949315086+949982008+949798258+949090503+948449392+948127368
3740+947962874+947764512+947385881+946640570+945511576+944579920+944448543
3730+944984293+945658999+946138825+946469179+946806157+947083250+947176457
3720+947189977+947288782+947414560+947381648+947164985+946939582+946784306
3710+946549275+946352825+946494922+946850541+946989565+946743200+946512129
3700+946774610+947405342+947947920+948109478+947905038+947582537+947364713
3690+947276355+947271848+947400357+947695272+948191145+948950727+949814988
3680+950281020+949986583+949222494+948668376+948479300+948156252+947684142
3670+947393187+947333030+947295611+947307833+947581649+948172435+948913445
3660+949612801+950200446+950584949+950572590+950181054+949700272+949273160
3650+948856360+948627611+948981045+949715226+950386177+950777166+950673512
3640+949969581+949062848+948627133+948816892+949097946+948998047+948680121
3631+948549017+948658270+948791627+948963291+949235878+949539943+949856299
3621+950191433+950362755+950175591+949881427+949852339+950097748+950335852
3611+950306080+949991636+949622361+949397299+949239907+949099926+949211774
3601+949784192+950593962+951175394+951324866+951158938+950863408+950542545
3591+950284708+950270846+950645311+951216842+951657883+951949589+952094964
3581+951924939+951400524+950809259+950540702+950734967+951104857+951169317
3571+950804343+950368423+950261833+950520421+950885737+951227699+951574714
3561+951948018+952345153+952698041+952885069+952825526+952494694+951957305
3551+951464710+951267440+951296392+951253032+951012948+950771704+950685872
3541+950682526+950752857+951083553+951750543+952441979+952754511+952708147
3531+952646146+952692510+952580867+952102407+951468124+950964194+950584334
3521+950269003+950172314+950435887+950935310+951409810+951738935+952041634
3512+952518524+953083909+953217266+952573356+951607968+951149719+951461978
3502+951982296+952142489+952004625+951847847+951689361+951436099+951207146
3492+951235688+951560989+951961607+952142625+951997797+951747197+951745559
3482+952096398+952524806+952705689+952551027+952153619+951736750+951625995
3472+952008790+952783668+953747144+954708230+955363407+955396661+954862618
3462+954244792+954033865+954346602+954952069+955530428+955914794+956157541
3452+956426918+956917806+957744989+958654043+958988699+958423246+957488790
3442+956902511+956703602+956328112+955286452+953556088+951502129+949595047
3432+948178513+947448702+947513980+948339183+949716933+951374917+952982167
3422+954072923+954297780+953818705+953079949+952220332+951158255+950111883
3412+949505392+949421198+949611913+950017243+950783107+951766453+952455840
3403+952523919+952222312+952094964+952424430+952996165+953335465+953203200
3393+952909787+953066156+953948511+955238244+956391411+957027810+956980285
3383+956335419+955511718+954998365+954929399+955098195+955304137+955463715
3373+955471841+955203625+954705430+954276817+954243221+954643634+955265148
3363+955918823+956468434+956743957+956758638+956793667+956933784+956809099
3353+956152624+955316565+954894848+955034351+955377269+955595775+955737736
3343+955965802+956206910+956317255+956372974+956483593+956511658+956318689
3333+956061125+955936576+955864742+955695400+955546133+955687889+956180347
3323+956782537+957187320+957236074+956965604+956570996+956332073+956491309
3313+957102171+957919862+958481082+958455953+957987053+957565882+957539251
3303+957832186+958119522+958162404+957988828+957820305+957845501+958061754
3293+958323006+958514950+958685385+958948343+959234791+959313454+959191432
3284+959255276+959776277+960469693+960807695+960628998+960236096+959967948
3274+959853232+959707789+959478767+959348142+959484367+959810282+960098437
3264+960227902+960276861+960433708+960847982+961453654+961926037+961978069
3254+961728494+961586875+961757514+962055161+962205452+962168920+962155196
3244+962360113+962706924+962935399+962903579+962632290+962179846+961701522
3234+961487318+961705687+962237750+962839598+963328437+963657631+963940665
3224+964299629+964681196+964956104+965096631+965132616+965100796+965114589
3214+965283863+965579188+965904899+966186158+966308931+966162805+965776117
3204+965282429+964796731+964393929+964105295+963887062+963663913+963422463
3194+963239191+963241854+963518333+963999866+964432577+964522984+964180817
3184+963658723+963404368+963684193+964369005+965112199+965641872+965815585
3174+965569560+965027801+964533431+964372556+964549887+964899975+965243235
3165+965412919+965351942+965189018+965073210+965014350+964968668+964945793
3155+964962932+965026709+965185194+965503394+965921014+966206643+966186499
3145+966004934+965982401+966245291+966674656+967076775+967226794+966965269
3135+966357685+965486391+964068081+961569599+957567247+951670857+943287797
3125+931945138+918150293+903945203+892206433+884992109+882594481+884100535
3115+888407703+894597574+901818318+909240838+916113952+921828709+926110817
3105+929212513+931726632+934089982+936291773+938071780+939328600+940262919
3095+941130867+941956752+942597932+943018146+943309511+943457207+943255362
3085+942465121+940985219+938964924+936794543+934794528+932925207+931120550
3075+929878206+930087767+932140496+935468961+939089882+942388234+945273609
3065+947825625+950062651+951975127+953512659+954522841+954934930+955006150
3055+955128581+955346336+955339781+954938754+954329122+953652162+952751165
3046+951523365+950209801+949153938+948535361+948398180+948617847+948811156
3036+948594972+947961713+947211144+946648491+946501887+946935622+947950856
3026+949370396+950976621+952535527+953722152+954255581+954158277+953668618
3016+952875304+951633233+949810686+947381579+944302895+940605223+936711647
3006+933519749+931994507+932538929+934710130+937598099+940511607+943296059
2996+946058456+948722593+950972524+952620608+953857831+955001097+956123946
2986+957097459+957865713+958504161+959118778+959816359+960636987+961455429
2976+962076260+962446287+962660491+962772203+962698252+962306238+961538189
2966+960451530+959174019+957771551+956045761+953430515+949180842+942709233
2956+933737572+922348754+909213183+895825033+884405010+877416839+876679380
2946+882292259+892291856+903702115+914149103+922571630+928834156+933216025
2936+936228475+938411898+940061894+941251523+942119539+942976835+944084867
2927+945429499+946745043+947741500+948350450+948805421+949438884+950357429
2917+951386525+952317021+953080222+953696819+954217001+954712668+955196523
2907+955529609+955475460+954861457+953695658+952195272+950735650+949717684
2897+949359197+949572719+950096724+950744937+951441971+952062734+952412003
2887+952403809+952196774+952155394+952651403+953779305+955217281+956453549
2877+957190461+957529077+957795108+958229731+958829736+959389043+959591230
2867+959126221+957858202+955911926+953598013+951331831+949541991+948441608
2857+947889265+947614357+947488784+947442420+947267956+946736576+945835853
2847+944772410+943800399+943117157+942813570+942875844+943368576+944604843
2837+946867065+949885388+952895652+955335206+957224056+958820722+960224898
2827+961402988+962316754+962902897+963122632+963181629+963518333+964359172
2817+965422683+966281959+966833346+967178586+967340553+967369574+967438198
2808+967602966+967725329+967728265+967714814+967813892+968057800+968386652
2798+968701233+968938858+969086964+969171772+969312299+969673244+970234737
2788+970742217+971000601+971089164+971191657+971334642+971394800+971308558
2778+971176772+971163457+971363936+971765236+972240487+972623010+972871014
2768+973084604+973326805+973552208+973708166+973776245+973757399+973685974
2758+973570030+973356371+973082761+972900308+972811676+972634959+972356364
2748+972256193+972587434+973323049+974226846+975029583+975576258+975858746
2738+975906681+975735836+975439965+975176255+975013605+974913228+974837571
2728+974780622+974757816+974846106+975136105+975571547+975920201+975991215
2718+975857039+975784590+975936384+976214092+976425974+976504705+976514606
2708+976564658+976765888+977182416+977774772+978410762+978932719+979254128
2698+979439790+979642523+979945359+980340855+980804361+981247041+981508020
2689+981550901+981557662+981678455+981792009+981640011+981165101+980671960
2679+980597395+981069642+981761419+982267329+982516631+982678121+982806015
2669+982816257+982767298+982892393+983274438+983704554+983968400+984078814
2659+984133987+984156725+984178780+984288989+984506403+984732284+984844610
2649+984780355+984567995+984307153+984064816+983860308+983810666+984106059
2639+984715691+985330855+985752572+986115019+986567054+986933803+986907650
2629+986488801+986069474+986052813+986458347+986944728+987190138+987184197
2619+987159752+987302122+987559755+987750197+987845725+988033435+988410632
2609+988785916+988926989+988863759+988818897+988969393+989352189+989874623
2599+990328365+990477154+990220409+989695243+989217261+989085884+989384691
2589+989935464+990463020+990835163+991117651+991400821+991667740+991907073
2580+992224658+992714112+993251842+993573797+993606164+993593804+993783700
2570+994124365+994468512+994895555+995563570+996381125+997085261+997537296
2560+997733951+997662664+997368978+997098576+997155661+997574032+998047439
2550+998206744+997936616+997484922+997272152+997431866+997609403+997475636
2540+997248731+997326301+997648461+997856656+997847916+997810838+997887657
2530+998027910+998074958+997966592+997887520+998108211+998645395+999243215
2520+999656943+999770839+999533214+999063562+998777523+999078857+999883370
2510+1000704885+1001217555+1001462828+1001557059+1001543949+1001538281
2502+1001692055+1001959589+1002099023+1001971197+1001727289+1001613393
2493+1001655250+1001663786+1001519981+1001284404+1001076277+1001008267
2485+1001137732+1001351117+1001449103+1001392360+1001266241+1001065557
2476+1000787644+1000655106+1000957055+1001708511+1002655804+1003543008
2468+1004201258+1004459095+1004244549+1003834440+1003721090+1004035603
2459+1004321641+1004079167+1003333515+1002468572+1001700249+1000935819
2451+1000054761+999147413+998450652+998105412+998052288+998160175+998343037
2441+998528768+998697700+999036795+999862680+1001232782+1002763692+1003953595
2431+1004608772+1004862581+1004889279+1004740695+1004483063+1004348476
2422+1004585760+1005177844+1005867641+1006441425+1006836170+1007048667
2414+1007150751+1007303910+1007612960+1008028190+1008421569+1008638983
2405+1008554039+1008220680+1007863081+1007605585+1007387625+1007179429
2397+1007074888+1007101996+1007131904+1007058363+1006925553+1006801755
2388+1006669422+1006527257+1006441630+1006415136+1006380380+1006391441
2380+1006604963+1006980999+1007168914+1006867512+1006286968+1006061019
2371+1006518653+1007293258+1008053250+1009185317+1011097588+1013357420
2363+1015209875+1016372260+1016868884+1016730269+1016044091+1014872078
2354+1013272749+1011616950+1010475664+1010081739+1010234352+1010627116
2346+1011052453+1011370243+1011364848+1010841184+1010002530+1009483851
2337+1009792218+1010789767+1011847815+1012476703+1012691318+1012696985
2329+1012457174+1011850683+1010978912+1010022878+1009101806+1008453526
2320+1008393436+1008940999+1009816253+1010791133+1011766968+1012561375
2312+1012855402+1012486741+1011766968+1011303052+1011395849+1011787453
2303+1012077930+1012150378+1012119514+1012117807+1012244472+1012550449
2295+1012941712+1013137617+1012843521+1012025556+1011008888+1010293143
2286+1010249784+1010859484+1011678063+1012199952+1012333104+1012380219
2278+1012562262+1012807058+1013075820+1013650560+1014806594+1016248531
2269+1017286026+1017742021+1018260495+1019417008+1020891652+1021857654
2261+1021948607+1021570523+1021364991+1021581927+1022051374+1022607404
2252+1023237999+1023846471+1024200246+1024195671+1024009872+1023958387
2244+1024200246+1024568224+1024815068+1024988029+1025305341+1025781275
2235+1026312723+1026897774+1027402728+1027408054+1026710746+1025767618
2227+1025322548+1025706095+1026619383+1027448819+1027721405+1027408532
2218+1027003203+1027260767+1028543194+1030155019+1030743278+1029869390
2210+1028769075+1028880786+1030025485+1030808557+1030472877+1029543133
2201+1028896491+1028940192+1029611894+1030717331+1032040454+1033156270
2193+1033540636+1033245721+1033021138+1033287032+1033578329+1033510250
2184+1033552449+1034257746+1035419039+1036546053+1037409631+1037628751
2176+1036713074+1035195275+1034602303+1035393979+1036046561+1035151300
2167+1033395944+1032458757+1032901369+1034270584+1036452368+1039490493
2159+1042351695+1043455288+1042701578+1041351415+1040213885+1039265090
2150+1038528860+1038241183+1038224113+1037976859+1037353092+1036555749
2142+1035753490+1035060211+1034561880+1034232755+1034110118+1034332994
2133+1034701655+1034595816+1033685260+1032373062+1031358647+1031050826
2125+1031442703+1032221815+1032934896+1033263748+1033145072+1032581804
2116+1031625497+1030602888+1029954539+1029740471+1029661331+1029586015
2108+1029766556+1030455874+1031427749+1032008020+1031768482+1031080871
2099+1030663182+1030712005+1030826379+1030693500+1030493021+1030498756
2091+1030501078+1030020842+1029143949+1028626977+1028947089+1029770175
2082+1030558299+1031205761+1031897674+1032776752+1033916604+1035280356
2074+1036464386+1036765037+1035880155+1034385641+1033238005+1033070097
2065+1034015682+1035576841+1036672855+1036642264+1036124063+1036245743
2057+1037145443+1038004036+1038350914+1038528792+1038866384+1039178575
2048+1039378030+1039946146+1041338782+1043465258+1045897300+1047916503
2040+1048555565+1047413938+1045457966+1044620473+1046245340+1049523002
2031+1051976007+1052077749+1050656503+1049467214+1049453489+1050390608
2023+1051155926+1050681631+1049405896+1049120404+1050843872+1053460143
2014+1054941137+1054462403+1052863074+1051514686+1051177094+1051864501
2006+1053282128+1054886169+1055897784+1055915811+1055428679+1055283782
1997+1055672655+1056086110+1056171190+1056028547+1055814547+1055670333
1989+1055758487+1055925166+1055885971+1055752478+1055588393+1054960802
1980+1054022113+1054064585+1055629158+1057349895+1058184725+1058946356
1972+1060505808+1062374787+1063518531+1063285071+1061613976+1059201257
1963+1057191273+1056223632+1055960127+1055645546+1054865616+1053484861
1955+1051334145+1048463861+1045432019+1042918446+1041187808+1040188006
1946+1039908932+1040296030+1040925942+1041051993+1040191898+1038617833
1938+1037227110+1037012632+1038294376+1040305931+1041818130+1042170335
1929+1041572857+1040631915+1039873152+1039629517+1040022760+1040823586
1921+1041567599+1042006387+1042401405+1043430228+1045518602+1048229376
1912+1050593750+1051928141+1052231933+1051896867+1051373340+1051033289
1904+1051010483+1051345275+1052206600+1053547204+1054847043+1055643020
1895+1055994473+1056243707+1056626639+1057139651+1057609508+1058021597
1887+1058626381+1059456978+1060207683+1060716735+1061144461+1061592740
1878+1061922411+1061977516+1061797999+1061549994+1061352383+1061273243
1870+1061359006+1061433299+1061237940+1060988160+1061025648+1061198814
1861+1061101852+1060644081+1060095221+1059725263+1059589242+1059614644
1853+1059897814+1060723631+1062096875+1063527408+1064504540+1064978904
1844+1065359378+1066032308+1066786018+1067235663+1067463388+1067827132
1836+1068395727+1068928199+1069278560+1069432197+1069383443+1069189519
1827+1068973402+1068902046+1069032194+1069043939+1068625295+1067971483
1819+1067410741+1066957273+1066467955+1065839682+1064996999+1063964898
1810+1062749321+1061143368+1059130379+1057168603+1055798364+1055324684
1802+1055687336+1056306869+1056585465+1056562795+1056502569+1056568189
1793+1057110835+1058315215+1059574288+1060395462+1060958730+1061517765
1785+1062260276+1063275784+1064413450+1065500792+1066443851+1067089196
1776+1067497393+1068055335+1069013212+1070230633+1071452492+1072464108
1768+1073141545+1073557049+1073741823+1073640832+1073388116+1073114574
1759+1072671006+1072076054+1071500290+1070849620+1070139475+1069655756
1751+1069317345+1068683609+1067633481+1066008887+1063607094+1060691880
1742+1057194482+1052273176+1045892657+1039208825+1031810955+1019991816
1734+999316141+972317921+943258162+908437964+864062011+810115348+746031908
1724+672755842+598704967+531586031+467411433+398641990+339377636+319986812
1714+337141054+369776223+407697810+447085334+485978249+525101654+563925568
1704+597305707+624482557+652744973+685458156+713966869+735089662+754063104
1694+770798975+783807402+795138862+806370015+816555137+824765645+832252010
1684+840977988+850583181+859806534+868968090+877776964+885183097+890935888
1674+896101170+901938906+909648694+920255123+931610346+939730310+944861656
1664+949416487+954543189+959619158+963542642+966202546+968132843+969945353
1655+972428812+975931877+978396559+979011586+979216026+980211458+982345581
1645+984816272+987214447+989639729+991955759+994053828+996293995+999211053
1635+1002194756+1004034715+1004883817+1005365486+1005810078+1006288675
1626+1006834258+1007600259+1008646699+1009608468+1009928306+1008840350
1618+1004012318+990991054+966909755+930641270+879461443+814809067+750091822
1608+705496133+691505521+704192197+733883439+771043975+807852921+839973952
1598+866606653+888040612+903894468+913571768+917886788+919799059+923207347
1588+930557897+941360162+953181349+963894095+972724274+979698037+985251509
1578+990641990+997502266+1005039639+1010580411+1014174975+1017460011+1021391280
1568+1025429412+1028666650+1031048504+1032690988+1033403865+1031966572
1560+1023673714+1006081641+993058737+990323790+993941093+1001180341+1010185597
1550+1019009630+1025513468+1028859823+1029655937+1028412705+1024727119
1541+1015475155+996898984+976070765+957748061+933228794+887772805+816295865
1531+737050209+664786715+599189368+544744442+513551073+508820037+525860963
1521+559582552+597264055+629850163+660518332+690189908+715216110+735721691
1511+753958085+770801228+789012357+814495920+841053646+856896645+866096236
1502+873770380+881595634+890330899+900381639+910445968+918327898+923511685
1492+926802867+929304763+932094883+935588934+939268170+942293935+944073395
1482+944520650+944067864+943612210+944283093+946800421+950870987+954921683
1472+956304213+953774048+948232593+939964931+928430260+915551093+906543037
1462+903399210+903218192+900892739+889171245+868762217+853798500+849184877
1452+851759291+857777567+862772005+862778492+858466749+854314311+850896737
1442+842211456+821796213+787626482+739352377+681216403+630917361+605559371
1432+611924662+652207652+715199244+776853168+824495858+860924876+889853053
1422+911548264+927365384+939595315+947073554+947525247+943126512+938070073
1412+935393303+935379715+935905086+936156299+938865640+947054093+958923830
1402+969597859+977176885+982544354+986342334+988424698+988577038+986838479
1392+983692809+979461640+973706937+966130029+958411023+953815359+953888558
1383+957642086+962972409+967498766+969018135+965886941+958058340+949086747
1373+944973026+948441130+957638535+969145893+979891142+988497556+994994088
1363+999157929+1000353295+998567962+994053692+986420040+974561365+957117056
1353+932470919+897407223+846654302+775787541+685459248+584197587+488067032
1343+415168299+379566225+388019241+433658809+495536736+554712355+603798484
1333+641831747+669270258+686748094+695339690+697605190+697985118+701327922
1323+710355985+723981556+737729354+746169635+746594493+741298994+735837773
1313+735237358+741366253+752568385+764622691+771656202+767937158+750867041
1303+722974379+691546832+665313451+648667100+637956949+624104200+599176326
1293+560729641+511514151+457183463+404600484+360476905+329187803+311099276
1283+303800826+304911111+313134901+327248048+345204002+364526782+383151127
1273+399593652+412863878+423362044+434016510+449215326+471675036+500424686
1264+531817135+562075264+588726948+610518711+627138568+639146169+647710726
1254+654264957+660288696+667107046+675686215+686573698+699892200+715232088
1244+731638766+747862375+762469790+773333647+776760781+767397038+740433300
1234+696278380+644306262+600369028+577787706+579588949+599194421+627119176
1224+656095083+681718148+701120409+712022915+712454191+700916379+677001555
1214+642349812+601318506+560334418+525867552+502485712+492108100+494227713
1204+506781784+527377601+553954890+584412064+615887887+644426645+664999485
1194+672064816+662194411+638957502+614899829+604959093+615044112+636383021
1184+651154930+645802552+623116961+602258083+603150954+629223937+666736200
1174+698403011+713859186+710394292+691551817+667524530+652324758+655766436
1164+677187968+707548521+737235939+761495662+780037692+794175591+805185643
1154+813995336+820919047+825431474+827054566+827178637+829357007+836660373
1145+848800716+862365310+873310970+878350475+873925451+855098749+818372289
1135+768455974+721130391+694926645+697621169+721658835+752296482+777974378
1125+793354008+796454680+785751766+759691962+718172909+664804468+608204047
1115+560368662+531178551+521436280+520976188+516337164+502214184+484892000
1105+474884721+478441081+495822637+523566238+555672724+584574510+604341745
1095+614529871+620845452+631098653+649348293+673594155+698858938+721520425
1085+740610427+756637313+770403615+782497116+793203239+802674118+811015321
1075+818294992+824698522+830523899+835974332+841211995+846470006+851801421
1065+856921910+861515730+865583770+869440269+873360407+877244492+880804573
1055+883982064+886900283+889646769+892345799+895142816+898037409+900947912
1045+903805632+906551299+909258660+912092276+915063893+918104270+921200367
1035+924254879+927153638+929886263+932244628+933236510+929778444+916251133
1026+889759573+858438412+839451107+843756773+865639216+890266439+907765443
1016+916825804+918875324+913821070+900392974+877783861+847895417+816302216
1006+787107393+757231923+723494492+695206265+687359228+697809357+703812406
996+687138537+653890423+625984104+620435753+639344805+673609860+711822230
986+746452942+774422150+795182632+809993189+821581668+832575741+843719832
976+853539365+859868535+861886440+860533955+857406789+854140804+852467387
966+853542097+856620371+858356062+853821307+839827962+818926680+799876146
956+792390259+800147435+818812033+840644629+860216984+875932704+888166595
946+897626139+905011582+911009305+916035153+919900392+921843595+920762535
936+914835281+901361503+879152598+852378687+830568283+822623396+830375861
926+848317066+868851736+886908340+900638452+910139650+916486573+921174351
916+925586743+930533042+936045066+941674811+947018381+951837399+955957266
907+959422502+962554925+965625757+968643055+971494630+974124694+976571691
897+978898236+981146392+983399942+985761995+988234598+990705220+992774065
887+993369289+990596718+981567426+962570494+931964053+895022979+863840227
877+848673027+848635812+851835631+843490468+813243879+759336548+691466804
867+627729901+582977912+560710283+559059605+579287752+621830506+678017062
857+732799785+774529764+798184703+800948738+780309322+739152171+688085283
847+636438057+585104183+537300413+510700966+524430327+575653583+640976705
837+698836132+741205993+767877547+780450873+782195646+777609063+770459129
827+763183623+757602154+755601320+759241771+770013240+787576430+809103801
817+830327311+848055337+861835637+872938144+882226434+889205797+891705918
807+885819223+868801275+844925098+826815643+826713696+845612710+873347707
798+898959847+918270335+932390686+943373560+952492372+960130599+965786018
788+966339317+951942282+909358353+840859653+777729173+758970072+792818121
778+851201417+902301421+935452983+955230938+966968410+972837692+973096417
768+965897251+946589085+906861373+835712807+726668363+589228966+453950732
758+361284457+337172430+375063699+443036960+509976447+564909017+613301866
748+660857017+705122897+738111057+748916190+726704690+673392788+614808262
738+586776302+604680839+653100455+706087739+749628589+783218733+809762460
728+830709424+847165538+860521595+871867259+881943947+891172216+899422397
718+906197797+911193191+914717629+917396652+918768802+915638632+900715476
708+862374392+791629311+697764836+613216785+570104822+572677255+601910112
698+640926312+685013905+731752321+774036077+803668936+813240465+793335981
688+737595177+658076388+589180621+564720112+590568819+644399878+699907836
679+744856754+778683772+803892632+822345347+834656671+840906564+842159765
669+842307462+847143278+856689747+866763772+875461345+882462694+887926101
659+892462359+896584547+900094099+902498555+903960362+905435893+907826010
649+911245428+915037262+918259819+920389914+921633146+921804332+918942993
639+911060927+900103454+891550027+888559428+889327545+891753033+896671199
629+904537218+913014441+919750032+924719342+928783558+932067843+934447034
619+936316492+938335353+940630761+942657816+944094699+945237282+946184575
609+946409773+945291431+942435691+937873485+932677407+928801721+927433667
599+927174396+923601068+911245496+888049489+859845114+839554966+837935357
589+854012978+877695981+899892117+917128162+929459083+937615716+942463619
579+945244520+946844122+947073622+945356505+941861361+937133637+931079717
569+923755320+917156158+914611175+917816935+925390429+934224158+941698847
560+946950781+950553880+953340586+955699361+957655879+959196553+960376077
550+961011998+960466825+958175924+954183269+948714740+941834730+934015963
540+925902212+916055092+899416183+870808391+832717087+798489041+783642771
530+792513510+815425937+837539314+848468928+847950659+844252372+846135691
520+856877185+873390110+889497775+900820086+906556967+907817202+905867443
510+901141153+892858743+879911702+862069644+840017380+816267801+797258578
500+790355556+797268957+813841562+834260765+853838582+869610021+879728225
490+883357409+880530143+870835090+853279343+829552365+807240079+796090594
480+800071709+815228257+834034679+850638354+862101600+865510980+857357147
470+837649933+811531951+787331566+773889609+775406247+788507198+805087929
460+817305091+820590196+815100295+807183404+804989533+812034243+826279415
450+842344676+856453624+868882122+881098191+893220439+904258964+912628504
441+916658715+915728834+910195915+900243502+884987670+862657699+832726646
431+799169210+770968590+756887912+760239934+778376225+804007689+829509893
421+851376017+868174093+878322479+883662771+887232002+889386747+889128432
411+886283412+882218240+878505819+875575719+873236610+872307753+874908524
401+883511183+900143672+922681498+940982283+948206850+947605002+943416442
391+937328585+930264279+923797314+919190861+915499403+910766080+906200460
381+904669551+906155871+908371730+909300996+908429497+906581754
##END=
