##TITLE=X9564
##JCAMP-DX=5.0
##DATA TYPE=LINK
##BLOCKS=1


$$ === CHEMSPECTRA SPECTRUM ORIG ===
##TITLE=X9564
##JCAMP-DX=5.00
##DATA TYPE=INFRARED SPECTRUM
##DATA CLASS=XYDATA
##ORIGIN=Default
##OWNER=
##XUNITS=1/CM
##YUNITS=TRANSMITTANCE
##XFACTOR=1
##YFACTOR=8.7494201e-010
##FIRSTX=3996.5625
##LASTX=399.65625
##MAXX=3996.5625
##MAXY=0.9394618288366843
##MINX=399.65625
##MINY=0.39690828394353933
##NPOINTS=1765
##XYDATA= (X++(Y..Y))
1765H72978030H73222255H72923871H72755741H73162033H73660292H73849474H73779646
1757H73575751H73506673H73471725H73174977H72977894H72908612H72448161H72214359
1749H73098133H74139001H74510277H75081702H75798096H75540655H74339831H73578340
1741H74052620H74398826H73890961H73504425H73620168H74136140H74436567H73887419
1733H73245349H72962838H72725153H72953028H73469750H73810983H74480643H75113244
1725H74997229H74637193H74311832H73986199H74055958H74503124H75056224H75612117
1717H75438673H74626088H74136140H74336765H74589370H74385815H74578061H75150508
1709H75506593H75978761H76163036H75791828H75587660H76268833H77883579H78588459
1701H77841274H77357593H77112278H76644674H76307323H76769545H78921177H79293612
1693H76498139H74763835H74949336H76195804H77222775H77262968H76725604H76043615
1685H75622949H75597334H75484316H75432337H75687121H76299898H77618031H78164046
1677H77753326H77599570H76674376H75428659H75517152H76793116H77087413H76731260
1669H77062683H76673422H75799867H75508091H75288255H75233892H75542221H75875484
1661H76194237H76587041H77560126H78489543H78110909H77350031H77297848H77729891
1653H77881808H77935694H78107026H78182371H78360039H78479052H78374209H78639416
1645H79876686H81202381H81082891H81262194H81989487H80139032H78173720H78855369
1637H80276370H79619109H77623004H75596312H74398213H74989803H76573007H77252067
1629H76707212H75754428H75229668H75715529H76983183H77282792H76716545H76571304
1621H76782625H76828337H76719815H76492893H76464826H77364814H78908642H79795823
1613H78541862H76240425H75231507H76283071H78099941H79734988H81009454H81354094
1605H81207218H79791054H77949387H77623277H77890459H77461278H77010773H76833923
1597H76751629H77857147H80566102H82344346H80744928H78306630H77315424H77378234
1589H77146408H76614767H76349083H76468982H77635812H78757271H78039106H77558150
1581H77862529H77947682H78096126H78687307H79209751H79243268H78909801H78259488
1573H77166709H76291859H76263383H76700944H76616402H76192398H76015957H75646656
1565H75732560H76932635H77936103H78115950H77645690H76801632H76066913H75683375
1557H75696114H76019158H76576959H77180606H77093816H76466938H76088441H76158881
1549H76633433H76969216H76740456H76389890H76051585H75857091H76337502H77121406
1541H77292125H76469867H75253511H74820038H75639366H76910154H77350372H77101922
1533H76850954H76290497H75686440H75998244H77151448H77666876H76828268H75952192
1525H76159153H76991494H77821586H77973707H77004233H76099954H76200096H76325104
1517H76058875H75880185H76189809H77327686H78256013H77945027H77020719H76563402
1509H76737255H76755171H76238859H75341937H74832232H75479411H76319654H76220056
1501H75850549H75955326H76194714H76189469H75819078H75469533H75498281H75785629
1493H76292881H76444457H76055060H76071001H76440029H76341385H75908661H75291320
1485H74755047H75002747H75561637H75536703H75091444H74873106H75071279H75266659
1477H75367892H75767440H75895715H75092670H74479145H74814724H75302356H75367074
1469H75204326H75026113H74845039H74803075H74958738H75230622H75276810H74984149
1461H74504555H74033409H74068629H74516954H74806004H74613485H74341534H74490045
1453H74576290H74440518H74641893H75133000H75603533H75772822H75581325H75884273
1445H76649579H76893736H76565377H75914997H75400932H75545560H75734945H75587388
1437H75935229H76815938H77157785H76807082H76671855H76941627H77127401H77014656
1429H76829835H76741683H76607342H76851158H77572456H78044556H78042785H77495408
1421H76332325H75582619H75830046H76073998H75867378H75718186H75975968H76338252
1413H76248737H75728405H75066851H74197656H73393996H73376624H73949957H74501013
1405H74843404H75128027H75579622H75862609H75433155H74769353H75172853H76425927
1397H77199136H77713746H78342122H77980315H76594535H75748774H76055945H76833855
1389H77451808H77858850H77700938H76709460H76004103H75876711H75431043H75061061
1381H75261278H75662801H75744482H75382334H75120874H75188725H75314006H75373410
1373H75471577H75497055H75079659H74436840H74202220H74201267H73870865H73565669
1365H73818682H74179260H74254608H74237917H74316124H74680247H74843472H74387450
1357H74209782H75157048H76598690H77500176H78138568H79389394H80890918H81691240
1349H82572221H84210742H85728751H87248532H89002864H89674704H86104796H71134319
1341H42992250H19607082H18212513H30863025H42356311H48802214H51308977H50575553
1333H46193674H36134809H18068908G89868252G52820250G16869863F95799553F94887030
1325G08546936G28586256G49229496G66962951G80468351G90298933G97474717H02075613
1317H04089023H04360566H04174110H05360628H08535757H11337837H11676687H11224888
1309H13207435H17949282H22835620H25887240H27411789H28797297H30878284H33497452
1301H35811832H37591302H39422342H41254472H42913906H44456032H45409566H45686218
1293H46247969H47298306H47980501H48428009H49242841H49968158H50331532H51013182
1285H51974890H52648229H53031904H53341324H53958392H54708779H54642767H53761581
1277H53019505H52296777H50984843H49738853H49433725H49771620H50229278H50895191
1269H51468115H51479969H51128925H50539175H49609349H48113752H45454527H41741900
1261H38140928H35261594H32571918H29562127H26679659H24212681H21654484H19284719
1253H18333298H19447331H21677715H23396009H24065942H23898356H22531990H19681406
1245H15980495H11702846H06565130H00981815G95665137G91217654G88225167G87075913
1237G88001583G90632877G94497966G99222782H04337538H09553054H14016069H17301626
1229H19874946H22246279H24834382H27343869H29508990H31429272H33082576H34523810
1221H35791804H36993786H38079071H38590342H38317437H37727005H37143659H36379851
1213H35399341H34053140H32374290H30994572H29794907H27922720H25090392H21875138
1205H19325662H18466140H19757569H22877653H27226491H32104246H36839416H41077622
1197H44635403H47361594H49479640H51373423H52969775H54062826H54806672H55624503
1189H56568976H57445393H58076154H58564740H59445653H60401434H60759426H60816855
1181H60874011H60534412H59782390H59161711H58741453H58456150H58736549H59596275
1173H60465130H61493123H62689586H63337853H63543590H63898994H64406723H64801979
1165H65245262H65757624H65947077H65764709H65307187H64820304H64512383H64415511
1157H64996950H66173794H67071874H67685945H68251852H68406153H68106339H67492880
1149H66817022H66229792H65425791H64600331H64308011H64204190H63706339H63330771
1141H63532145H63975088H64522193H65192330H65771794H66086050H65930114H65075838
1133H64107862H63564026H63271843H63317895H63715604H64335192H65147368H65896597
1125H66406302H66520478H65847207H64848303H64490515H64427228H64091172H63971614
1117H64436834H64981350H65015139H64378179H63202765H62453196H63117474H64626627
1109H66132443H67555215H68644858H69184675H69245714H69105651H69118186H68663390
1101H66916824H64203849H61564720H60037787H59885053H60870400H62542234H64269180
1093H65810284H66761841H67079368H67727160H69050607H69893370H69578433H68980167
1085H68875664H69497501H70514593H71202716H71256670H71097396H71218044H71571403
1077H71982941H71687487H70951883H71101347H71573992H71686056H71597086H70969323
1069H70550768H71067830H71316142H70895748H70371738H70024782H70269552H70658881
1061H70828851H71233848H71926534H72646879H73233427H73376829H72575212H71455252
1053H71453208H72504704H73518459H73949957H73810234H73306252H72678420H72126069
1045H71769781H71730269H71949969H72362733H72985387H73409869H73626844H74391673
1037H75540041H76094231H75807020H75293705H74867997H74504419H74839249H75499440
1029H75582346H75974196H76882495H76582340H74818403H73925773H74762744H75449028
1021H75507751H75972289H76250508H75601694H75047640H75551009H76785214H77995439
1013H78734994H78802369H78468016H78161117H77443497H75738351H73625482H72341546
1005H72640748H74082186H75371843H75699316H75219381H74454416H73447609H71716303
997H68927575H65470549H62573912H61749610H63539980H66359160H68515969H70257834
989H71729724H72678284H73711045H74627110H74467904H73142073H71092832H68832337
981H66664015H65252007H65332734H66368016H67626472H68862516H69300282H68713052
973H67861773H66523066H64285189H61775974H59760113H59089295H59252112H58416434
965H56809795H55652843H54977188H54904772H55451264H56898288H59577882H62747492
957H64852731H64654831H62884490H61644631H61056583H61223011H62112030H62221506
949H61243720H59490001H58166622H58959178H60984167H62708729H64520693H67106345
941H69152998H69348241H68551802H68006401H68465353H70317443H72720180H74343782
933H74951449H75221084H75829092H76385939H76611974H77640989H78515430H76989518
925H74510412H73445430H72566833H70478147H68296677H67020917H66550860H66508215
917H67052663H68037125H69179293H71278538H74446309H76804766H77232653H77403304
909H78291914H79068325H79366096H79245448H79115535H79029903H77895160H77170728
901H79663117H82192838H81016062H79381628H79865582H80292379H79695680H78113021
893H75784266H75419871H77708091H79510723H79326516H79803521H82599130H85284650
885H86201873H86034152H85626633H85761860H86249901H86866628H88568777H90085220
877H88739019H85831687H85179739H86972221H86923853H84575546H83681963H84868412
869H86699997H86462244H84914736H85031774H83302784H80341974H81913256H84914532
861H84303323H81223091H79457859H80479925H82893426H83972648H82686465H80956453
853H80498727H81596411H83187177H83315114H82760925H83419821H84593259H85883802
845H86620837H85446173H84528132H85709949H86911113H86049003H84454149H85216526
837H87547461H88243825H87043819H85990552H86124825H87180680H88865117H89311466
829H87796114H87351263H88981269H89722732H88806871H88262151H88553926H89203626
821H89562572H89508345H89359630H88306500H87682891H90051567H93840970H96142475
813H96153103H95081510H95598913H96930330H96504214H95606475H93893288H90151096
805H87982433H89995228H92913255H93108432H92262330H93183573H95517096H97031290
797H96882507H94477590H90743571H91095024H95368108H97651084H97649653H98706258
789I00919065I00872809H98654279H95480581H92265055H93666300H99055326I01411330
781H99438728H97331241H96146222H95008481H95408234H97522670H99557877I01291840
773I02937787I03849424I02236653H99423809H99047968I00335037I00360991H98534926
765H97098120H97426342H98580296H99225840H98413937H97952873H99643169
758I00816470H99639831H98527160H98409714H98218626H98151727H97798913
751H96442698H95779578H95964467H95159172H93790013H92621753H90441850
744H86754292H81350960H71535502H57167651H45985010H45443628H54189060
737H65542692H74611578H80529587H84674395H88443293H91480811H93030089
730H94240654H95851653H97099891H97807020H98628937H99690106I00582600
723I01337688I02385914I02885059I01725995I00926286I01693023I02820545
716I03872927I04536387I04084588I03041540I02209745I01725859I01705422
709I01543900I00944680I00435657H99661016H98416049H97530708H97952873
702H99530764I01265817I02909039I03855419I03703366I03481554I03744853
695I04324794I05413826I06601706I06886124I06522478I06422676I06484873
688I06692038I07045739I07033885I07135935I06741496I04170561I00630015
681H97270134H94290317H92001415H89400164H86190565H84213126H84500337
674H85630993H85038314H83309324H81804258H80061166H77013838H73270487
667H70166957H68109675H67416582H68116285H69888397H70907670H70388905
660H69674488H69648464H69658546H70157964H72522075H74844290H74679906
653H74039063H73886601H74161959H74644618H75720230H78062337H80830015
646H82238207H82872307H83937019H85991302H88602908H90330126H91387140
639H93213820H94360144H94104883H93306060H92173565H91801743H92759091
632H95098337H97394733H95777398H92614328H91094683H91110692H90950532
625H90180594H88871862H85075032H79800932H75071961H71209256H68895216
618H68213566H69319697H74223679H81023487H85555648H91494980H97602647
611I00648340I03436796I07292144I11798962I15571812I16101613I15844581
604I17001124I18708109I19598423I18656539I15316074I11577014I07884755
597I03311788H99638400H98049269H98280823H99580495I01331080I02270307
590H99790181H95016111H95053579I03300616I13875317I21070926I25391970
583I29058069I32926837I37157208I41770913I46911695I52231166I55382315
576I57606635I61090434I64160038I66640301I70033494I74104251I80688582
569I88234826I90210834I90946574I92651039I95326341I98231494A000876276
562A004226211A009591461A016312177A021150147A026427858A034370652A041984952
555A048513558A056178815A064091975A070482153A073741823A072784884A066976077
548A052945031A025774412I82989610I27711392H47620261G62510087G13751073
541F86735025F75075926F77097373F84720665F92695818G02731453G13757409
534G20041040G17109524G01691403F81905845F76685290F89151049G05695806
527G15669993G18181729G18261639G20113865G25812922G33310118G41338953
520G52179202G64859006G74278935G82734704G92292993H02565768H06831019
513G90805299G61708811G50269002G64956219G86072785G98936797H07908197
506H16166542H23062337H28994925H34033657H37301638H38226968H34607875
499H24125210H00496226G58033651G11370885F89379469G02064382G31232333
492G57653451G77882496G91191563H00029303H06842464H11214805H14692677
485H18658999H22082099H24619654H27271317H30912687H36510922H44251864
478H51800629H56914297H59712903H61212588H62932994H65542215H68347566
471H70960398H73457896H75667774H77824583H81062522H87037415H96278723
464I07212983I18369601I30402498I44839291I61446859I74498553I66383268
457I16052223H32526479G59916874G26294357G21791830G31892591G49520250
450G67879629G84325266G98644136H10534722H20569880H28640135H31363532
443H23290280H07640538G99896802H07815889H22401397H34664486H42889995
436H45453029H41497811H38663439H44457395H54582136H62281659H66936580
429H70099923H72429427H73823246H74839113H76636908H79032220H81546544
422H84315244H86911658H88754892H90059878H91532994H93419486H95050786
415H95730188H95528336H94386304H91302666H81732932H51019382G78994009
408F80974248F20966854F32230426F80094425G27236241G65062152G94537615
401H17094393H33137484H41957104H39372543H15742197G70406488G29749203
394G22822343G44606662G72621816G96337862H15073832H29388206H40134307
387H48824287H56745009H64375318H71787016H78057500H81488026H83789599
380H89534709H97218359H98906270H83365390H41745306G96442365G89622596
373H20883592H56153214H80365477H96866226I09904226I21456168I32203768
366I43077398I54357660I65485597I76542072I87200906I91296800I68007552
359I00564888H26023760H00644328H16968772H39831019H63806209H92378209
352I23959388I55116494I73609669I55187752H88485189H14403559G88688138
345G97236556G77948372G11439963F41777611F13944008F25386133F53342428
338F85981098G19126338G50924424G80435856H07378737H32581319H55833031
331H75997972H95595779I18492020I45283120I72930336I95359722A003623517
324I86551002I40299295H82295841H36497638H02643157G64017060G16326846
317F73564321F50087731F45206502F48879073F54283699F60149049F67330215
310F76063794F85622356F96012304G08452244G24902036G49676390G78193347
303G76345957G32495899F98194252G02182441G20347190G35264054G46675251
296G57889092G70523798G84042687G98516335H16564455H42659532H73273893
289H76558769H16767397G30092208F87513618F92099937G08538284G23287972
282G35032023G42813908G48485036G55039529G62206662G68560870G72672433
275G66341387G39950243G12135033G13952516G37175276G55971058G65190293
268G69131001G67673622G61498784G60544229G69867967G81099317G88320540
261G92544848G95331124G97429347G99330554H01327545H03468822H05425278
254H06815827H08450261H10612793H12549084H14023562H14873206H15414316
247H15845950H16193588H16550149H16494424H16430523H17199985H17460560
240H15444359H12499626H11540847H14163217H19217481H24350973H28832313
233H32795092H35591928H37165527H39203800H42897966H46724770H48444903
226H48458256H48885189H50971967H53864176H55734864H55490367H52310333
219H42932096H14749425G49013745F59995497F05235090F06413433F20719155
212F07403140E55112709D89625718D68580137E12646898E85656085F50843159
205F95888387G23530834G40634890G50833410G52730735G42432072G16656294
198F71095775F04819124E31359262D75462273D53639532D63005848D89536748
191E21753899E52627779E78214480F00033678F21765541F43313742F62725843
184F81028270F98593391G13201652G25171331G37152454G48913673G58492399
177G66720838G75593254G85221030G94516769H02626739H04376780G86375665
170G49328344G23813685G27999299G45411617G59705485G69438172G77479474
163G84174235G88706123G91953735G94934710G97470153H00451945H04835391
156H10162492H16105639H21819685H23763062H18600549H07984905G94518676
149G77352627G46383816G20012632G39970680G84616905H10753741H21606797
142H28209454H32425519H35214520H37670599H40703416H44586899H49007472
135H52706339H53696250H54046953H58920756H63652793H66393290H67631513
128H66043132H58439732H36571280H02271472G81040117G91030449H17110402
121H37687970H49115176H55915461H60723797H64418917H67146811H69494027
114H70677956H68341299H64363328H63700208H67064857H71620657H75228851
107H78245318H81749350H85115362H87605434H89204920H90859246H92376029
100H92725710H92726937H94079200H96856211H98631321H99010841H99395946
93H99536555H99778395I02021995I06764046I10957357I11097419I07784613
86I06259655I09928547I16127296I21032777I24557450I28174499I31608431
79I35196596I40275249I46240536I52350451I58380047I63360329I69295572
72I77292936I84464361I91833550A001242784A012320718A024057343A024992006
65I92080772I25117430H50287729G70165125F71049451E68545557E03849725
58E02696316E45238868E97668749F45115011F84995819G14456226G34235039
51G50029886G64692987G78818590G92516781H06094257H17368592H23692894
44H28772841H35001769H39984502H46960138H57084675H63554150H66857011
37H71859364H75193971H75806747H81939893H91506221H95611788H97886929
30I04114563I10382117I08837199H89087406H28112582G36274266F80234829
23F94254702G43858864G88999329H18450812H39498641H54312842H61999489
16H68205051H72593401H71654992H70175677H72604914H71855617H57571831
9H48232901H59321394H79433130H92654521H95133421H95544141I02769997
2I10352211I07540523
##END=


$$ === CHEMSPECTRA PEAK TABLE EDIT ===
##TITLE=X9564
##JCAMP-DX=5.00
##DATA TYPE=INFRAREDPEAKTABLE
##DATA CLASS=PEAKTABLE
##$CSTHRESHOLD=0.93
##MAXX=3996.5625
##MAXY=0.9394618288366843
##MINX=399.65625
##MINY=0.39690828394353933
##$CSSOLVENTNAME=- - -
##$CSSOLVENTVALUE=0
##$CSSOLVENTX=0
##NPOINTS=50
##PEAKTABLE= (XY..XY)
415.96875, 0.742154599349071
446.5546875, 0.5951660285572663
515.8828125, 0.4398301251406352
623.953125, 0.7556875960249381
650.4609375, 0.6833648098586153
697.359375, 0.6299692994674704
742.21875, 0.6332950004194069
793.1953125, 0.39690828394353933
823.78125, 0.4099804469128554
836.015625, 0.529545606167131
882.9140625, 0.7100511798712825
937.96875, 0.6654320964151603
954.28125, 0.6230768571644364
980.7890625, 0.6015345468352922
1011.375, 0.6108794822153265
1039.921875, 0.564518273724949
1092.9375, 0.5371654043869761
1103.1328125, 0.6900563847248774
1125.5625, 0.7005173576354193
1160.2265625, 0.690873981285658
1201.0078125, 0.6324276336573295
1227.515625, 0.5433099873821365
1282.5703125, 0.7337818750321724
1296.84375, 0.699863315734452
1321.3125, 0.6315259945417784
1406.953125, 0.6031670582595927
1439.578125, 0.6564418686505741
1478.3203125, 0.5920603877700329
1498.7109375, 0.5906522875970512
1596.5859375, 0.7831199774679538
1610.859375, 0.7857410324978907
1659.796875, 0.7602329267664242
1729.125, 0.7647334945997367
1741.359375, 0.7608919750855727
1755.6328125, 0.7595456248198887
1833.1171875, 0.7852873216942431
1904.484375, 0.7397141472240123
2271.515625, 0.7581817512156286
2328.609375, 0.7508460291675902
2357.15625, 0.7484702483812007
2424.4453125, 0.7539809358901162
2634.46875, 0.7523495566407765
2793.515625, 0.7513446822425235
2852.6484375, 0.7161104096485414
2921.9765625, 0.6886457813428052
2952.5625, 0.715994180602049
3068.7890625, 0.7097747340687449
3078.984375, 0.7036057121933611
3101.4140625, 0.6079858547511303
3127.921875, 0.7158885016063131
##END=


$$ === CHEMSPECTRA PEAK TABLE AUTO ===
##TITLE=X9564
##JCAMP-DX=5.00
##DATA TYPE=INFRAREDPEAKTABLE
##DATA CLASS=PEAKTABLE
##$CSTHRESHOLD=0.93
##MAXX=3996.5625
##MAXY=0.9394618288366843
##MINX=399.65625
##MINY=0.39690828394353933
##NPOINTS=178
##PEAKTABLE= (XY..XY)
3990.4453125, 0.7636106622695794
3965.9765625, 0.7631369844143217
3949.6640625, 0.7643303886920635
3941.5078125, 0.7642657173533943
3927.234375, 0.7635838995433776
3908.8828125, 0.76468724166532
3894.609375, 0.7648184313452414
3888.4921875, 0.7650368824915882
3874.21875, 0.7660884271715966
3857.90625, 0.7667180905633393
3847.7109375, 0.7653676280702084
3827.3203125, 0.7659525285537774
3811.0078125, 0.7659493105170646
3802.8515625, 0.7670890108542326
3790.6171875, 0.7657789006866029
3772.265625, 0.7675847424977945
3755.953125, 0.7685264959546201
3747.796875, 0.7708964356281509
3739.640625, 0.7683510797059773
3727.40625, 0.7650477300226282
3715.171875, 0.7657752049315527
3704.9765625, 0.7669490586300811
3694.78125, 0.7668558965547403
3682.546875, 0.7657768139499092
3664.1953125, 0.7678694740011668
3654.0, 0.7671068325480344
3641.765625, 0.7676001204785623
3633.609375, 0.7667546281416768
3623.4140625, 0.7678124916528816
3600.984375, 0.7666796456114199
3590.7890625, 0.7661400452504186
3574.4765625, 0.7661721722460838
3560.203125, 0.7665265815063065
3545.9296875, 0.766324163672293
3533.6953125, 0.7654168024359964
3519.421875, 0.7661748539433444
3509.2265625, 0.7664073715323859
3496.9921875, 0.7665366547136676
3488.8359375, 0.7663443695830718
3476.6015625, 0.766942144838318
3466.40625, 0.7654274714788664
3458.25, 0.7663184398016635
3448.0546875, 0.7659850728967814
3437.859375, 0.7664973750670706
3425.625, 0.7653599390798245
3415.4296875, 0.7654632338585831
3401.15625, 0.7651185408293815
3386.8828125, 0.7654019607946808
3374.6484375, 0.7647285476776121
3364.453125, 0.7649981391844434
3358.3359375, 0.7650847444443613
3348.140625, 0.7660828844139633
3335.90625, 0.7659250509999533
3329.7890625, 0.7660881891873699
3319.59375, 0.7670370349241286
3307.359375, 0.7669805897902374
3293.0859375, 0.7660840165889242
3284.9296875, 0.7662026298523938
3268.6171875, 0.7641538988895743
3252.3046875, 0.7653724560002195
3235.9921875, 0.7662293925785958
3215.6015625, 0.7656276835840726
3205.40625, 0.7656800164905168
3182.9765625, 0.7643193023018547
3174.8203125, 0.7649074803181932
3164.625, 0.7648828638247419
3127.921875, 0.7158885007313711
3101.4140625, 0.6079858547511303
3078.984375, 0.7036057121933611
3068.7890625, 0.7097747340687449
2993.34375, 0.7432052507132872
2952.5625, 0.715994180602049
2921.9765625, 0.6886457813428052
2852.6484375, 0.7161104096485414
2795.5546875, 0.7510993493778615
2758.8515625, 0.7563134446695171
2726.2265625, 0.7553643600735898
2703.796875, 0.7553128014908245
2677.2890625, 0.7559250605361042
2665.0546875, 0.754596532839164
2648.7421875, 0.7604170451882986
2634.46875, 0.7523495566407765
2610.0, 0.7602158199002447
2599.8046875, 0.762159706562006
2589.609375, 0.7620323911253049
2577.375, 0.7616814387609637
2567.1796875, 0.7612212315128919
2544.75, 0.7624710214284681
2526.3984375, 0.7627134337367008
2501.9296875, 0.7651406541137422
2485.6171875, 0.7646343724194238
2471.34375, 0.7656159409873564
2448.9140625, 0.7632482656637475
2424.4453125, 0.7539809358901162
2395.8984375, 0.7570453301611141
2371.4296875, 0.751653314536783
2359.1953125, 0.7479920995722718
2340.84375, 0.7533745774537519
2328.609375, 0.7508460291675902
2310.2578125, 0.759455265183806
2269.4765625, 0.7581444393136122
2236.8515625, 0.7674735198694833
2228.6953125, 0.7694079291593923
2216.4609375, 0.7659416215266808
2210.34375, 0.7693597093553372
2198.109375, 0.7748719463865523
2181.796875, 0.7744809400519355
2173.640625, 0.7731704729079657
2165.484375, 0.7742490777944594
2159.3671875, 0.7702481762189278
2149.171875, 0.7694746268637567
2136.9375, 0.7703853260038213
2128.78125, 0.7723646180689593
2116.546875, 0.7739108217136254
2108.390625, 0.7738460908788996
2098.1953125, 0.7751903544078895
2085.9609375, 0.7763808976252586
2077.8046875, 0.7771778718028636
2063.53125, 0.776671052894151
2053.3359375, 0.7831444154732351
2039.0625, 0.7769331347737104
2030.90625, 0.7806777964574834
2018.671875, 0.7793489704053177
2010.515625, 0.7853913916716225
1998.28125, 0.7806801806744605
1984.0078125, 0.7830805193331869
1965.65625, 0.7866148362083357
1957.5, 0.7849088322800213
1947.3046875, 0.7856566915878948
1926.9140625, 0.7837551844922718
1904.484375, 0.7397141472240123
1863.703125, 0.7882582555346749
1833.1171875, 0.7852873216942431
1818.84375, 0.7904939668546835
1804.5703125, 0.7930672780490188
1796.4140625, 0.7936020504800089
1776.0234375, 0.7736352097308233
1753.59375, 0.7589392077624099
1741.359375, 0.7608919750855727
1727.0859375, 0.764600099191008
1690.3828125, 0.7802748095419235
1678.1484375, 0.7796561730443329
1657.7578125, 0.7596365225453077
1631.25, 0.8013108985477478
1610.859375, 0.7857410324978907
1598.625, 0.7830871951407231
1498.7109375, 0.5906522875970512
1478.3203125, 0.5920603877700329
1439.578125, 0.6564418686505741
1406.953125, 0.6031670582595927
1321.3125, 0.6315259945417784
1296.84375, 0.699863315734452
1282.5703125, 0.7337818750321724
1227.515625, 0.5433099873821365
1201.0078125, 0.6324276336573295
1160.2265625, 0.690873981285658
1125.5625, 0.7005173576354193
1103.1328125, 0.6900563847248774
1092.9375, 0.5371654043869761
1039.921875, 0.564518273724949
1011.375, 0.6108794822153265
980.7890625, 0.6015345468352922
954.28125, 0.6230768571644364
937.96875, 0.6654320964151603
893.109375, 0.7143293628189713
882.9140625, 0.7100511798712825
836.015625, 0.529545606167131
823.78125, 0.4099804469128554
793.1953125, 0.39690828394353933
742.21875, 0.6332950004194069
697.359375, 0.6299692994674704
650.4609375, 0.6833648098586153
623.953125, 0.7556875960249381
572.9765625, 0.7929246441276065
515.8828125, 0.4398301251406352
446.5546875, 0.5951660285572663
424.125, 0.7613532558874908
415.96875, 0.742154599349071
##END=

##END=

