##TITLE=X8257
##JCAMP-DX=4.24
##DATA TYPE=INFRARED SPECTRUM
##DATE=31/10/2018
##SAMPLING PROCEDURE=Diamant-ATR
##ORIGIN=ComPlat
##XUNITS=1/CM
##YUNITS=TRANSMITTANCE
##RESOLUTION=4
##FIRSTX=3997.453
##LASTX=373.96442
##DELTAX=-1.4165319
##MAXY=0.95421243
##MINY=0.32745498
##XFACTOR=1
##YFACTOR=8.8867958e-010
##NPOINTS=2559
##FIRSTY=0.94864029
##XYDATA=(X++(Y..Y))
3997+1067471689+1068204641+1069214663+1069642778+1069285222+1068592177
3989+1068055542+1067838299+1067871834+1067992831+1068047762+1068094980
3980+1068330869+1068643956+1068570580+1067965935+1067360887+1067333791
3972+1067819184+1068358569+1068684333+1068768842+1068621353+1068291967
3963+1067950442+1067874316+1068321412+1069218218+1069993291+1070011937
3955+1069257991+1068401763+1068190086+1068876692+1070044667+1070865214
3946+1070873330+1070502695+1070587071+1071328071+1071900589+1071480322
3938+1070259026+1069067375+1068516789+1068740270+1069460613+1069995638
3929+1069853045+1069441967+1069504813+1070093763+1070582174+1070579022
3921+1070208455+1069550957+1068576214+1067561899+1066979723+1067007222
3912+1067585374+1068619408+1069776450+1070496391+1070570772+1070477141
3904+1070800558+1071379716+1071714937+1071858536+1071896230+1071557991
3895+1070905859+1070522012+1070819136+1071283938+1070951467+1069887386
3887+1069002317+1068757507+1068535770+1067735613+1066890653+1066800643
3878+1067296097+1067794904+1068235896+1068622829+1068779238+1068989171
3870+1069821924+1070964882+1071658463+1071918833+1071890931+1071068775
3861+1069303935+1067576454+1066872275+1067362095+1068819414+1071072732
3853+1073237516+1073741823+1072735020+1071321431+1070142457+1069440827
3844+1069249004+1069510849+1070187596+1071187423+1072132320+1072476394
3836+1072182623+1071668859+1071006130+1070036820+1069051681+1068699960
3827+1069183744+1069955932+1070449843+1070938389+1072080273+1073415522
3819+1073563749+1072541185+1071426062+1070712091+1069934268+1068720283
3810+1067386039+1066691250+1067381679+1069219694+1070804783+1071322102
3802+1071080646+1070681104+1070580498+1070917597+1071255500+1070785265
3793+1069441900+1068151118+1067598788+1067619312+1067825555+1068131936
3785+1068418061+1068457633+1068383519+1068448310+1068381172+1067720723
3776+1066723243+1066105922+1066271453+1067191600+1068444956+1069253229
3768+1069260339+1069109630+1069448942+1070069416+1070506049+1070735297
3759+1070850794+1070697872+1070269154+1069880008+1069832320+1070433813
3751+1071825738+1073115178+1073175140+1072235743+1071177430+1070392565
3742+1069308697+1067417898+1065018030+1063102347+1063085579+1065104685
3734+1066501976+1065319380+1063134273+1061921428+1062070661+1063139639
3725+1064444707+1065227023+1065232657+1064894418+1064645987+1064550008
3717+1064529350+1064506479+1064491321+1064756453+1065550708+1066456770
3708+1066834581+1066455697+1065322063+1063759241+1062468191+1061873472
3700+1061658644+1061567427+1061823504+1062599449+1064032086+1066433496
3691+1069613132+1071993952+1071637134+1069105405+1066491379+1064592464
3683+1063339510+1062770882+1063097451+1064453560+1066826063+1069661356
3674+1071226459+1070594247+1068912106+1067446537+1066779583+1066655032
3666+1066471526+1065831400+1064650883+1063300006+1062367584+1062209900
3657+1062963376+1064386422+1065494703+1065635955+1065616907+1067022850
3649+1069609510+1070019851+1067543522+1064924264+1063728321+1063709273
3640+1064062603+1064288163+1064196276+1063640525+1062634192+1061451394
3632+1060363905+1059571595+1059444026+1059979588+1060249750+1059876969
3623+1059567034+1060327016+1062490391+1064884089+1065773182+1065218907
3615+1064507955+1064223842+1064264084+1064599439+1065318977+1066078355
3606+1066075538+1065013335+1063544278+1062490727+1061999901+1061623230
3598+1061205109+1061006110+1060920393+1060476383+1059717340+1059330608
3589+1059915468+1061368696+1062760687+1063433611+1063681908+1063740260
3581+1063511346+1063075452+1062569803+1061825315+1060886656+1060426482
3572+1060931862+1062186560+1064019476+1066484873+1068530472+1068233481
3564+1065846156+1063442934+1062216138+1061951274+1062019217+1062163219
3555+1062327073+1062339280+1062074953+1061662400+1061402633+1061595463
3547+1062229351+1062634661+1062087831+1061002219+1060516827+1060989074
3538+1061617328+1061489155+1060634872+1059815331+1059589301+1059996422
3530+1060762977+1061406389+1061459443+1060969690+1060567666+1060789202
3521+1061371311+1061472521+1060655596+1059461196+1058834216+1059017722
3513+1059327724+1059071781+1058366127+1057906154+1058105288+1058700476
3504+1059126511+1059023088+1058478203+1057864771+1057460199+1057280449
3496+1057165355+1056973733+1056776946+1056838451+1057353355+1058185170
3488+1058873050+1059004174+1058607516+1058060418+1057608091+1057074742
3479+1056140375+1054867368+1053875253+1053881893+1054897617+1056063244
3471+1056561246+1056358625+1055827355+1055132969+1054355817+1053763379
3462+1053543184+1053583427+1053788530+1054301758+1055161273+1055944729
3454+1056061902+1055456385+1054773938+1054626515+1054854020+1054803985
3445+1054274124+1053728703+1053580744+1053673906+1053506765+1052877437
3437+1052222422+1052147839+1052672871+1053214536+1053304814+1053016006
3428+1052735582+1052783672+1053141295+1053358672+1052904132+1051769625
3420+1050597090+1050102441+1050446381+1051163907+1051619386+1051533468
3411+1051104415+1050752359+1050853838+1051458282+1052140595+1052450195
3403+1052494194+1052622769+1052700974+1052299554+1051442788+1050586560
3394+1049991439+1049565135+1049193428+1048936881+1048973435+1049360770
3386+1049794585+1049808066+1049411408+1049197251+1049512350+1049922422
3377+1049889222+1049581500+1049474992+1049512887+1049254999+1048675170
3369+1048324657+1048683956+1049495381+1049870442+1049336691+1048675036
3360+1049093156+1050512446+1051470086+1050948542+1049506314+1048257384
3352+1047595058+1047362858+1047470977+1047829404+1048188301+1048367582
3343+1048345516+1048116669+1047734230+1047315976+1046851308+1046315075
3335+1045977037+1046159805+1046742653+1047306854+1047654416+1047885945
3326+1048129011+1048477646+1049051103+1049781372+1050187286+1049765946
3318+1048716620+1047910896+1047999698+1048800794+1049558227+1049543941
3309+1048539016+1047027503+1045895613+1045743764+1046436876+1047240856
3301+1047420137+1046787389+1045690912+1044604898+1043920572+1043938816
3292+1044707517+1045852955+1046757811+1046991084+1046621455+1046096692
3284+1045809762+1045934380+1046590133+1047684061+1048541497+1048335120
3275+1047081562+1045695272+1044928650+1044756546+1044852658+1045040658
3267+1045085998+1044672774+1043988649+1043793741+1044427093+1045191635
3258+1045163600+1044239428+1043036643+1042085710+1041433713+1040922498
3250+1040649318+1040943491+1041779263+1042501014+1042519794+1042175720
3241+1042376061+1043282526+1043913865+1043432362+1042372171+1041945197
3233+1042486057+1043256234+1043498092+1043096471+1042433272+1042048553
3224+1042236419+1042673454+1042750854+1042450443+1042430388+1042991773
3216+1043549535+1043508354+1043094392+1042882447+1042977420+1043101635
3207+1043127793+1043156633+1043241411+1043280178+1043196675+1043127793
3199+1043296879+1043733511+1044235538+1044496377+1044216691+1043360395
3190+1042327904+1041575434+1041203995+1041206007+1041697705+1042550177
3182+1043258648+1043503256+1043453691+1043350335+1043136043+1042701758
3173+1042215359+1041924606+1041789391+1041653572+1041624731+1041876248
3165+1042278137+1042608797+1042831607+1042895392+1042639918+1041997244
3156+1040989233+1039793693+1039013590+1039256990+1040259635+1041081859
3148+1041159057+1040551193+1039469069+1038180903+1037040763+1036200363
3139+1035618991+1035417711+1035745286+1036290439+1036388027+1035703031
3131+1034568659+1033577215+1032995844+1032591741+1031874550+1030447279
3122+1028259691+1025646134+1023027413+1020501787+1017846177+1014902698
3114+1011726282+1008353683+1004775176+1001272794+998505377+996976426+996525977
3104+996640132+997223918+998662927+1000997468+1003552270+1005709609+1007641992
3094+1009880152+1012459905+1014943746+1017134956+1019356818+1021950320
3085+1024713579+1026969714+1028104689+1027970749+1026914112+1025521449
3077+1024214772+1023077985+1022143484+1021564729+1021269012+1020806625
3068+1019883459+1018744325+1017861067+1017494054+1017456964+1017035020
3060+1015430614+1012560243+1009122250+1005897877+1003449383+1002310383
3051+1002775386+1004408498+1006148455+1007073699+1007033725+1006530223
3043+1006125248+1006134303+1006674225+1007542258+1008159445+1008183792
3034+1008053674+1008424778+1009336474+1010330467+1011060267+1011482680
3026+1011800462+1012352189+1013339541+1014712753+1016306428+1017764619
3017+1018522722+1018423390+1018169862+1018645127+1019967164+1021545479
3009+1022755105+1023321855+1023350696+1023150019+1022912454+1022625121
3000+1022267096+1021843945+1021303152+1020673489+1020109287+1019595590
2992+1018854187+1017636312+1015855241+1013469391+1010443549+1006699913
2983+1002050952+996356958+989650661+981895038+972883644+962553835+951017217
2973+938084852+923155446+905810143+886313134+865408171+843777767+821872574
2963+800217287+779606161+760887445+744771956+731951531+723231092+719431720
2953+721099441+728105277+739422639+753396484+768261903+782392627+794306318
2944+802850428+807515284+808424700+806038179+801046419+794430399+787184650
2934+779882091+772847482+766771317+762721502+761495510+763244857+767617082
2924+773993390+781679192+790022961+798380480+806136036+812931135+818792404
2914+824026291+829077544+834305260+839696362+844952315+849903430+854577677
2904+858894301+862611779+865584702+867897445+869816145+871711707+873929812
2894+876634585+879759558+883037252+886087642+888575507+890315463+891206368
2884+891121992+889893922+887272518+882821753+876000295+866609145+855278569
2874+843479167+833042581+825591058+822061110+822330467+825229545+829225502
2864+833342456+837497841+842128290+847680965+854348965+862010152+870366933
2854+879195491+888343642+897486563+906166693+914155991+921519853+928296910
2844+934344100+939475636+943622570+946978804+949987476+952951076+955751425
2834+958202334+960461890+962799248+965212128+967562967+969884496+972321388
2825+974869684+977311874+979405965+981085960+982451526+983651963+984862193
2815+986247410+987818549+989413632+990902609+992314722+993726298+995109705
2805+996340324+997325262+998074915+998649982+999116260+999571940+1000114947
2795+1000766006+1001462739+1002067317+1002438623+1002655799+1003051316
2786+1003813243+1004718098+1005445349+1005937986+1006303925+1006597562
2778+1006856121+1007182958+1007620932+1008007060+1008137379+1008104849
2769+1008257168+1008796150+1009654726+1010710424+1011774506+1012455813
2761+1012450112+1011962104+1011547672+1011542574+1011803279+1011977597
2752+1011900130+1011683424+1011504478+1011425133+1011420304+1011458736
2744+1011508636+1011490863+1011275296+1010813982+1010302029+1010048299
2735+1010129723+1010316986+1010375941+1010224025+1009793966+1009065306
2727+1008298618+1007898271+1007924562+1008060717+1008141202+1008372932
2718+1008934451+1009691817+1010381240+1010842487+1011064895+1011195415
2710+1011466113+1011994767+1012665477+1013228270+1013468586+1013301244
2701+1012763871+1011981420+1011164428+1010583258+1010400154+1010468097
2693+1010428726+1010141796+1009882030+1009892158+1009933474+1009637556
2684+1009132646+1008878446+1008989181+1009170004+1009233386+1009258605
2676+1009290799+1009259678+1009220576+1009358071+1009692286+1010034415
2667+1010281908+1010530137+1010863279+1011220969+1011455717+1011431371
2659+1011165501+1010894199+1010886620+1011257657+1011979274+1012821283
2650+1013316268+1013200168+1012843283+1012847844+1013311573+1013832849
2642+1014072426+1014002806+1013702395+1013163949+1012376066+1011528288
2633+1011021433+1011174287+1011891880+1012689958+1013151944+1013343767
2625+1013566241+1013766381+1013619227+1013189302+1012930877+1012986211
2616+1013091513+1013201643+1013561949+1014133796+1014564526+1014764599
2608+1014955081+1015118399+1014961989+1014494236+1014130577+1014104754
2599+1014191343+1014146338+1014083895+1014206769+1014393294+1014322400
2591+1013941168+1013560876+1013445715+1013494609+1013436325+1013235380
2582+1013154224+1013341687+1013541827+1013464696+1013269720+1013266501
2574+1013380924+1013454434+1013688445+1014167667+1014483907+1014545009
2565+1015084796+1016567602+1018158124+1018563367+1017547979+1016015071
2557+1014906991+1014513351+1014605104+1014817384+1014960849+1015083455
2548+1015155154+1014878352+1014148820+1013474823+1013447526+1013988252
2540+1014531930+1014733143+1014681163+1014646688+1014802360+1015059242
2531+1015232419+1015382726+1015686155+1015979993+1015918757+1015538532
2523+1015128325+1014663322+1013981478+1013389576+1013417008+1013968600
2514+1014315559+1014030507+1013535187+1013612789+1014567947+1015890252
2506+1016709055+1016598790+1015794273+1014646487+1013308219+1012045473
2497+1011338142+1011469065+1012286392+1013325523+1013974100+1013831038
2489+1013202918+1012951468+1013612856+1014898473+1016132043+1016855471
2480+1016892427+1016216083+1015100960+1014165923+1013863701+1014025342
2472+1014206769+1014299529+1014451109+1014552655+1014224476+1013403124
2463+1012686940+1012778962+1013582204+1014246274+1014202209+1013663628
2455+1013039130+1012538780+1012453466+1013052008+1014011660+1014579818
2446+1014489809+1014254122+1014432933+1014960983+1015319679+1015118868
2438+1014351106+1013300975+1012439515+1012214157+1012692440+1013520432
2429+1014271091+1014627171+1014399397+1013741431+1013106402+1012664270
2421+1012190682+1011758811+1011858009+1012555615+1013195741+1013197552
2412+1012653874+1012056338+1011793018+1011934806+1012302623+1012730067
2404+1013177229+1013531633+1013541090+1013114585+1012465673+1011867265
2395+1011484021+1011443913+1011789262+1012334817+1012740932+1012607126
2387+1011375232+1008499227+1004015798+998639586+993005553+987081975+980512503
2377+973239992+965580146+957857925+950091570+942050157+933758301+925695761
2367+918165899+911079175+904986645+901301763+900543190+901543823+903446292
2357+907069670+913255898+921541718+930962178+940171766+946919648+949046939
2347+945935582+939255040+932523189+928541786+927352617+927579518+928292416
2337+929349790+930869553+932581473+933960118+935031242+936391241+938215707
2327+939973974+941323108+942631127+944573101+947653203+952015905+957217933
2317+962189505+965928513+968329589+970099794+971959204+974203065+976917697
2308+980166014+983734796+986989819+989415107+991257012+993222796+995537015
2298+997710317+999192922+999852565+999955653+1000092545+1000872313+1002318700
2288+1003871394+1005177132+1006335181+1007235072+1007491351+1007260559
2279+1007262236+1007721203+1008017053+1007526496+1006284475+1004868270
2271+1003978305+1003975622+1004658472+1005589351+1006497559+1007193824
2262+1007422066+1007114546+1006563960+1006013910+1005262447+1004119422
2254+1003092163+1002881090+1003308467+1003768708+1004515074+1006125651
2245+1007863796+1008237985+1007325417+1006910046+1007899008+1008961212
2237+1008422900+1006549472+1004978535+1004612864+1005141920+1006042080
2228+1007022457+1007954141+1008971474+1010190624+1011285759+1011812871
2220+1011558940+1010357966+1008390706+1006726137+1006622312+1008231815
2211+1010398812+1011646736+1011393744+1010350991+1009560492+1009228758
2203+1008865569+1008067759+1006741832+1005058886+1003326509+1001704799
2194+1000390005+999870071+1000257004+1000763054+1000468948+999226323+997799253
2184+997617088+999698302+1003266681+1006538607+1008912116+1010784873+1011508435
2174+1009527292+1004932524+1000400938+998788148+1000358482+1002960234
2166+1004692008+1005551657+1006590788+1008383529+1010219733+1010544021
2157+1008924122+1006920174+1006183466+1007062901+1008791724+1010138577
2149+1010475407+1010328790+1010287072+1010037970+1009254849+1008160854
2140+1006587502+1004151147+1001871805+1001802991+1004429827+1007896728
2132+1010227043+1010984342+1010612903+1009425947+1007582701+1005531737
2123+1004198969+1004387975+1005609539+1006114450+1004972499+1003459913
2115+1003249444+1003984408+1003996548+1002888937+1001945181+1002142571
2106+1002959697+1003287339+1002773307+1001931297+1001299421+1000984925
2098+1000999346+1001465690+1002182881+1002498919+1002106152+1001516463
2089+1001276416+1001214375+1001000486+1000838241+1000899074+1000729854
2081+1000100661+999842102+1000799742+1002394490+1003366953+1003671656
2072+1004267783+1005240716+1005730200+1005659708+1005929602+1006827616
2064+1007502552+1007038018+1005263251+1002792623+1000817047+1000427431
2055+1001619753+1002919119+1002325474+999271999+995703619+994557442+996909824
2045+1001266288+1005490756+1008489904+1010155814+1010299816+1008304184
2037+1004582950+1001502848+1001075471+1002570954+1004172006+1005377205
2028+1006114450+1005840062+1005149365+1006041007+1009137005+1012174719
2020+1012460978+1009888134+1006599910+1004593614+1004598980+1006110761
2011+1007452248+1007212939+1006174009+1005969845+1006120620+1004899056
2003+1002488926+1000848302+1001257100+1003302564+1005403162+1005983527
1994+1004926555+1003834974+1004342232+1006240677+1007645882+1006712120
1986+1003051182+998170692+994477695+993482898+995221781+999221092+1004709580
1976+1009589869+1011472351+1010422690+1008490977+1006757393+1005013948
1968+1003674138+1003523899+1003954629+1003775214+1003261114+1003761733
1959+1005685598+1007802493+1008293319+1006107810+1001879183+997801601+996140654
1949+997401790+999924600+1001555901+1001553017+1000455467+998832482+997202455
1939+996485265+997241356+998720809+999452889+998742808+997075154+995335131
1929+994217258+994030667+994555497+995250420+995721393+995819451+995484096
1919+994917681+994730821+995262560+995899466+995882498+995357399+995022848
1909+995017281+994769387+994063263+993391346+993004748+992446449+991405440
1900+990425264+990298164+991139034+992303253+993010852+993027083+992683411
1890+992343629+992259992+992897166+994487219+996147696+996514575+995556667
1880+994587692+994426319+994702785+994801581+994626123+994606538+995284090
1870+996491704+996917001+995666596+993829990+992931239+993195431+993689611
1860+993537695+992889118+992563086+993000590+993885056+994614654+994931565
1850+995094748+995538759+996514709+997942651+999167032+999257444+998327706
1840+997416211+997120360+997117879+996672795+995551435+994293786+993587461
1830+993564590+993832136+994239794+994836257+995125534+994466762+993053040
1820+991658298+990888457+990865518+991222537+991567618+991868565+992083126
1810+991858371+991111870+990372345+990113987+990340620+990833458+991343131
1800+991612689+991541661+991247488+990877859+990504274+990074684+989335561
1790+988106217+986689274+985545780+984808066+984242792+983686438+983299169
1781+983102450+982815856+982472586+982561522+983479188+985135104+986690347
1771+987118998+986473507+985389974+984145002+982946041+982184919+981924214
1761+981625815+980943635+980052194+979061421+978087416+977526702+977650515
1751+978124976+978139933+977315898+975991648+974540231+973138447+971914736
1741+970867824+969790597+968714375+968118986+968292029+968527381+967637013
1731+965761775+963640520+961686137+960241763+959514713+959369437+959436709
1721+959601100+960303871+962028334+963981509+964450335+963467476+962236656
1711+961560044+961688082+962470332+963580625+964629817+965290534+965725020
1701+966537652+967714749+968097121+967211247+965564519+963746291+962426735
1691+962063680+962525129+963219716+963928254+965109308+966797955+967554382
1681+966546640+964553289+962393133+960348003+958109642+955176358+951157932
1672+944802350+932974979+913244764+887709016+857132278+815759184+757660591
1662+689366733+626931596+578254468+543110998+521247489+517979286+542740632
1652+579697099+607448403+633222119+667587096+706708616+736227778+754889216
1642+769383599+782897336+796060292+810312749+827362269+843657174+854019042
1632+860020155+864813117+869300034+872750100+874203797+872864926+867680537
1622+858531446+846762629+832099361+811302718+783359858+754982982+731030378
1612+709305404+687090343+664029448+641097598+619280402+599365273+582068931
1602+568131640+558441756+553899841+555269398+563218353+577851975+597967580
1592+621606559+647232652+673688614+699884944+725046101+748500098+769084462
1582+784869895+793624675+793863045+785164068+770299252+759392432+760489713
1572+771643222+789972256+812499801+832444844+846003318+855535250+863226485
1562+869304997+875007979+884016153+895727893+902206551+904379317+906236044
1553+908624175+911123375+913066154+913864769+913779387+913382595+912368012
1543+909565986+902332712+887459177+868919339+850799969+827787835+790709567
1533+738060427+681590519+627890979+572162139+512354844+456943049+415615329
1523+391607492+387040191+401474981+431068223+473386482+521336727+564503098
1513+600478584+632040395+660580053+689458821+725048448+760102043+781703002
1503+794925115+806792728+819620664+833383369+846564769+856569217+862180848
1493+863978351+861386526+850435102+826557082+794018114+765217348+750473059
1483+754415293+774777987+801928335+824958578+838791775+842504692+833031447
1473+803297054+752684391+694594718+639570391+588857122+544950219+516777138
1463+509671836+516770465+529971483+548036157+572906292+598375036+614609375
1453+623939088+632267363+642915894+657526376+675868757+694874404+711276621
1443+724570366+735506765+744445789+752276196+760880738+770868954+779923675
1434+786838899+793294551+800890411+809303599+817160902+824273112+831305039
1424+837985045+843568304+848644373+854403493+860067440+863751718+865476382
1414+866040651+865505960+863393760+859281233+852940607+843579774+829695201
1404+810893920+787826318+759084307+721973510+676730888+625636588+569736918
1394+513451556+465537194+430159143+406150233+393304624+393159885+404541803
1384+423438593+446764619+472529381+498560012+522934090+544738476+563448138
1374+577828299+586680265+590871197+593090443+596202002+602240875+612115071
1364+625661338+640886191+654171417+663678734+670588860+676652952+682772377
1354+688947740+694543677+698803894+701273650+701989834+701450382+700187502
1344+698445936+696474316+694892245+694585864+696233531+699918748+705360958
1334+712300997+720391841+729019186+737555785+745671982+753184003+759804583
1324+765303266+769765032+773500820+776716071+779315475+781115527+782211401
1315+782882513+783154553+782655143+780833360+777192275+771499019+763963791
1305+755106057+745432203+735468803+726191875+719274103+716575165+719058067
1295+726188052+736475941+748386212+760657793+772218959+782219382+790179572
1285+796001940+799802318+801784267+802276166+801768908+800828438+799988239
1275+799691651+800233250+801665149+803703705+805775194+807319101+808187336
1265+808791377+809835137+811793007+814512535+817230723+818952436+818907297
1255+816927025+813611772+810033935+807169667+805585316+805357140+805999680
1245+806642355+806498957+805109447+802232100+797816748+792060914+785232749
1235+777429774+768583844+758554782+747143184+734190966+719858694+704853096
1225+690357908+677657474+667729421+661092140+657827659+657582179+659647766
1215+663234858+667721574+672738285+678194512+684176576+690529141+696396446
1205+700296291+700719576+696603025+687392967+673152515+654866206+634395259
1196+613888026+595221893+579816016+568490001+561286204+557664638+557110531
1186+559653394+565843513+576122951+590060309+606244210+623009685+639128192
1176+653715334+665807233+674404329+678937659+679638149+677671358+675098111
1166+674494338+678117649+686880947+699699359+713748591+725642697+732769194
1156+733885122+728884508+718518145+704664693+690699367+680930205+678823102
1146+685067145+696897467+709072400+715735302+712258340+696829189+671655624
1136+642854792+618065276+602830094+598578194+603615630+615478481+632222426
1126+652164451+673320931+693485028+710724292+723721247+731739520+734354753
1116+731336289+722879371+709715678+692728869+672818770+651727818+632932641
1106+621059192+619767338+629665746+647904837+669753088+690895483+708822359
1096+722832690+733417704+741678573+748721768+755045089+760402052+764301963
1086+766498338+766935842+765480602+761894784+755997364+747889618+738250305
1077+728395493+719755606+713053400+707894834+703191009+698063362+692390362
1067+686750024+682218304+680108719+681317540+685713509+692363734+700261749
1057+708629865+716813267+724311337+730862365+736311617+740431119+742863181
1047+743219060+741374138+737733791+733082483+728181067+723663633+720181171
1037+718219009+717688410+717968297+718396948+718600441+718561406+718621099
1027+719255457+720745641+723159124+726325413+729246758+729425503+723274554
1017+708401622+687090812+667610638+659828052+667670667+686312654+707163022
1007+724517782+737315268+746674626+753559131+758338746+761190539+762278095
997+761697864+759460240+755535311+749858957+742245927+732292051+719513815
987+703763863+685514308+665747875+645761918+627107657+611449995+600277237
977+594599541+594642534+599653946+608132327+618343688+628639492+637572748
967+644144702+648086332+649948223+651019683+652932347+656843929+662863351
958+670445395+679239479+689173971+699729541+709654039+717740524+723682278
948+727863687+730447464+731071023+729589625+726886932+724636364+724187122
938+725827679+729072374+733270751+737814075+742210044+746259725+749894840
928+752758571+754394165+754988481+755525050+757022075+759788084+763393687
918+767172200+770696514+773866760+776720632+779296427+781579592+783450001
908+784792830+785734440+786605424+787580436+788404001+788475834+787184918
898+784211190+779442776+772516486+762596548+748950480+731983055+713707946
888+697156562+685312961+680247086+682485917+690768182+702632039+715539655
878+727571727+737577449+745363321+751617157+757050513+761638841+764930620
868+766767024+767373883+766999425+765669810+763132110+759033870+753307548
858+746312309+738563996+730590929+723094736+716824267+712058938+708503973
849+705854802+704171520+703525023+703569222+703768356+703953338+704368709
839+705180067+706229192+707328151+708521277+710028832+712196165+715355411
829+719283157+722874676+724863466+724926982+723805354+722471445+721524134
819+721154305+721105209+720549861+718433099+714324999+709098758+704771672
809+703344065+705185164+708329186+709764841+707911199+704017726+701137697
799+701678423+705873447+712418036+720017250+727957251+735808115+743368293
789+750740069+758033975+765042360+771211418+775910079+778973682+780849188
779+781689119+780483920+775659434+766297594+752463861+735318430+717947840
769+705158537+700478053+702859276+707404343+709507355+707224392+699941083
759+686747811+666892844+640625620+608951532+573236349+535275694+497159301
749+460753119+427513728+399108313+378245906+368473625+372662981+391220895
739+421266968+457691830+495492888+531227757+562847785+589184764+609910245
730+625713049+638210728+649183345+659406042+668305494+674967323+679316811
720+682329642+685397537+689494302+694702635+700436670+706087605+711242751
710+715343406+717749914+718372333+717681837+715967099+713178085+709616748
700+706274733+704344832+704561203+706827264+710345340+714298573+718337590
690+722314030+725972016+729126500+731798744+734101895+736211212+738316169
680+740458819+742561496+744608638+746614933+748171249+747959439+744428954
670+738083969+734328126+739193860+747839046+752893786+753901193+753406813
660+753133632+753137992+752959717+752534889+752126360+751936951+751978133
650+752466410+753919839+756300659+758630304+760049929+760686366+761089060
640+761366332+761212538+760472007+759360506+758095613+756492750+754193958
630+751183811+747739043+744064423+740407242+737299506+735172148+733885457
620+733067057+732794413+733560364+735571623+738349637+741006723+742715424
611+743141727+742683163+742079322+741781862+741861006+742065506+741598289
601+739468449+735638023+731368215+728096423+726356668+725724390+725303452
591+724435486+723307486+722756564+723424256+725149055+727147503+728763981
581+729844026+730284213+729564943+727191904+723681809+720616261+719425750
571+720386140+722697542+725289702+727624445+729702372+731531935+733093080
561+734718949+736852746+739284741+741298079+742923009+745343803+749241501
551+753097481+754290205+752198126+749078183+747454595+747903032+749650836
541+751924543+754147075+755906013+757304041+758790335+760530090+762330008
531+764125164+766254602+769188422+772897114+776444299+778581853+778713983
521+776919632+773864547+771169968+770748427+772959826+776174540+778445631
511+779023851+778313971+776887303+775156871+773874876+773695863+773875546
501+772751235+770239760+768131785+767450880+767329281+766560714+765042964
492+763226010+761162905+758606493+755144422+750053463+743062584+735563105
482+729969985+727546978+727535911+728361756+729515110+732107874+737407289
472+744922865+752599613+758846608+763208437+766002146+767960352+769538600
462+770902489+772722260+775847703+779694896+782452521+783817483+784980964
452+785946251+785075467+781774165+778241534+777196970+778286069+778408541
442+775828453+771695805+766870582+759975681+749183216+734232281+715719070
432+693842315+670509448+651623053+644079106+650772660+668802758+690671734
422+709479051+723933728+737075824+750465748+761242720+766837516+767118879
412+764011613+760523115+757744295+754332795+750095651+747599133+749037739
402+753377905+757325437+757971465+755721635+755021547+758083004+762173129
392+764671793+765182337+763918786+760940364+757864487+759268082+768646153
382+781720240+790518482+792648725+791724486+791781295+791954539+788322107
##END=
