##TITLE=X8880
##JCAMP-DX=4.24
##DATA TYPE=INFRARED SPECTRUM
##DATE=2/11/2018
##SAMPLING PROCEDURE=ATR platinum Diamond 1 Refl
##ORIGIN=ComPlat
##XUNITS=1/CM
##YUNITS=TRANSMITTANCE
##RESOLUTION=4
##FIRSTX=3997.453
##LASTX=373.96442
##DELTAX=-1.4165319
##MAXY=1.0672195
##MINY=0.71237314
##XFACTOR=1
##YFACTOR=9.9392561e-010
##NPOINTS=2559
##FIRSTY=0.96464849
##XYDATA=(X++(Y..Y))
3997+970543948+970322783+970171601+970225213+970487877+970816507+971051885
3988+971177520+971285284+971407261+971506150+971565039+971576133+971529777
3978+971499253+971573734+971656252+971564079+971344473+971218479+971268853
3968+971445881+971707405+971916097+971855409+971581470+971415656+971431368
3958+971388431+971235210+971108915+970871918+970255917+969458811+969098937
3948+969483938+970268751+970928649+971231852+971235990+971075273+970813748
3938+970539750+970443740+970565297+970579090+970173820+969656828+969692390
3928+970404640+971308792+971881555+971959395+971738289+971464531+971253440
3918+971140519+971108436+971079111+971018962+971041270+971275749+971617332
3908+971691753+971142678+969963329+968695706+968114967+968361979+968849706
3898+969094619+969111351+969091201+969160825+969455153+970120688+971056802
3888+971865903+972083290+971419255+970210341+969114109+968372054+968188249
3878+968805089+969783902+970253579+969815866+968969284+968440059+968434122
3869+968894083+969647713+970217657+970153251+969743783+969799314+970436844
3859+971114433+971427530+971200068+970221016+968906257+968606952+969349127
3849+970287041+971133383+971929410+972491679+972380916+971491817+970288061
3839+969321902+968876752+968937441+969261153+969575390+969823841+970197748
3829+970791200+971381414+971714482+971739908+971350590+970343772+969196507
3819+968813365+969056359+969404539+969951755+970772190+971388610+971425971
3809+970980762+970435285+970138678+970053582+969827020+969436262+969555421
3799+970503769+971580211+972184218+972380736+972515726+972752663+973123751
3789+973612018+974041575+974144542+973840979+973344617+972899108+972603521
3779+972563701+972928252+973613397+974268738+974518208+974166970+973413821
3769+972856350+972863966+973162491+973400568+973494359+973344257+972817250
3759+972148117+971905003+972219660+972624390+972662590+972183438+971450678
3750+971023760+970998932+971003250+970810870+970558401+970603797+970922592
3740+971082349+970594742+969350387+968134697+968100335+969296775+970846731
3730+972027759+972450240+972026980+971197070+970802834+971328162+972529579
3720+973792465+974578537+974706751+974372484+973868985+973270255+972537975
3710+972041612+972254082+972983304+973610039+973653157+973141022+972762199
3700+973202910+974205471+975024046+975331807+975238615+974777574+973835822
3690+972681360+972094085+972375759+973086570+973908984+974707171+975253367
3680+975237835+974329786+972288744+969787920+968822121+969783123+970890569
3670+971186095+971562640+973071518+975125214+976669833+977368711+977538363
3660+977462622+977043680+976211431+975310818+974699135+974088171+972792123
3650+970428568+968003485+967589160+969131260+971031975+972484782+973421737
3640+973936090+974105922+974007093+973647160+972993739+972164188+971353109
3631+970608295+970138618+970552224+971750763+972882076+973483325+973517747
3621+973088789+972497376+972287365+972659052+973247467+973681162+973791685
3611+973394031+972409821+971358626+970988018+971175241+971206065+970907300
3601+970790660+971191673+971743327+972000473+972042032+972233033+972644480
3591+972892091+972479025+971339736+970275827+970115890+970612793+971094403
3581+971190773+970923132+970615611+970597261+970892488+971311011+971685876
3571+971781527+971135182+969457611+967592938+967223829+968631899+970588985
3561+971944822+972250064+971740028+970964090+970314327+969940841+969967767
3551+970488657+971226814+971536914+970975185+969849868+968956991+968633398
3541+968595738+968616967+968817923+969257015+969574131+969413354+969008804
3531+968838732+968939480+969016240+969044965+969231588+969472543+969430985
3521+969108232+968866737+968894683+968987275+968871955+968529532+968105732
3512+967714914+967478397+967561274+967963666+968383268+968393283+967802889
3502+966947072+966428341+966475837+966828274+967194504+967521695+967784958
3492+967836411+967613687+967254713+966932980+966720450+966572986+966381266
3482+966171374+966208675+966593915+966929861+966820898+966430140+966101870
3472+965753031+965204975+964740696+964764084+965223925+965756270+966077643
3462+966027149+965671294+965463561+965796869+966359197+966424863+965813960
3452+965054633+964574042+964297706+964058549+963879782+963797205+963808059
3442+963994623+964427958+965012475+965539542+965794230+965688085+965422303
3432+965352079+965567427+965785594+965747994+965535524+965387940+965310581
3422+965018832+964365350+963691480+963524106+963981729+964677069+965136491
3412+965205815+965069386+964995504+965143507+965477474+965706615+965466080
3403+964792929+964214709+964120917+964302083+964321333+964077200+963765122
3393+963492503+963211309+962976830+963010113+963399551+963941430+964392636
3383+964700397+964861713+964793349+964491285+964130032+963901251+963842481
3373+963837684+963737176+963497480+963211728+962996980+962918180+963058268
3363+963492383+964061788+964413206+964480791+964652422+965155921+965584878
3353+965386801+964558750+963567764+962854074+962588651+962681963+962894253
3343+962975451+962729039+962123772+961458597+961184839+961407503+961808456
3333+962117835+962337981+962488923+962480347+962303439+962106981+962007972
3323+961980327+961994299+962094867+962251326+962282930+962041135+961563423
3313+961028800+960672464+960662809+960920976+961132726+961018605+960562421
3303+959997694+959616831+959525739+959563459+959504750+959279986+958986618
3293+958812768+958955015+959429968+959931189+960050467+959721537+959313389
3284+959205625+959401063+959626666+959661448+959478303+959231411+959141818
3274+959272070+959465830+959579471+959598901+959497973+959242146+958961851
3264+958865721+958931447+958877775+958478202+957806130+957183892+956953372
3254+957241762+957817164+958198027+958046305+957462208+956790077+956205020
3244+955660322+955193524+955029749+955320058+955913391+956451192+956633678
3234+956416590+956022115+955752974+955709437+955731325+955683050+955638134
3224+955657683+955553817+955054516+954140470+953144866+952524787+952500979
3214+952907689+953389539+953687764+953713551+953495744+953147444+952787871
3204+952469436+952210310+952015891+951824890+951535420+951150719+950828806
3194+950733456+950844518+950936630+950762600+950296822+949772873+949451800
3184+949376959+949402565+949394949+949314051+949186797+949110757+949161250
3174+949214323+949085030+948877418+948865184+948977206+948792981+948144717
3165+947374776+946881652+946670621+946467147+946112850+945733307+945583864
3155+945817683+946369517+946972685+947290520+947138679+946646993+946178216
3145+945987095+945904578+945494991+944667539+943922126+943733883+943930761
3135+944000385+943775802+943434578+943052396+942602330+942229323+942118680
3125+942155801+942016134+941572483+941008656+940543717+940193018+939834404
3115+939425656+939082214+938938109+938965515+938937869+938567621+937747546
3105+936715781+935923111+935637240+935685694+935654990+935325701+934793477
3095+934216456+933648131+933142173+932795612+932604671+932439637+932205158
3085+931901656+931546700+931159480+930806323+930543120+930326872+930064868
3075+929742835+929442570+929255047+929207912+929228781+929149982+928873285
3065+928568103+928509274+928687681+928838503+928863270+928928517+929135409
3055+929320593+929219726+928758625+928187421+927846857+927754445+927597327
3046+927200272+926754283+926541094+926639743+926892932+927015508+926810714
3036+926356929+925863385+925356768+924720977+924031395+923558060+923402201
3026+923379952+923298215+923120227+922855164+922501528+922080606+921566432
3016+920873311+920042502+919304884+918854398+918682287+918646066+918585797
3006+918381903+918013574+917572742+917193439+916950265+916743912+916291806
2996+915369784+914077693+912753280+911680316+910996910+910721713+910679854
2986+910586963+910386966+910307627+910449994+910551581+910290416+909649409
2976+908892781+908307844+908017594+908001223+908266885+908905254+909896540
2966+910943358+911642715+911860283+911879773+912103217+912609594+913107576
2956+913336598+913335098+913257019+913120050+912863203+912538591+912315807
2946+912297036+912379254+912345131+912132182+911938182+911918992+911867719
2936+911460950+910756435+910113508+909694085+909432201+909413251+909853243
2927+910710798+911622746+912246722+912537931+912694810+912886411+913072614
2917+913133663+913094083+913118131+913312430+913573115+913672483+913564359
2907+913538633+913909121+914617534+915294343+915590349+915369304+914762778
2897+914121591+913774730+913771792+913876858+913805195+913496175+913175701
2887+913109255+913308832+913537433+913564719+913378336+913157770+913028897
2877+912912737+912716099+912575232+912723595+913169704+913672004+914019044
2867+914208366+914337239+914447582+914530819+914580713+914579513+914498375
2857+914332321+914098023+913844354+913680219+913687356+913861206+914232593
2847+914876060+915686959+916358132+916648981+916518009+916096247+915715385
2837+915748607+916214326+916728140+916957341+916916562+916769518+916605203
2827+916505355+916591171+916843940+917061567+917138687+917211369+917407588
2817+917627014+917675469+917487286+917186902+917002857+917082556+917392595
2808+917846620+918404991+918979013+919424282+919712133+919950929+920245377
2798+920655264+921191686+921740162+922124683+922319522+922490493+922778104
2788+923127483+923376354+923481780+923604836+923942461+924514744+925170384
2778+925797179+926438307+927131188+927738613+928110600+928352095+928718026
2768+929291269+929961541+930636611+931262987+931703458+931821837+931702019
2758+931618303+931737881+931985912+932252654+932536247+932793933+932893841
2748+932863077+932952671+933317882+933825099+934243142+934471384+934565475
2738+934669761+934906159+935266991+935648754+935993875+936316088+936579591
2728+936684237+936615752+936507988+936501152+936615992+936778328+936888611
2718+936888431+936817308+936753801+936701748+936625168+936554764+936540611
2708+936576653+936647056+936726215+936696351+936430029+935989317+935592323
2698+935364561+935223034+935022678+934728950+934402000+934074030+933713737
2689+933282500+932765208+932171756+931543102+930943052+930430438+930039681
2679+929743074+929443889+929075440+928683304+928355873+928102085+927842060
2669+927509232+927161712+926964415+927010771+927183421+927252625+927117935
2659+926928133+926930532+927178624+927462516+927587851+927604823+927661793
2649+927773935+927873483+927995160+928279233+928794366+929437353+930061090
2639+930643088+931237440+931866154+932560894+933352664+934092800+934492913
2629+934468265+934279843+934268629+934567694+935074012+935610553+936079990
2619+936468529+936782646+937068698+937379277+937630666+937654654+937454718
2609+937242068+937205967+937356968+937552707+937641281+937665149+937828564
2599+938152276+938334402+938095605+937491778+936809932+936316448+936116511
2589+936131743+936200648+936238728+936260077+936259057+936167305+935946499
2580+935675260+935504828+935539430+935774209+936106316+936318666+936119630
2570+935399043+934469525+933851605+933765190+933987255+934158286+933970643
2560+933211377+931991189+930821316+930104267+929729102+929425779+929221585
2550+929242754+929359813+929315556+929035321+928660456+928358812+928179145
2540+928072760+927981667+927830126+927509112+927040455+926710446+926849454
2530+927463176+928187900+928621416+928644624+928437851+928295785+928476591
2520+929090373+929997283+930895017+931562951+931989630+932323417+932732345
2510+933175935+933379710+933253715+933173716+933521056+934128002+934498490
2500+934459330+934379691+934753298+935657929+936721058+937623050+938397969
2490+939123593+939664512+939897252+939911105+939901450+940082256+940607644
2480+941350419+941922522+942097751+942020871+941918324+941856676+941848041
2470+941954186+942248513+942805804+943637273+944501485+944998868+945049122
2461+945029872+945250137+945591660+945851746+946058638+946275366+946492993
2451+946837755+947440262+948041571+948217220+948025139+947935965+948138061
2441+948426631+948752922+949328564+950127710+950779572+951066643+951131349
2431+951150000+951169430+951287448+951634129+952127553+952525567+952756027
2421+952988767+953358475+953767823+954024070+954085058+954078342+954103109
2411+954149705+954223467+954380825+954600671+954790653+954982493+955356939
2401+956016238+956828457+957522237+957886908+957924629+957831437+957792457
2391+957839053+957966847+958254278+958741885+959318306+959802975+960053105
2381+960041951+959965911+960114394+960449860+960608418+960549348+960766975
2371+961523903+962378400+962816353+962915002+963105104+963596249+964243614
2361+964843902+965320595+965550096+965382603+965068606+965113163+965516694
2351+965807663+965809102+965717350+965640709+965502541+965386141+965656781
2342+966411970+967167998+967382986+967086380+966818679+966969981+967345326
2332+967504244+967372132+967227607+967213274+967281279+967500526+968040606
2322+968893903+969821743+970561099+970990837+971159229+971160489+970988798
2312+970637860+970300175+970225033+970419393+970683496+970899744+971160609
2302+971617812+972203108+972545231+972345055+971855648+971747944+972387093
2292+973410582+974141963+974330086+974356772+974708190+975391956+976019770
2282+976365731+976560750+976746893+976864372+976897595+977082899+977681989
2272+978589079+979252875+979138934+978363416+977687866+977741358+978451030
2262+979303428+979829056+979780601+979210477+978481075+978058594+978276461
2252+979180552+980341790+980942199+980414952+979054977+977785195+977244755
2242+977275639+977426221+977724627+978544462+979868396+981248100+982422412
2232+983386772+983856808+983317748+981917653+980803611+980973923+982070874
2223+983049747+983680800+984342257+984748366+984276831+983237509+982503610
2213+982212161+981973844+981891867+982306732+982900964+983056283+982954816
2203+983392229+984448402+985264219+985417020+985643762+986630311+987795267
2193+987947288+986792947+985186199+983989460+983229713+982563998+982114771
2183+982345772+983162548+983620711+982882793+981240424+979799671+979331734
2173+979820300+980947836+982472366+984190416+985927175+987505857+988544639
2163+988418344+986390555+982039270+976558231+973019705+973355831+976087415
2153+978327854+978790214+978225547+977654163+976877386+974957661+971853909
2143+968840291+967048120+966266065+965463801+963907848+961509990+958601318
2133+955600053+952619538+949349613+945403238+940731359+935742125+931044400
2123+926931072+923044846+918716529+913591705+907676311+900891727+893066803
2113+884480573+875972722+868201590+860992067+853703384+846112158+838607768
2104+831546068+824830448+818314226+812272597+807215178+803425682+800853375
2094+799350254+798936948+799849975+802212571+805649509+809516125+813681447
2084+818715658+824946188+831703366+838070566+844096063+850545061+857583973
2074+864452933+870415822+875393063+879626449+883255648+886350464+889156230
2064+892175725+895866392+900223254+904815254+909246537+913370420+917045915
2054+920024211+922183332+923636619+924751741+926429372+929870209+935138178
2044+940342461+943295990+943833612+943687347+944378189+946149251+948543151
2034+951031921+953283754+955311843+957216695+958846111+960062880+961034137
2024+961879399+962465835+962856712+963361051+963804821+963427856+962182722
2014+961443845+962405146+964516592+966499584+968136376+969817065+971044389
2004+971091105+970511745+970497412+971269812+972108477+972630447+973214604
1994+974133328+974947766+975040238+974538958+974434552+975777556+978569229
1985+981333376+982339415+981414814+979880509+978787036+978115324+977655782
1975+977571526+977826094+978018174+978139731+978820379+980375853+981989076
1965+982470747+981498950+979659824+977906392+977118881+977566369+978746617
1955+979870375+980293035+979668699+978261828+977024370+976835348+977579622
1945+978252893+977980694+976900774+975947867+975665654+975732219+975684424
1935+975604905+975896174+976621618+977413808+977905433+977948191+977571886
1925+977082359+977086078+977939915+979159743+979902038+980012021+980227489
1915+981065015+982039930+982384811+981970966+981341952+981056740+981244382
1905+981658228+981895705+981745243+981485098+981614151+982239447+982969808
1895+983415677+983590367+983706466+983811412+983889012+984118393+984668548
1885+985367066+985888615+986133049+986232237+986274096+986221623+986031521
1875+985688439+985214805+984738172+984468851+984617814+985327666+986470014
1866+987548015+988080659+988023269+987736438+987554192+987512874+987576740
1856+987844142+988390939+989047358+989453528+989381085+988949309+988471177
1846+988220867+988358195+988724246+988904153+988779717+988570845+988474955
1836+988553994+988810421+989074884+989012996+988585058+988275258+988358136
1826+988535763+988582719+988681668+989025410+989484772+989781558+989826055
1816+989824735+990001704+990330993+990628559+990834312+991114307+991594298
1806+992121485+992408436+992313625+991969404+991723591+991869436+992347148
1796+992806150+992902040+992594640+992403519+992944319+994007028+994967070
1786+995537734+995777790+995832842+995845315+995973649+996232115+996402786
1776+996275172+995811493+995165987+994743686+994897087+995499834+996210286
1766+996691057+996593487+995754162+994494635+993539510+993187493+993085306
1756+992917932+992599257+991927246+990547541+988428839+986237994+984588189
1747+983210164+981509625+979184210+976213650+972684719+968953333+965575043
1737+962474351+958754658+953999483+949553747+946166642+942992428+939631410
1727+936264514+932875611+929450726+926278550+923324601+919915128+915488402
1717+910760872+907184506+904575858+901661369+897649328+892482706+886136255
1707+878076132+868527941+859147483+849816978+837382843+820889411+805367176
1697+792661981+780235461+769051617+760593181+753141323+745179370+737547185
1687+731203913+725309388+719570542+716726816+718107121+722023391+727222996
1677+733817358+742647602+753065403+762824265+771653729+781404375+792414549
1667+802383962+810247986+817088581+824254147+831834638+838645069+843950999
1657+847764182+850322936+852706221+857311894+863342428+867576054+870465057
1647+873757231+878275289+882950706+886832014+890031896+892690018+894738077
1638+896525031+899397722+904060185+908736861+912247622+914923255+917231699
1628+919373309+921365057+923211380+924968709+926424934+926856351+925079711
1618+919214691+908047939+893676987+878253460+861540482+844232673+829632639
1608+821377678+820508908+825726504+835086693+846598926+858428455+869452002
1598+879389452+888343951+896373609+903392012+909415350+914711325+919507579
1588+923778506+927445785+930554334+933196924+935355506+936762436+936959314
1578+935484679+932287496+928526725+925384174+922368037+918740217+915200432
1568+913525740+914085669+915909324+918041099+919668956+920435478+921339030
1558+924517863+928833526+932314062+935176738+937584251+939306318+940270918
1548+940585635+940263722+939249348+937629467+935649353+934113789+935275087
1538+939446705+943807945+947189232+950085671+953016592+955520954+956872654
1528+956934602+955920587+954126257+951696197+948799218+946424929+945931984
1519+947466049+950568901+954604809+958320783+960669706+961453739+961028500
1509+960198470+960871741+964481030+968635677+971505430+973134306+973794623
1499+973793304+973535498+973216043+972611017+971345433+969241963+966891721
1489+965867872+966834271+968657386+970382032+971954717+973588270+975202634
1479+976415925+976888240+976508757+975448506+974331405+973973271+974245830
1469+974222142+973259941+971262076+968783261+966617483+964750831+962449224
1459+958917234+954178190+950405725+949061522+948888152+948829083+948674243
1449+948571636+948713702+949086589+949386014+949156273+948052065+946002328
1439+942815939+937770454+930700898+923249220+916403168+909194065+900837096
1429+892082953+884189964+877103556+870032021+863058416+856881737+851360638
1419+846140764+842599479+842265152+844434528+847918782+852137296+856617814
1409+860797467+864343430+867416717+870523946+873937257+877435484+880888315
1400+884522551+888394445+892097465+895219627+897626959+899339072+900494913
1390+901392708+902472448+904026183+905783572+907254910+908406193+909627040
1380+911162424+912705005+913685797+913890590+913696651+913769093+914577954
1370+916288927+918757128+921502146+924142577+926781869+929652641+932523353
1360+934786461+935986499+935946739+934750359+932749796+930398055+928040017
1350+925918856+924242425+923101457+922358921+921700583+920845786+919823915
1340+919163418+919609706+921310605+923581928+925579132+926754763+926789005
1330+925424653+922491633+917979091+911943879+904427735+895602589+885950411
1320+876324320+867915358+861905213+858943768+859124275+862184728+867306554
1310+873005700+877596921+879755982+878833660+874921407+868668868+861004000
1300+852837853+844751943+836896975+829201823+821600163+814088696+806720194
1290+799578556+792724708+786234332+780315280+775276031+771329956+768495406
1281+766699037+765928256+766241534+767635871+769927164+772772689+775834162
1271+778929038+781953870+784684315+786806675+788173427+788881780+789122255
1261+789092990+789010293+789051372+789321652+789876244+790665855+791494506
1251+792154763+792590378+792908333+793284938+793852304+794602935+795431045
1241+796293758+797280307+798512009+800048292+801913446+804152865+806830957
1231+809985742+813583577+817495710+821539954+825580180+829496450+832977586
1221+835542996+837065247+838179050+839821299+842352527+845403146+848511935
1211+851573288+854634821+857560825+860089894+862163140+864069312+866212601
1201+868763559+871580419+874443035+877279445+880129708+882937813+885418067
1191+887079446+887330416+885631017+881724761+875886727+868972371+862133515
1181+856380936+852332615+850279998+850354180+852525415+856457517+861485611
1171+866889050+872246494+877506727+882715628+887742342+892294043+896148666
1162+899272387+901665926+903199331+903785648+903674405+903372162+903284247
1152+903557526+904178444+905054050+906043897+907072844+908259449+909871953
1142+912044447+914508030+916676567+917959302+917903770+916182603+912684016
1132+907654363+901751562+895980513+891427553+888849669+888457172+889982961
1122+892800601+896053735+898900040+900745283+901310670+900541569+898442657
1112+894994564+890257619+884497904+878176100+871890818+866313529+862045241
1102+859479291+858761882+859786451+862213334+865601218+869619195+874144030
1092+879125348+884394278+889690313+894823173+899700265+904275234+908595755
1082+912808331+916972333+920941376+924509767+927623893+930369810+932802929
1072+934923969+936846873+938796642+940834326+942776420+944478577+946016540
1062+947534474+949064041+950518887+951795265+952884841+953815738+954429100
1052+954347123+953238717+951107842+948486480+946423489+945958131+947347790
1043+949924055+952742534+955224408+957232827+958769351+959765375+960220898
1033+960421315+960769614+961384595+962016188+962259062+961542014+958746682
1023+951890316+938740691+919055114+897097974+880891493+876972344+885296930
1013+899907098+914322007+925548428+933691968+939687181+944160982+947494114
1003+949972870+951797244+953143247+954192283+955043302+955678733+956093478
993+956372993+956582464+956674876+956548462+956099714+955297450+954327213
983+953512355+952976533+952594111+952290369+952098888+951920300+951512692
973+950725180+949586910+948236350+946804352+945256074+943413829+941261844
963+939122693+937414598+936369160+936029976+936277468+936710443+936768553
953+936209223+935307770+934460290+933801831+933301930+932930243+932597175
943+932161141+931597913+931025150+930528307+930022590+929327970+928428736
933+927587192+927040515+926689517+926313152+925933729+925676522+925383514
924+924670603+923348289+921633178+920002623+918940993+918741656+919401854
914+920696943+922378411+924267612+926204968+928066763+929804722+931336089
904+932457987+933006823+933044423+932813603+932521434+932062492+931031627
894+929380442+928023466+928229159+930309301+933354643+936229313+938361328
884+939630810+940016950+939501877+938076835+935735649+932500265+928374644
874+923168982+916444487+907778678+897116804+884878167+871760206+858388276
864+845168787+832733572+822540235+816603132+816331473+821652455+831120228
854+842611173+854004068+863689708+870952544+876108972+880154475+884020371
844+888062577+892195275+896323895+900524538+904835943+908986152+912494274
834+915071678+916681184+917230619+916677826+915504294+914610937+914624490
824+915553948+917002078+918439533+919421884+919788054+919675552+919360655
815+919116882+919098831+919182188+918898415+917665334+915286547+912271909
805+909543563+907788033+907127835+907355597+908350182+910138755+912554303
795+915115695+917481229+919769464+922081265+923857605+924000751+921530751
785+916026204+907682008+897216712+885773503+874878649+866383572+862102391
775+862996648+868491480+876794117+886034787+895084637+903502894+911137897
765+917860353+923348768+927052869+928578778+928178425+926847775+925921375
755+926346495+928176926+930821076+933706360+936566998+939297023+941833108
745+944170337+946382830+948601021+950864608+952999381+954788974+956260791
735+957648172+959078191+960335499+960934049+960578253+959652033+958970427
725+958814867+958468547+956894842+953526628+948133923+940389297+930245074
715+918682827+907489268+897974000+890177021+883608685+878347612+874931902
705+873482573+873475017+874297191+875646132+877496113+880141402+884130954
696+889629444+896003001+902436947+908587839+914327164+919462543+924046927
686+928455482+932935040+937346774+941353717+944738782+947617051+950378859
676+953342823+956427684+959253000+961598744+963555410+965111064+966013176
666+966502523+967033368+967539445+967702801+967604212+967819440+968652229
656+969676618+970272529+970224734+969519079+967956169+965518793+962993142
646+961662371+962293244+964674130+968034609+971615713+974822251+977198999
636+978564791+979121303+979217553+978918308+977964202+976238597+974169909
626+972652995+972561123+974227959+977339326+981261054+985299901+988688924
616+990800550+991632798+991733486+991578407+991438259+991745180+992974063
606+995039033+997253145+999047895+1000444511+1001696243+1002764409+1003384368
596+1003457050+1003089620+1002312903+1001019853+999252929+997297822+995316989
586+993165064+990826936+988859776+988055652+988699778+990398878+992535510
577+994524500+995716742+995612816+994271731+992179055+989653704+986443988
567+982014024+976268761+969755537+963123634+956664262+950405546+944438038
557+939060086+934591741+931025870+928074919+925627348+923751220+922196106
547+920518775+918839765+917888119+918275938+920146668+923271229+927056287
537+930652023+933279921+934463588+934129861+932749856+931331591+930997624
527+932337210+934866699+937282967+938708368+939374083+940035600+941090993
517+942277418+943139172+943480455+943298569+942819777+942698880+943593796
507+945345068+947024798+947949518+948368401+949272553+951548973+955115085
497+959000831+962232616+964497282+965828352+965934257+964585976+962652458
487+961901887+963477451+966870732+970792459+974702913+978653425+982237228
477+984650377+985596567+985717224+986102225+987289249+988998724+991131278
467+993585866+995074654+994420094+992886928+992752778+994079290+995149196
458+995182659+994512566+993503889+993294417+995182059+998123414+999650403
448+999699098+1000587417+1003132618+1005391108+1006139580+1007238930+1010581837
438+1014626021+1015639256+1012059951+1006380295+1002357940+1002370593
429+1006464491+1012303185+1017098780+1020066642+1022471875+1025085560
421+1026421668+1024544161+1021751169+1022049694+1023982492+1024339427
412+1023446610+1025199381+1031862648+1040503090+1046043858+1046313359
404+1043014948+1039128003+1037012659+1038042925+1041423013+1043746329
395+1044221163+1045996603+1050678496+1056635689+1061573410+1065069598
387+1067717585+1068148402+1063832799+1056783692+1052801396+1055148819
378+1062990115+1071830134+1073741823+1067490543
##END=
