##TITLE=X8223
##JCAMP-DX=5.0
##DATA TYPE=LINK
##BLOCKS=1


$$ === CHEMSPECTRA SPECTRUM ORIG ===
##TITLE=X8223
##JCAMP-DX=5.00
##DATA TYPE=INFRARED SPECTRUM
##DATA CLASS=XYDATA
##ORIGIN=ComPlat
##OWNER=
##XUNITS=1/CM
##YUNITS=TRANSMITTANCE
##XFACTOR=1
##YFACTOR=8.3495205e-010
##FIRSTX=3997.453
##LASTX=373.96442
##MAXX=3997.453
##MAXY=0.8965229362845872
##MINX=373.96442
##MINY=0.4150822742493894
##NPOINTS=2559
##XYDATA= (X++(Y..Y))
2559I60780823I61803869I62485542I62449635I62058077I61710209I61404459I61112272
2551I61017970I61194724I61474846I61742976I62016173I62240899I62321709I62301578
2543I62279305I62240257I62100838I61818788I61395250I60908534I60581725I60629911
2535I60995696I61406743I61752684I62144955I62484900I62344339I61568292I60773684
2527I60888189I62164872I63798347I64695538I64615156I64162206I63903714I63908283
2519I63875802I63586184I63232606I63204908I63608672I64177912I64585102I64676192
2511I64610802I64787913I65294331I65532978I64909199I63796777I63004882I62642094
2503I62169941I61287455I60421889I60204516I60791674I61913876I63310703I64904131
2495I66573513I67995541I68879953I69256876I69182134I68418437I67001192I65722653
2487I65418759I66055601I66600569I65985214I64774278I64508504I65495213I66634477
2479I66983917I66887901I66689517I66103145I65502353I65742498I66704794I67501757
2471I67715561I67652669I67565506I67805437I68887377I70381934I70679260I68708267
2463I65768912I64002728I64353808I66793385I70771135I74323490I73776524I69571692
2455I66204086I64951032I65135995I66149761I67412238I68306288I68749386I69168927
2447I69586184I69543423I69060633I68453559I67482126I65909972I64468528I64247014
2439I65320102I66846782I68380030I70084464I71363575I70937181I69367954I68196923
2431I67340423I66157114I64993436I64412061I64485161I65010212I65610861I66225716
2423I67412595I69100539I69885223I68998527I68193354I68610038I68938133I67860976
2415I65975220I64655990I64440544I65073318I66129059I67153889I67598344I67357556
2407I67007474I66784604I66103216I64734301I63536929I63358675I64370442I66227430
2399I67984333I68539723I68000752I67422946I67237126I67409811I68149808I69364242
2391I70128439I69692265I68865532I69053423I70675905I72766327I73314722I71915753
2383I71021774I71578664I71568027I68898799I65386278I63823618I64053556I64959384
2375I65991924I66727852I66133627I63998802I61901597I61155675I61700714I62846831
2367I64091605I65234295I65973863I65853790I64828245I63577334I63076840I64009082
2359I66415820I69264586I70309904I68382672I65416617I63543639I63153438I63659428
2351I64173200I63953828I63143587I62581486I62710411I63520438I65241077I68331345
2343I72409108I75107675I73515319I68710124I64527065I62623604I62576846I63615526
2335I65473727I68323706I71770623I73962487I73541732I72457365I72252413I71629491
2327I69441197I67154246I66076946I65658190I65145490I64653134I64775848I65653051
2319I66684591I67204288I67582853I69003095I72101073I75917417I77008066I73198361
2311I68314926I66098648I66416962I67400531I67714133I67427801I67060015I66537320
2303I65700380I65059040I65212308I65744854I65240005I63292857I61626900I61294166
2295I62220840I64353024I67254330I69510228I70185048I70296483I70801189I71277625
2287I71292045I71283550I71516914I71314461I70059051I68240469I66781535I66006273
2279I65504780I64836099I64253082I64229953I64545840I64561259I64334749I64596953
2271I65590873I66476142I66279970I65528695I65249001I65396272I65545899I65705877
2263I65883059I65621926I64780988I64146359I64583104I66187881I68596761I71071460
2255I71990780I70305407I67534096I65665829I65068035I65061753I65173331I65486362
2247I66014911I66349359I66148547I65775907I65999777I67039027I68161015I68225692
2239I66951935I65430895I64910912I65514132I66289679I66312594I65620355I64959884
2231I64879788I65374356I66089937I66630837I66844855I66840715I66774610I66790173
2223I66871768I66580081I65457807I63915636I63093045I63496666I64357164I64645067
2215I64260221I63964251I64370013I65311964I66162682I66438235I66092651I65358365
2207I64495441I63806557I63570338I63727674I63879657I63776646I63586542I63567910
2199I63728531I63996732I64465030I65094805I65398556I64911055I63925630I63291929
2191I63584472I64650564I65746425I66134198I65696454I64835456I63872447I62968118
2183I62498963I62831340I63669565I64228025I64153569I63844392I63818050I64085680
2175I64298270I64409134I64848591I65796253I66573513I66255485I64853589I63353107
2167I62668292I62934209I63541497I63718965I63262660I62677787I62523520I62819633
2159I63218329I63482460I63620737I63734813I63811911I63636656I63053996I62332774
2151I61979837I62182148I62727330I63342828I63826831I64028998I63947332I63743379
2143I63612670I63684342I63961181I64303338I64546554I64604377I64385576I63762725
2135I62798574I61897314I61508755I61652314I61898956I61908522I61797230I61780168
2127I61711994I61352846I60991557I61295165I62378247I63467398I63803773I63517797
2119I63229822I63206336I63305635I63363958I63329050I63295569I63416142I63582545
2111I63575834I63704117I64545483I65793897I66272189I65470728I64239304I63557559
2103I63465470I63547708I63656502I63755301I63698334I63496952I63386659I63528219
2095I63906142I64332964I64381150I63766366I62935208I62751029I63515370I64704890
2087I65627494I66060813I66269405I66554524I66917955I67197149I67289810I67144609
2079I66816157I66607565I66878692I67642532I68408299I68387669I67080004I64915196
2071I63076983I62400163I62618108I62722832I61933507I60330157I58613445I57333692
2063I56599121I56464057I57074557I58286493I59593087I60619346I61386041I61974269
2055I62283446I62358759I62628530I63384732I64216889I64488088I64244658I64097315
2047I64305837I64594454I64785700I64998433I65232439I65339876I65431680I65780762
2039I66276615I66454797I66085298I65388205I64712742I64220244I63840965I63527077
2031I63539070I64192332I65232582I65886272I65774551I65480865I65846509I66843784
2023I67588421I67556226I67220564I67174234I67322219I67294021I66951864I66251487
2015I65317461I64732231I65044120I65949806I66576083I66612633I66633264I67109486
2007I67648029I67619831I67104632I66700511I66728994I67099920I67662164I68278233
1999I68692705I68624245I68094768I67576428I67602698I68228976I69028081I69503732
1991I69383445I68778084I68138100I67793016I67681224I67746186I68176007I68991816
1983I69833611I70333104I70425622I70284133I70052197I69669849I69063060I68433000
1975I68121538I68244253I68624459I68980323I69159504I69288429I69538997I69761153
1967I69640509I69091544I68231474I67311083I66777680I66895397I67317294I67552371
1959I67630397I67821071I68051579I68017028I67588564I66938657I66485922I66635762
1951I67334141I67997040I68071139I67589135I67084287I67048236I67552442I68279589
1943I68797073I68862249I68631312I68571562I68993815I69667564I70098742I70111591
1935I69875301I69464540I68824271I68131390I67784806I67951352I68368252I68677357
1927I68857680I69216971I69898216I70552190I70701247I70327180I69837608I69514083
1919I69269726I68945772I68568349I68176435I67528242I66149975I63696907I60241423
1911I56307219I52639432I49780386I47852297I46804052I46627298I47159130I47990288
1903I48797460I49519538I50190718I50846049I51376097I51178713I49323296I45437207
1895I40249520I35220598I31883546I31258410I33301932I36840367I40378231I43146900
1887I45355540I47496719I49625405I51453053I52962100I54505628I56220841I57796279
1879I58983443I59876636I60505983I60634194I60246992I59877065I60109714I60889616
1871I61586210I61748543I61517821I61181589I60679810I59863787I58949606I58315762
1863I58029357I57886869I57736742I57454122I56717551I55030108I51924349I47137571
1855I40837320I33911148I27948057I24548541I24282196I26314153I29237518I32178159
1847I34939262I37419886I39292222I40101963I39472473I37325584I34022369I30310392
1839I27282302I26183015I27634740I30920679I34496949I37309593I39289866I40732381
1831I41714308I42160619I42090660I41586454I40631940I39145664I37124629I34636153
1823I31771896I28699261I25594002I22468398I19284113I16180996I13327590I10723324
1815I08494839I07156619I07142057I08138975I09157167I09208851I07850215I05322976
1807I02515543I00727301I01085163I03923436I08630046I13997699I18862003I22727104
1799I25838217I28515582I30592228I31729421I32044452I32153459I32693644I33836477
1791I35145499I36024700I36393913I36695737I37228640I37823365I38180585I38225558
1783I38129400I38166379I38505466I39045580I39537935I39882377I40187056I40553414
1775I40982449I41496291I42186532I43114205I44244474I45433423I46419990I46981020
1767I47174050I47277133I47481085I47793403I48148053I48409543I48371423I47935177
1759I47256573I46635650I46257442I45994167I45476255I44446213I43042961I41682826
1751I40671702I39930135I39092338I37926876I36600293I35379790I34136730I32344205
1743I29652705I26444506I23745224I22508874I23002443I24895053I27734681I31099646
1735I34412641I37026972I38724838I39982890I41470307I43297241I44974120I46066625
1727I46591818I46811690I46988444I47335669I47901197I48474577I48799173I48871416
1719I48923172I49161890I49624977I50237119I50891951I51483535I51989311I52540775
1711I53293050I54196666I54981565I55371551I55307089I55014403I54870629I55143399
1703I55807654I56570637I57077556I57174071I56997816I56789581I56670293I56612184
1695I56522451I56347553I56179508I56221769I56616967I57371812I58381937I59393418
1687I60048750I60142053I59839800I59576597I59675468I60021766I60214153I60113427
1679I60054604I60375916I60970212I61486982I61812007I62129464I62569850I63006094
1671I63294142I63539498I63910853I64303124I64431621I64220030I63862810I63522508
1663I63202409I62914720I62742035I62686211I62678215I62766235I63059422I63464899
1655I63730387I63754159I63660785I63610243I63696764I63952258I64327753I64706532
1647I64976731I65095305I65116007I65138922I65177185I65140778I65036553I65042835
1639I65224943I65338163I65169618I64920764I64917123I65090950I65152414I65130641
1631I65305254I65677394I65912256I65794111I65447599I65097660I64832815I64659915
1623I64595739I64614585I64629577I64582247I64453108I64262005I64209607I64596953
1615I65368074I65994566I66077017I65833303I65812600I66307883I67099492I67641604
1607I67572572I67102919I66764473I66806306I67016326I67053162I66752623I66160040
1599I65441960I64786913I64342387I64248799I64626578I65377212I66104144I66499771
1591I66705579I66962715I67127690I66985916I66796669I66951721I67308870I67428514
1583I67299661I67304087I67581354I67895456I68082418I68226192I68369537I68397377
1575I68267311I68084489I67890745I67621759I67333356I67249404I67463137I67747685
1567I67839489I67796585I67838347I67934505I67874111I67725126I67870185I68485612
1559I69211474I69532071I69459615I69559842I70114518I70638212I70661770
1552I70542340I70865366I71519555I72110996I72822224I73987401I75118883
1545I75202833I73964200I72209010I70892921I70331177I70323111I70607802
1538I71074387I71719153I72440589I72929946I72980702I72844782I72936514
1531I73235054I73323859I72946437I72290819I71818167I71902617I72496628
1524I73201502I73750967I74207344I74634166I74949625I75128092I75144440
1517I74812704I74139526I73651525I73856620I74524516I74929280I74692274
1510I74097693I73721769I73943783I74669574I75449619I75953966I76196326
1503I76164416I75627158I74654226I73914086I73990756I74662150I75207831
1496I75227820I74902581I74627884I74650014I75042571I75838106I76928898
1489I77848219I78039750I77549250I77095729I77185249I77482218I77359361
1482I76806470I76440540I76723232I77427322I77899831I77775190I77401694
1475I77440100I78010838I78561160I78712786I78708074I78720924I78451510
1468I77856642I77495211I77622922I77684029I77149270I76207605I75381587
1461I75040643I75317196I75956680I76305619I75935334I75235458I74982033
1454I75374805I75916775I76216385I76382503I76590524I76834810I77158193
1447I77563171I77807528I77752346I77590940I77427036I77146556I76857868
1440I76859010I77180180I77617139I78021189I78306951I78518613I78882472
1433I79428582I79775237I79636889I79204856I78782459I78424811I78139335
1426I78100643I78446512I78976275I79108840I78134195I75703256I72189022
1419I68335128I64376795I59773768I53998995I47304188I40450046I33937133
1412I27725901I21538655I15245398I08854129I02315017H95903117H90733277
1405H87883297H87016874H87082336H88243944H91680652H97605980I04973323
1398I12786977I20174594I25658107I27599760I25221719I19446733I13075523
1391I08874760I07283260I07185460I07844861I09267602I11386723I13528330
1384I14955283I15683643I16268945I16929059I17480095I18072178I19362639
1377I21846832I25377200I29519711I33924926I38041452I41153992I43121915
1370I44579707I46213682I48237715I50591341I53263780I56297010I59522771
1363I62414941I64515572I66063454I67776168I69915135I71948662I73210426
1356I73611049I73660449I73925151I74539364I75310843I76144285I76984509
1349I77481576I77341443I76965520I77054611I77600078I77948089I77826446
1342I77685242I77984496I78610702I79132184I79417517I79794511I80556495
1335I81520647I82241726I82431401I81983019I80881948I79400027I78251483
1328I78147901I78971849I79772096I80082772I80774725I82679899I84864695
1321I85605548I84877545I84402607I85113550I85880245I85263462I83607500
1314I82518207I82777556I83746419I84512972I84767966I84862267I85589558
1307I87382511I89377133I89881339I88008860I84485201I80974037I78977702
1300I79224844I81620232I85237906I88503286I90261974I90858054I91339773
1293I91727475I91124899I89242854I86797139I84798163I84065733I84868050
1286I86524798I87737019I87643787I86518658I85237121I84207650I83457017
1279I83685598I85778733I88954737I91359048I92795781I94535479I96275107
1272I95934092I93045706I89980566I89062459I90200224I91710985I92143875
1265I91107123I89801670I90657671I94383568I97672220I97022385I93786559
1258I91610829I91943564I93847524I95691376I96427661I96156391I95489994
1251I94568532I93348815I92031154I90427163I88204103I86391661I86977105
1244I90277607I94177974I96459142I96621333I95442664I93920267I92564130
1237I91218986I89863849I89319095I90182877I91478335I91747035I91159307
1230I91021530I91540656I91644452I90887680I90152537I90309446I91105910
1223I91630889I91462559I91002256I90735126I90642966I90589283I90795448
1216I91396240I91832843I91362903I90153251I89255704I89312813I89838935
1209I90055450I89756126I89057962I88173193I87735305I88321178I89382487
1202I89752628I89367853I89240284I89838007I90950715I92877162I95999696
1195I99240733A000663474I99742726I97540440I94968655I92592471I91593268
1188I92829475I94767915I94193893I89923314I84915523I83729572I87722955
1181I93782776I98350252A001015983A003035589A003988248A002237199I98309206
1174I95323163I95375132I97317284I98958898I99634646I99666628I99216533
1167I98695623I98909855A000112439A001670387A002703569A002410169A000432823
1160I98030297I97792436A000480153A003360686A003684782A002598988A002913874
1153A004251523A003780869A000833732I97788224I97089132I99011938A001722071
1146A003055293A002660950A002257187A003413512A005478521A006380495A004806412
1139A000993210I96371051I92852676I91700277I92706547I94877351I97627461
1132A000568101A002950425A004443554A005429907A005905772A005317615A003776086
1125A002191368A000926392I99490515I97708199I96271465I95953723I96625046
1118I97187789I96486269I94547187I92980744I93589817I96304090I99008583
1111I99725593I98226254I95235713I91461416I88016498I86325414I86953048
1104I89170182I91727618I93768927I94977293I95419107I95550530I95904466
1097I96563296I97250038I97858897I98531576I99299199A000015781A000602153
1090A001096579A001495417A001864274A002633325A004268442A006301684A007339863
1083A006718155A005331678A004272868A003584627A002850769A002244552A002294094
1076A003041658A004058493A005139362A006414832A007635548A008003048A007430097
1069A007342148A008966985A011558830A013183453A013066593A012238362A011839452
1062A011923688A012077099A012355436A013240919A014938571A016632297A016567478
1055A014138467A011112233A009352403A009077778A009333057A009218767A008648314
1048A008125691A008081930A008466063A008876895A009096909A009460412A010594393
1041A012803246A015590262A017557257A017552403A016235315A014948137A014004260
1034A012662543A010171996A006985998A004570194A004026512A005212319A007108998
1027A009044726A010750087A011562827A010929197A009277019A007608707A006865854
1020A007544316A009353759A011623720A013924306A015835191A016750157A016617520
1013A016227890A016357529A017235945A018653117A020063437A020878176A021120249
1006A021427713A022289710A023661195A024920817A025043388A023812606A022409854
999A021806420A021877093A022047351A022332113A023202177A024382988A024999485
992A025078796A025639469A027344831A029686750A031074083A030491351A028813402
985A027196346A026048587A025567795A025887181A026650593A027221330A027554137
978A027878805A028042067A028112454A028680908A029987931A031308803A031532314
971A030650830A029659480A029120009A028912416A028826038A028781421A028710034
964A028861231A029853081A031758112A033128955A032388244A030291611A027916140
957A025527320A023297050A021324916A019724136A018959225A019667597A022343749
950A026808001A030869416A031920946A030726500A029353301A028870440A029588593
943A031535670A034763287A039069274A043685651A048273116A053131566A057232957
936A058033634A054768754A048905104A043760678A042314023A044922857A050187570
929A056069994A061566500A067084994A071970357A073741823A072522677A070423046
922A068576195A067136464A065783468A064598945A064086815A063779923A061296372
915A053428322A039443270A017837380I79736045I13635410H25395696G41371878
908F79915318F43225446F27892752F32029695F53666995F77809833F95266716
901G12804052G36353664G63309075G85399539H02098293H17188343H32101568
894H46931270H62588489H79487483H93965390I03188650I09664942I15739039
887I21420581I25393191I26220494I22030082I10631449H93768718H77542404
880H66104080H61199157H63860889H71747929H81214546H91494261I02759401
873I14044314I23600237I30243574I33780795I34221253I31027973I23355951
866I10639230H92529300H69009598H41725594H14964498G93933201G81578841
859G76743805G74719487G70713610G64208550G59909845G63585056G76303634
852G93827977H11103395H24695676H33509460H40282936H48734003H60720508
845H74562857H84484781H87347182H85928295H84954863H87965749H97147462
838I14294524I33206845I42524549I45953191I49057307I53013999I57463616
831I61657168I65079100I68170438I71861427I76406988I81125734I84910310
824I86292432I85612045I85232338I86129742I87844385I89314955I90236774
817I91503963I93825894I96994401A000188966A003080421A005918193A008412452
810A010078337A011275995A012123500A012025914A010975670A009729968A008818286
803A008360125A008377758A008793444A009411083A010444409A012235506A014838201
796A018068173A021471973A024248352A025782885A026688071A028203330A030924741
789A034220032A036378772A036663749A036104575A035554896A034962884A033820194
782A031571007A027683276A021463121A011620222I94719443I65123074I24590730
775H86848258H60543254H44994829H38012261H36773770H36126147H32214216
768H24070540H11179350G96531471G92000972H02672744H20710430H39928356
761H57285655H71481656H82876220H91768530H96730634H95474153H87655216
754H77287553H70746228H71317537H74096985H69622027H57469762H45582842
747H42722297H53360589H73070871H93688552I10297216I21065645I26607482
740I29554262I32298803I35079252I36150983I33174364I23823821I08004054
733H90992625H81334619H83801322H96353425I12476372I24835373I29359661
726I25540819I14553232I00693535H91212426H91327715I00722447I14752401
719I29385218I43543883I56958982I68063644I74989459I77598293I76579673
712I71676677I61535668I44260822I16440987H72152336H08689731G35354390
705F66750002F10788306E71558274E52618685E53338765E69213250E93894916
698F18531073F35884659F44842716F48051130F49029773F50630767F53270726
691F54926403F53473965F49053402F44638264F44085087F49189537F59035005
684F71925838F86571719G01571536G15586856G28291584G40122465G51463917
677G62320580G72539688G82340539G92314289H02757694H13439745H24023711
670H34317489H44186157H53466384H62004544H69779934H76852021H83147133
663H88580747H93318910H97573642I01425679I05146507I09222985I13826798
656I18670328I23384006I27574775I30250927I29118873I21015531I04511806
649H82903347H63729965H54097016H56011899H66081878H79018828H90711575
642H98714262I01638697H98660150H88770208H70526998H44287242H15966485
635G97023612G97215928H15991113H42824881H66312387H81243173H88002085
628H88860298H86595833H84953507H87848032H96955574I09891024I20552944
621I21362258I06227948H73630259H28811559G82558982G46034086G25411907
614G20394693G26656110G39147819G53644858G66311607G73248774G72025987
607G64237961G55525189G51743040G54840375G62564937G71430692G79250628
600G85493270G90510199G94694329G97759254G98445996G94884146G85259478
593G68697716G46535008G23071131G04285238F94827900F95729231G04741329
586G18608093G34894444G52219976G69676501G86399884H01382924H13141277
579H19441956H18293698H10388883H00266933G93610176G92781231G95368648
572G96876841G94392719G88541705G83183832G83028494G90357931H03236557
565H16856608H26826718H30953738H28216264H18250866H03830354G92204996
558G90578302G99943765H15267536H31161973H45410871H57791146H67784885
551H73805655H74175369H69394587H63436351H61527394H66133420H75663215
544H86850400H97256541I05184342I08477206I05086828H95281265H82399783
537H70453755H61061808H53371511H46924417H43724998H46932341H57808279
530H74278380H92087486I06650344I13398548I06904910H82039351H39230978
523G89308329G50117417G35135518G44745481G68590064G94713532H15593274
516H28044436H30671046H21910587G99629663G62983765G15750046F67674962
509F30973882F13811756F16313296F32455803F55146774F79486426G02893336
502G24175415G42927113G59122019G72877133G84569452G94953749H04804714
495H14337721H23200905H31153264H38419809H45193070H51240540H56302657
488H60542326H64316480H67675948H70139153H70178773H63775867H44427517
481H08655466G64120102G29154509G19742431G36959311G68814647H02367636
474H31583370H55887970H75645296H89642271H94514141H85925154H61956929
467H25935310G84721292G44292745G08748062F83151786F73808240F83591030
460G08314672G39207570G68505257G92539229H11263158H26388259H39581060
453H51298864H60694880H66202951H65703100H56207641H34603322H00464961
446G58990310G20361641F94764794F87076282F95446254G13641920G34433928
439G52510806G66335451G77768136G88955678G98559287H01443532G93888656
432G79587074G68334285G67432882G76012018G88591890H01537478H14287750
425H26837640H38652602H48834802H55582935H56899238H53580389H50016612
418H49822154H50932577H45997529H27779019G95546189G58321557G31011853
411G23876875G34089486G48630355G56304449G56629331G57260177G64508946
404G77974373G93293932H07111296H18480732H27611974H34995022H41255297
397H46893435H51983535H56319862H59945960H63275873H66475292H69173217
390H71181402H72991203H75156368H77602440H79854626H81719894H83542045
383H85795944H88541342H91403528H93964319H96022404H97638532H99043070
376I00436114I01962294I03828634I06163200I08805800I11524642I14300236
369I17161709I19889332I22144801I23973876I25918241I28312415I30782545
362I32880535I34740521I36526693I37655034I37211650I35176409I32707564
355I30552322I27794932I23815112I20727842I20880396I21346909I12788119
348H85060873H36401201G80171019G40217338G33826925G58504022G97121341
341H33211491H58624017H69569557H61428880H32337002G92240404G62270538
334G59090323G81280301H14101288H44508612H68254610H86399021I00656842
327I12087885I21241185I28456260I34392296I40134016I46343035I52564618
320I57931913I62336486I66400757I70660771I75274221I80189923I85197073
313I89845502I93224743I93242662I85176656I61203290I14976128H51243110
306G90389627G57772164G65024574H02915388H52250094H98338481I35455389
299I63672206I85360477A003003466A017736296A028206328A029268779A014201287
292I83942804I53864716I44191005I61118340I91582560A016231602A021335052
285I99194403I48858424H84229787H33062507H13906330H13596440G98030881
278G47110886F72050479F00867025E57814081E54614698E86256552F28694712
271F49227799F29213053E78890423E27575051D98944725D97133068E12838973
264E35779762E60292206E84285560F06917994F27483348F45529244F61263418
257F75395527F88612885G01185618G12873154G23038650G30408991G32969996
250G29610457G22309004G15511043G13339809G17953617G29090974G43736141
243G56829357G63209704G60363151G51399740G44502266G46884875G59245875
236G76851171G94587105H09626899H20756546H26925232H25919462H13770552
229G87095764G48538196G09653819F85286326F83401498G00718819G27394893
222G54704454G78997918H00496942H20160537H38233989H54361862H66731785
215H69744741H53352593H09665377G44426667F76054143F24165142F07222459
208F29589904F65885935F96694168G21776244G43727646G62221280G74154102
201G73441733G55164114G24410349F98026462F93066500G13326247G48972799
194G87101260H19015991H38119627H35956675H05871448G52948051F97373200
187F62004771F55576737F69972336F90734217G06585324G11729322G05733250
180F93648374F83744369F82333121F89790626G01782841G14000782G25227585
173G36379078G47784136G58326554G66881276G73239565G77579460G80310724
166G82515080G85395542G89197323G93302070G97041387G99925704H01294405
159G99686272G92783230G79545526G63239259G50935011G48392424G55697232
152G68429943G81579911G92041020G99294858H04446423H08607137H12353594
145H15862260H18719378H20320801H21085069H22383525H24825457H27543799
138H29600171H31145412H32517610H33350410H33374396H33063221H32661455
131H31188957H27085781H19794037H10563923H01583094G94395717G89650844
124G88280358G91490770G98852402H07766556H15749255H22133671H27224914
117H31393552H35259081H39297224H43076163H45814779H47583104H49401971
110H52251308H55985914H59157848H60589870H60805458H60889552H61102642
103H61496055H62805862H65523704H68762671H71048694H71686465H70867300
96H68890953H66165758H63873025H63141951H63255599H62300443H60251139
89H59254720H60266987H61410176H60054753H55928804H51634453H50115269
82H51772230H53697963H50875468H39281377H20315518H01489077G90993203
75G91996474H01599299H14561591H27734688H40136878H50801440H59235517
68H66106650H71126149H71346806H61830003H38396536H02238783G62116414
61G30580676G17774722G24569328G43048900G65537631G86781590H02823941
54H13723151H23290639H33966693H43840788H49111355H48383494H43802881
47H37914532H31040687H22183071H10822202G96885193G80756678G65918266
40G59431838G65859800G82283287H01179044H16764376H28059784H36740004
33H44710494H52738166H59228021H62290092H61262477H56230557H47574536
26H36167266H24631855H17240527H16552643H21005544H26699792H30102377
19H29170707H26101284H27915868H35533493H42157556H44501545H44338854
12H41974877H34558848H21409808H06775849G94768286G83966019G71474024
5G57940708G45443074G33255901G18902421G07625503
##END=


$$ === CHEMSPECTRA PEAK TABLE EDIT ===
##TITLE=X8223
##JCAMP-DX=5.00
##DATA TYPE=INFRAREDPEAKTABLE
##DATA CLASS=PEAKTABLE
##$CSTHRESHOLD=0.93
##MAXX=3997.453
##MAXY=0.8965229362845872
##MINX=373.96442
##MINY=0.4150822742493894
##$CSSOLVENTNAME=- - -
##$CSSOLVENTVALUE=0
##$CSSOLVENTX=0
##NPOINTS=63
##PEAKTABLE= (XY..XY)
398.0454621657541, 0.6897549605834322
405.12812162627006, 0.6817823032057682
429.2091637920248, 0.634089169973368
457.5398016340887, 0.5993074755720801
480.20431190774025, 0.6604413963809161
490.1200351524626, 0.7098054865878515
548.197842728694, 0.6581763008868339
590.6937994917903, 0.6248717886232692
624.6905649022669, 0.5697154381618481
636.022820039093, 0.5473751404904609
651.6046708522281, 0.578677294961325
668.6030535574664, 0.507001636948091
691.267563831118, 0.5706074817281709
711.0990103205627, 0.6216236932263454
722.4312654573882, 0.5956045367061105
749.3453714073494, 0.4150822742493894
760.6776265441749, 0.4630766790552309
783.3421368178529, 0.7883542152163103
804.5901151993744, 0.6327034217647363
845.669540070367, 0.6338040213240121
859.8348589913994, 0.6127102953739463
954.7424957623139, 0.6044024807288437
981.656601712275, 0.6407696580633081
1000.0715163096165, 0.5736757501622781
1026.9856222595777, 0.5625975712948921
1049.6501325332288, 0.6009504182354336
1092.146089296325, 0.5125033839862998
1110.5610038936666, 0.6138029077819119
1127.5593865989053, 0.704469916716346
1147.39083308835, 0.7193340637514577
1162.9726839014852, 0.6600949739404192
1177.1380028225171, 0.6537912462737128
1185.6371941751368, 0.6619343140249736
1206.8851725566847, 0.580147979502195
1229.5496828303358, 0.627669392321232
1242.298469859265, 0.6014950257294707
1259.2968525645033, 0.7388937448243393
1272.045639593432, 0.6654764987378047
1289.0440222986708, 0.7131300544080829
1345.705297982799, 0.5377801637650784
1366.953276364347, 0.4614101039090543
1396.700446098514, 0.7441196420741734
1409.4492331274432, 0.735872146870019
1430.6972115089911, 0.7036327102958109
1439.1964028616103, 0.7270313480983674
1456.194785566849, 0.6612828351733926
1563.8512093666927, 0.7388948770193192
1583.6826558561374, 0.6344882828979322
1617.6794212666146, 0.7190600015954218
1655.9257823534008, 0.5242603404625417
1692.7556115481034, 0.8702822302475972
1723.9193131743737, 0.8514207577876788
1939.2321607740591, 0.8235344263863987
2340.110686239249, 0.757456359557193
2361.3586646207973, 0.7406165573308917
2837.3133803674746, 0.7702506754894918
2930.8044852462863, 0.752064106460917
2940.7202084910086, 0.7574201201333669
2976.1335057935885, 0.7733184070494308
2994.5484203909305, 0.7717313143287018
3052.626227967162, 0.7775561185092406
3075.2907382408207, 0.7914112184773588
3293.4366496247126, 0.7986016251434669
##END=


$$ === CHEMSPECTRA PEAK TABLE AUTO ===
##TITLE=X8223
##JCAMP-DX=5.00
##DATA TYPE=INFRAREDPEAKTABLE
##DATA CLASS=PEAKTABLE
##$CSTHRESHOLD=0.93
##MAXX=3997.453
##MAXY=0.8965229362845872
##MINX=373.96442
##MINY=0.4150822742493894
##NPOINTS=208
##PEAKTABLE= (XY..XY)
3986.1207448631744, 0.8024039241383385
3966.2892983737293, 0.8020396804812863
3953.5405113448005, 0.8021999570418522
3943.624788100078, 0.8048133820069138
3936.542128639562, 0.8042299125046615
3929.459469179046, 0.8054037665820442
3913.8776183659106, 0.8017247290534578
3895.462703768569, 0.806078371935506
3888.380044308053, 0.8053183526572333
3878.4643210633308, 0.8061481689171737
3869.9651297107116, 0.8078708027439874
3860.049406465989, 0.8048960539491924
3848.7171513291632, 0.8056878423180156
3828.8857048397185, 0.8051000210456787
3811.88732213448, 0.805237827376675
3799.138535105551, 0.8083950257186757
3790.639343752932, 0.8052616093159153
3775.0574929397967, 0.8043583005765338
3765.1417696950743, 0.8075966211898084
3756.642578342455, 0.8089562621177406
3748.1433869898356, 0.8107566207959367
3741.0607275293196, 0.8047465056875169
3729.728472392494, 0.8025189012103838
3716.9796853635653, 0.804122981865522
3705.6474302267397, 0.8041869375226479
3698.564770766224, 0.8037093850277464
3682.982919953088, 0.8037055108502343
3661.7349415715403, 0.8054391117722247
3644.7365588663015, 0.8066460466498284
3633.404303729476, 0.8057780238190321
3624.905112376857, 0.8026345345547403
3610.739793455825, 0.8109751912037775
3596.574474534793, 0.8050857759287536
3592.3248788584833, 0.8051732755637855
3583.825687505864, 0.8059366321454021
3573.9099642611413, 0.805015978947086
3559.7446453401094, 0.8057802890439437
3551.2454539874902, 0.8063765733902594
3541.329730742768, 0.8056543440417696
3532.8305393901483, 0.8056283569941655
3524.331348037529, 0.8072104425074506
3515.83215668491, 0.8041365122634923
3508.749497224394, 0.8048639274991646
3496.000710195465, 0.8045350290322929
3488.9180507349492, 0.8045330017687156
3477.5857955981237, 0.8043025708670045
3464.8370085691945, 0.8036404822797242
3456.3378172165753, 0.8047418566745025
3442.1724982955434, 0.8037818638753986
3433.6733069429242, 0.803660986197216
3419.507988021892, 0.8032070369618158
3408.1757328850663, 0.8045703742224736
3394.0104139640343, 0.8028137060801978
3382.678158827209, 0.8023818705498419
3372.7624355824864, 0.8042311048161889
3367.0963080140737, 0.8043056100924665
3362.846712337764, 0.8045396179287597
3351.514457200938, 0.8044474692807135
3343.015265848319, 0.804381665874701
3333.0995426035965, 0.8038509453031595
3316.1011598983578, 0.8070709679422583
3304.768904761532, 0.8035579890171842
3293.4366496247067, 0.7986016251434669
3273.605203135262, 0.8049750295587458
3250.9406928616104, 0.8044989081716579
3242.441501508991, 0.8061302274675233
3233.942310156372, 0.8075441093854797
3225.443118803753, 0.8055051539745236
3211.277799882721, 0.8071485733954976
3199.945544745895, 0.8078799220902775
3187.196757716966, 0.8079674217253092
3170.198375011728, 0.808335062802253
3153.1999923064895, 0.807213005810244
3139.034673385457, 0.8069694018700402
3129.118950140735, 0.8074389070970839
3120.6197587881156, 0.8087108112636021
3107.870971759187, 0.8080539077285523
3072.4576744566066, 0.790388403051061
3052.626227967162, 0.7775561185092406
3027.128653909304, 0.8014513231697333
2994.5484203909305, 0.7717313143287018
2976.1335057935885, 0.7733184070494308
2940.7202084910086, 0.7574201201333669
2930.8044852462863, 0.752064106460917
2898.2242517279124, 0.78329306569527
2837.3133803674746, 0.7702506754894918
2787.7347641438623, 0.7972711891683395
2770.7363814386235, 0.7983640403725915
2757.987594409695, 0.8012004467971738
2750.904934949179, 0.8015995597217382
2722.574297107115, 0.8037901491045908
2712.6585738623926, 0.8045683477938482
2697.076723049257, 0.8057592482522837
2688.577531696638, 0.8056595299289522
2684.3279360203283, 0.805837807220764
2671.5791489913995, 0.805391189699315
2663.07995763878, 0.8050687879943443
2654.5807662861607, 0.8064072102858301
2646.0815749335416, 0.8072019785985197
2633.332787904613, 0.805101511435088
2620.584000875684, 0.8072288607147214
2614.9178733072713, 0.807648834916255
2596.5029587099298, 0.8076068727310782
2590.836831141517, 0.8080637426287492
2585.1707035731038, 0.8080040777902083
2578.088044112588, 0.8094522929364608
2571.005384652072, 0.810356316394797
2554.007001946833, 0.8101732706918275
2544.0912787021107, 0.8122787450627031
2535.5920873494915, 0.8114215707638924
2518.593704644253, 0.8129523367843763
2510.094513291634, 0.8130109871561765
2497.3457262627053, 0.8131715626295763
2488.846534910086, 0.8137675497329623
2477.51427977326, 0.8158280819747945
2470.431620312744, 0.815281030576107
2463.348960852228, 0.8160835480787727
2456.266301391712, 0.8171743127378517
2450.600173823299, 0.8161616302896326
2442.10098247068, 0.8141121837061682
2433.6017911180606, 0.8140632471665177
2413.770344628616, 0.8156294794452295
2392.522366247068, 0.8166671369791682
2361.3586646207973, 0.7406165573308917
2340.110686239249, 0.757456359557193
2280.616346770915, 0.815719363703316
2273.533687310399, 0.8163202970626461
2253.7022408209536, 0.816706595143147
2240.953453792025, 0.8219289747399944
2233.870794331509, 0.8203555910969744
2215.455879734167, 0.8173994391891891
2197.0409651368254, 0.8216477011031027
2185.70871, 0.8211394524310349
2170.1268591868647, 0.8258197277200909
2163.044199726349, 0.8264369334599235
2154.5450083737296, 0.8279474944757494
2137.546625668491, 0.823589739454855
2121.9647748553552, 0.8260340064743947
2114.8821153948393, 0.8274554580676365
2109.2159878264265, 0.8267298905808509
2097.883732689601, 0.8270945525488802
2089.384541336982, 0.8259810780289932
2079.4688180922594, 0.8247116177671253
2072.3861586317435, 0.8259682030683823
2056.8043078186083, 0.8279328318827994
2048.305116465989, 0.8213670227870227
2035.55632943706, 0.8310471153593342
2014.308351055512, 0.8331088399126938
2000.1430321344799, 0.8325216147961206
1981.7281175371381, 0.8280221792667178
1959.063607263487, 0.8315736027239822
1951.9809478029708, 0.8290913078133252
1939.2321607740419, 0.8235344263863987
1655.9257823534008, 0.5242603404625417
1617.6794212666146, 0.7190600015954218
1583.6826558561374, 0.6344882828979322
1563.8512093666927, 0.7388948770193192
1536.9371034167316, 0.8226217603393929
1456.194785566849, 0.6612828351733926
1439.1964028616103, 0.7270313480983674
1430.6972115089911, 0.7036327094608589
1409.4492331274432, 0.735872146870019
1396.700446098514, 0.7441196420741734
1366.953276364347, 0.4614101039090543
1345.705297982799, 0.5377801637650784
1289.0440222986708, 0.7131300544080829
1272.045639593432, 0.6654764987378047
1259.2968525645033, 0.7388937448243393
1242.298469859265, 0.6014950257294707
1229.5496828303358, 0.627669392321232
1206.8851725566847, 0.580147979502195
1185.6371941751368, 0.6619343140249736
1177.1380028225171, 0.6537912462737128
1162.9726839014852, 0.6600949739404192
1147.39083308835, 0.7193340637514577
1127.5593865989053, 0.704469916716346
1110.5610038936666, 0.6138029077819119
1092.146089296325, 0.5125033839862998
1049.6501325332288, 0.6009504182354336
1026.9856222595777, 0.5625975712948921
1000.0715163096165, 0.5736757501622781
981.656601712275, 0.6407696580633081
964.6582190070367, 0.7095607496177158
954.7424957623139, 0.6044024807288437
871.167114128225, 0.7687635991699762
859.8348589913994, 0.6127102953739463
845.669540070367, 0.6338040213240121
804.5901151993744, 0.6327034217647363
783.342136817826, 0.7883542152163103
760.6776265441749, 0.4630766790552309
749.3453714073494, 0.4150822742493894
722.4312654573882, 0.5956045358711585
711.0990103205627, 0.6216236932263454
691.267563831118, 0.5706074817281709
668.6030535574664, 0.507001636948091
651.6046708522281, 0.578677294961325
636.022820039093, 0.5473751404904609
624.6905649022669, 0.5697154381618481
590.6937994917903, 0.6248717886232692
548.197842728694, 0.6581763008868339
504.28535407349455, 0.7206821414284496
498.61922650508177, 0.717436489936176
490.1200351524626, 0.7098054865878515
480.20431190774025, 0.6604413963809161
457.5398016340887, 0.5993074755720801
429.2091637920248, 0.634089169973368
405.12812162627006, 0.6817823032057682
398.0454621657541, 0.6897549605834322
##END=

##END=

