##TITLE=X7489
##JCAMP-DX=4.24
##DATA TYPE=INFRARED SPECTRUM
##DATE=29/10/2018
##SAMPLING PROCEDURE=Diamant-ATR
##ORIGIN=ComPlat
##XUNITS=1/CM
##YUNITS=TRANSMITTANCE
##RESOLUTION=4
##FIRSTX=3997.453
##LASTX=373.96442
##DELTAX=-1.4165319
##MAXY=0.97568804
##MINY=0.63621688
##XFACTOR=1
##YFACTOR=9.086803e-010
##NPOINTS=2559
##FIRSTY=0.94142962
##XYDATA=(X++(Y..Y))
3997+1036040527+1036748294+1037282497+1037105851+1036407136+1035636069
3989+1035020004+1034739324+1035078842+1036056466+1037190009+1037919422
3980+1038084327+1037869767+1037532545+1037242681+1036975186+1036583585
3972+1036117207+1035893004+1036113862+1036611922+1037054162+1037221297
3963+1037103686+1036925596+1037024120+1037534578+1038218665+1038613677
3955+1038394525+1037734248+1037239926+1037368492+1037982524+1038541523
3946+1038651328+1038385670+1038170781+1038303283+1038515810+1038422665
3938+1038131228+1037842086+1037345534+1036485980+1035750008+1035751713
3929+1036321207+1036780829+1036760888+1036410087+1036159647+1036179063
3921+1036121077+1035638890+1034924367+1034589440+1034983402+1035872932
3912+1036886896+1037849367+1038520467+1038397739+1037205424+1035499370
3904+1034418631+1034529880+1035425182+1036647016+1037891807+1038746900
3895+1039004097+1038801081+1038426470+1038147298+1037983180+1037707223
3887+1037195912+1036571844+1035960567+1035292943+1034650509+1034555790
3878+1035297404+1036333604+1036897391+1036523238+1035353815+1034245920
3870+1034264549+1035622032+1037282825+1038245822+1038289508+1037763569
3861+1037143305+1036645835+1036376896+1036454954+1036785552+1036773679
3853+1035923309+1035284482+1035741349+1036915495+1038304267+1039502354
3844+1040021930+1039505831+1038269567+1037157474+1036736028+1037009426
3836+1037751631+1038652968+1039160278+1038757985+1037617883+1036553805
3827+1036269977+1036884272+1037895349+1038612759+1038673434+1038315877
3819+1038060713+1038065961+1038343492+1038857624+1039225413+1039020233
3810+1038181473+1037047406+1036361941+1036744883+1037538973+1037399322
3802+1036070438+1035053588+1035746137+1037643006+1039691267+1041222576
3793+1041988920+1042143264+1042014961+1041878524+1041797842+1041574689
3785+1041015559+1040295788+1039724721+1039261884+1038737848+1038313319
3776+1038211647+1038374978+1038699212+1039139025+1039511144+1039516064
3768+1039146897+1038875990+1039273363+1040380471+1041466851+1041637594
3759+1040589128+1038968741+1037782788+1037342320+1037224905+1036764496
3751+1035725737+1034936698+1035046898+1035559783+1035759519+1035371460
3742+1034895243+1034662119+1034299642+1033456028+1032346034+1031634987
3734+1031737118+1032771744+1034723581+1037008574+1038746965+1039400223
3725+1038970119+1037916077+1036945865+1036614481+1036952228+1037600829
3717+1038257498+1038725319+1038762905+1038295477+1037842480+1038195314
3708+1039282481+1040383029+1040978695+1040914675+1040415236+1040026325
3700+1040108778+1040489686+1040903983+1041371280+1042089804+1043120035
3691+1044153218+1044543048+1043868996+1042598557+1041448944+1040674992
3683+1040246789+1039984935+1039685495+1039252176+1038553002+1037577674
3674+1036956820+1036975645+1036903097+1036477716+1036904606+1038903540
3666+1041127661+1042150348+1041771670+1040719006+1039671523+1038796817
3657+1038349068+1038942766+1040418123+1041461341+1040966626+1038726828
3649+1035721736+1033872555+1034077998+1035707896+1037713258+1039290155
3640+1040299199+1041109229+1041745498+1041587939+1040217206+1038162582
3632+1036243608+1034534340+1032968660+1032570827+1033770424+1035337023
3623+1036409103+1037101587+1037815323+1038582979+1039107212+1039233416
3615+1039008492+1038649033+1038542769+1038893635+1039716980+1040998308
3606+1042164451+1042265205+1041202964+1039815110+1038860051+1038375962
3598+1038010599+1037495024+1036781550+1036273257+1036471353+1037107359
3589+1037294698+1036603854+1035926851+1036396640+1037587382+1038314499
3581+1038177472+1037859337+1038030671+1038366122+1038355234+1038332735
3572+1038735027+1039125775+1038794456+1037746777+1036729403+1036309924
3564+1036300085+1036339770+1036288803+1036228521+1036419861+1036963117
3555+1037419984+1037120741+1036064206+1035142797+1034967987+1035130859
3547+1034941946+1034195478+1033256227+1032865348+1033622245+1035187401
3538+1036303562+1036075489+1034911838+1033773113+1033078006+1032760199
3530+1032626321+1032345247+1031621606+1030632175+1030061829+1030505052
3521+1031675459+1032462727+1032138230+1031221937+1030739422+1030820170
3513+1030593081+1029414540+1027743711+1026645065+1026490064+1026495312
3504+1025694400+1024054728+1022398724+1021220642+1020196840+1018923187
3496+1017447305+1015998711+1014590654+1013002409+1010929615+1008085821
3488+1004313992+999573986+993653536+986038577+976434327+965408901+954107191
3478+943478154+934304993+927517774+923776185+922969894+924443939+927390455
3468+931041982+934992360+939351392+944284248+949569675+954850969+960023836
3458+965136487+970131395+974789736+978822566+982135494+985045801+987977164
3448+990899213+993360983+995144045+996551380+997975835+999490287+1000889619
3438+1002018111+1003003410+1004125342+1005420772+1006527159+1007096652
3429+1007305047+1007702617+1008542426+1009460227+1009870785+1009588662
3421+1009037404+1008857084+1009339861+1010292559+1011276349+1011852402
3412+1011860470+1011612522+1011581824+1011861585+1012202153+1012525994
3404+1013020841+1013666424+1014039134+1013813553+1013222151+1012747114
3395+1012526978+1012424978+1012499822+1012928024+1013595713+1014182524
3387+1014463532+1014311483+1013788299+1013432645+1013941529+1015277562
3378+1016556922+1017100374+1017173709+1017399486+1017908830+1018343591
3370+1018349364+1017908633+1017413393+1017260426+1017286532+1017140781
3361+1017231302+1018321748+1020066306+1021075022+1020725336+1019891299
3353+1019556241+1019677592+1019770474+1019763586+1019848532+1020022817
3344+1020119175+1020005303+1019690514+1019400913+1019345879+1019308949
3336+1018927057+1018416467+1018421780+1019124234+1020001695+1020415532
3327+1020177227+1019712882+1019717539+1020425896+1021309130+1021670884
3319+1021414934+1021094766+1021278497+1021983443+1022800426+1023383497
3310+1023533841+1023071267+1022112009+1021264066+1021082106+1021486366
3302+1021933198+1021998071+1021675607+1021206146+1020740095+1020322978
3293+1020121471+1020347707+1020945079+1021604240+1022071209+1022313057
3285+1022420829+1022412433+1022224963+1021976818+1021945070+1022028507
3276+1021688989+1020766136+1019850040+1019553027+1019928623+1020710709
3268+1021532283+1021897973+1021571180+1021059607+1021173283+1021984821
3259+1022681765+1022598656+1021979114+1021458882+1021168101+1020726845
3251+1019945415+1019189108+1019024202+1019617572+1020536489+1021207326
3242+1021586792+1022099218+1022785667+1022933977+1021959633+1020391656
3234+1019434957+1019638235+1020430619+1020918382+1020752099+1020197496
3225+1019706585+1019528036+1019516360+1019330202+1018966413+1018841128
3217+1019053327+1019017184+1018289804+1017306342+1016811954+1016981845
3208+1017476167+1017955336+1018256023+1018292362+1017985116+1017343141
3200+1016617860+1016209204+1016313828+1016780272+1017259048+1017378890
3191+1017003229+1016394182+1015851057+1015327152+1014787045+1014577863
3183+1014925122+1015417345+1015468377+1015031779+1014542836+1014308138
3174+1014218470+1014018734+1013627723+1013166789+1012851607+1012831075
3166+1012993882+1013070103+1013006017+1012945079+1012853115+1012555840
3157+1012023211+1011272741+1010338279+1009597714+1009598829+1010339787
3149+1011195143+1011597698+1011443222+1010972973+1010489737+1010049531
3140+1009523133+1009143339+1009546813+1010906198+1012460006+1013283482
3132+1013229367+1012892931+1012925269+1013537662+1014420108+1015024301
3123+1015040437+1014636374+1014223193+1014063928+1014171176+1014508070
3115+1015057361+1015595434+1015667851+1015082943+1014276783+1013918505
3106+1014233163+1014884715+1015422330+1015694417+1015841677+1015967553
3098+1016013929+1016052236+1016399232+1017162165+1017954418+1018377045
3089+1018539523+1018839029+1019400913+1019938200+1020090183+1019786741
3081+1019258507+1018749754+1018316173+1017931197+1017700435+1017836413
3072+1018333752+1018759987+1018578486+1017662980+1016338820+1015094750
3064+1014362778+1014216174+1014148152+1013584234+1012564564+1011406095
3055+1009987806+1008140593+1006429488+1005706175+1006056320+1006804559
3047+1007447125+1008105237+1009024482+1010044086+1010837192+1011445255
3038+1012193298+1013168101+1014170979+1015076186+1015870408+1016484112
3030+1016856362+1016992537+1016859248+1016456956+1015969456+1015609865
3021+1015453750+1015500912+1015593139+1015311147+1014456579+1013582070
3013+1013488991+1014262353+1015300127+1016151087+1016832879+1017444747
3004+1017916307+1018166223+1018260745+1018298200+1018219552+1017910338
2996+1017504241+1017324971+1017463376+1017682003+1017762750+1017638054
2987+1017211492+1016278013+1014559628+1011848335+1008401069+1005124087
2979+1002992718+1002324832+1002742933+1003509407+1003701469+1002530012
2970+999879723+996405366+992929632+989793614+986815744+983833873+981152622
2961+979319971+978572256+978711842+979422495+980427210+981382007+981921917
2951+981910438+981514508+981034355+980778667+981049704+981998204+983421675
2941+984844753+985861406+986392002+986681340+987007084+987252998+986916366
2931+985754159+984219766+983014398+982413550+982194595+982052254+981944744
2921+982066094+982534769+983225678+983982117+984817400+985807553+986926730
2911+987995662+988670894+988625043+987887562+986838308+985805388+984904248
2901+984270274+984167356+984795688+986134739+988008059+990222013+992606644
2891+994951393+997014151+998678158+1000025474+1001162887+1002063175+1002673468
2881+1003045849+1003224333+1003092881+1002455759+1001230515+999570378+997904272
2871+996756888+996291559+996123243+995787989+995242372+994755199+994579012
2861+994870515+995621575+996521862+997154327+997447142+997757864+998430276
2851+999390124+1000311270+1001122809+1002137297+1003646828+1005579381
2843+1007561457+1009173710+1010248348+1011035419+1011931050+1013021169
2834+1014080721+1014954508+1015699074+1016404742+1017073743+1017659373
2826+1018150153+1018570943+1018898917+1019063559+1019060608+1018962412
2817+1018844604+1018810364+1018965430+1019279825+1019648336+1020101662
2809+1020732421+1021451404+1022044250+1022411187+1022559037+1022435981
2800+1022001679+1021469443+1021259474+1021593811+1022286950+1022997013
2792+1023502158+1023748795+1023862733+1024082737+1024508447+1025005393
2783+1025396403+1025562292+1025431168+1025104179+1024873220+1024898080
2775+1025002966+1024934419+1024724779+1024668236+1024949113+1025459243
2766+1026098004+1026992126+1028136886+1029088337+1029365213+1028973874
2758+1028311302+1027766144+1027517475+1027509406+1027550797+1027527904
2749+1027475560+1027431545+1027371985+1027335056+1027443352+1027690120
2741+1027837118+1027718588+1027547255+1027668146+1028094511+1028532356
2732+1028744818+1028637439+1028177620+1027548829+1027198422+1027404258
2724+1027931771+1028363122+1028613169+1028897981+1029348224+1029867734
2715+1030264385+1030417943+1030428635+1030601280+1031144863+1031953319
2707+1032772400+1033408275+1033686725+1033477806+1032894078+1032261220
2698+1031807174+1031565982+1031563030+1031807436+1032112320+1032244166
2690+1032272634+1032424814+1032604018+1032465286+1032007369+1031653485
2681+1031665620+1031846858+1031903795+1031779033+1031542499+1031230858
2673+1030919808+1030758117+1030813872+1031011903+1031233088+1031357259
2664+1031317050+1031225283+1031258802+1031336925+1031226595+1030998718
2656+1031007574+1031412162+1032037608+1032624156+1032988338+1033116379
2647+1033235827+1033578428+1034032081+1034241657+1034040937+1033612078
2639+1033204341+1032846063+1032451707+1032158499+1032340459+1033163476
2630+1034266123+1035038108+1035196388+1034994553+1034789241+1034535324
2622+1033972193+1033245797+1032886535+1033083909+1033441598+1033590498
2614+1033627099+1033810502+1034210368+1034792128+1035519114+1036248856
2605+1036782928+1037076530+1037185548+1037036255+1036520024+1035830755
2597+1035430561+1035580445+1036108745+1036733207+1037355176+1037912928
2588+1038232768+1038211844+1037974128+1037788758+1037936346+1038464580
2580+1038992815+1039125381+1039074218+1039350962+1039974243+1040614054
2571+1041229267+1041866192+1042232211+1042228800+1042448870+1043368836
2563+1044416319+1044579518+1043741152+1042710921+1042091575+1041787609
2554+1041540842+1041328184+1041216017+1041191288+1041104244+1040728517
2546+1040162434+1040058729+1040938617+1042401970+1043516424+1043790545
2537+1043380971+1042690718+1042173438+1042216468+1042887436+1043897858
2529+1044858427+1045467802+1045584758+1045251864+1044549541+1043511308
2520+1042379471+1041738413+1042002367+1042854508+1043541678+1043697269
2512+1043635872+1043880541+1044618613+1045582593+1046272322+1046289507
2503+1045572623+1044348887+1042945094+1041752188+1041212147+1041530544
2495+1042419221+1043311638+1043753877+1043526985+1042718661+1041861732
2486+1041674655+1042456676+1043860075+1045162000+1045632839+1045002932
2478+1043863224+1043200914+1043273593+1043401830+1043077268+1042702787
2469+1042910591+1043616128+1044165222+1044208646+1044073061+1044198216
2461+1044479289+1044440195+1043933672+1043303897+1042908820+1042863822
2452+1043171921+1043725606+1044240328+1044487161+1044530913+1044587521
2444+1044809953+1045279348+1045937460+1046458348+1046438801+1045850679
2435+1045166394+1044915954+1045188303+1045657305+1046034213+1046342902
2427+1046762905+1047334432+1047839314+1047937969+1047564341+1047186515
2418+1047354700+1047936263+1048223437+1047901170+1047428429+1047374576
2410+1047848694+1048639176+1049482659+1050143526+1050505019+1050578091
2401+1050344377+1049762093+1048956983+1048217206+1047812748+1047908320
2393+1048512316+1049407947+1050266385+1050794882+1050660085+1049587808
2384+1047839052+1046213221+1045188697+1044406938+1043361162+1042217911
2376+1041504568+1041240549+1040774433+1039412424+1037129006+1034607872
2367+1032495328+1030893504+1029868390+1029734380+1030364286+1031108393
2359+1031768210+1032726615+1034053924+1035336826+1036260203+1036818349
2350+1037128481+1037247076+1037078039+1036486964+1035704682+1035419672
2342+1035976900+1036831927+1037245896+1037269772+1037632314+1038731157
2333+1040183162+1041329299+1041695514+1041072627+1039733248+1038455331
2325+1037869570+1037929458+1038299609+1038929450+1039823178+1040673876
2316+1041199684+1041451764+1041539989+1041423690+1041168067+1041152521
2308+1041847104+1043354143+1045149864+1046443983+1046961460+1047223576
2299+1047921701+1049185056+1050484422+1051053850+1050518007+1049354881
2291+1048545573+1048638783+1049481938+1050772514+1052208121+1053163180
2282+1053135433+1052561611+1052361612+1052725729+1053099619+1053154981
2274+1053034877+1052840388+1052481454+1051976178+1051582412+1051564833
2265+1051919963+1052425764+1052930843+1053371837+1053563767+1053268525
2257+1052438227+1051311440+1050410956+1050189246+1050455692+1050745555
2248+1051348239+1052881778+1054714627+1055285957+1054374649+1053608634
2240+1054180161+1055247846+1055330496+1054456249+1053948152+1054541194
2231+1055757255+1056869742+1057555928+1057917224+1058464612+1059559979
2223+1060661577+1060762068+1059477985+1057278790+1055137188+1054113254
2214+1054575828+1055901498+1057371345+1058904031+1060575057+1061958975
2206+1062160744+1060425895+1057104046+1053864060+1052285785+1052437768
2197+1053306964+1054161729+1054861690+1055091468+1054212892+1052360891
2189+1050898653+1050895832+1051832984+1052728352+1053651074+1055034926
2180+1056540325+1057614504+1058177438+1057970618+1056381717+1053840577
2172+1052418680+1053907877+1057705484+1061308472+1062739093+1062169862
2163+1061716865+1063566899+1067158407+1068926513+1067006096+1063979490
2155+1062801080+1063816946+1065756648+1066943060+1066307906+1064468039
2146+1062952210+1062292983+1062033753+1061699351+1060572040+1057980720
2138+1054931024+1053934968+1056272895+1060561085+1064417006+1066456872
2129+1066605050+1065518342+1063903400+1062121978+1060542981+1059850498
2121+1060237900+1060770529+1060596703+1060300412+1060842684+1061698367
2112+1061460914+1060041772+1058880548+1058944175+1059605829+1059721801
2104+1059169428+1058878843+1059485529+1060437308+1060774465+1060458954
2095+1060286440+1060656919+1061191713+1061431265+1061224445+1060669907
2087+1060223469+1060411398+1060953342+1060881319+1060042493+1059540431
2078+1060057318+1060760362+1060650622+1060069322+1059941478+1060402412
2070+1061172232+1062483142+1064524844+1066506527+1067208390+1066166156
2061+1063764273+1060788830+1058408135+1057867175+1059397763+1061366064
2053+1061125331+1057574557+1052935369+1051166214+1053968355+1059143583
2044+1063457683+1065956712+1067653385+1068722645+1067642431+1063989526
2036+1060467351+1060088803+1062542374+1065476099+1067709009+1068905457
2027+1068447803+1067000258+1066928170+1069127299+1071262408+1070867199
2019+1068679156+1067287235+1067845315+1069644710+1071417342+1071864305
2010+1070714364+1069560946+1069572950+1069210539+1066727778+1063372213
2002+1061813814+1063060638+1065920635+1068180439+1068269189+1066578419
1993+1064945110+1064789781+1066188720+1068219271+1069287350+1067863682
1985+1064080243+1060026095+1057871439+1058355922+1061158063+1065374099
1976+1069170526+1070747948+1070239654+1069060261+1067701269+1065920438
1968+1064550229+1065033138+1067193369+1069294500+1070288916+1070887337
1959+1072199363+1073741823+1073601122+1070693111+1066214630+1062725253
1951+1062168812+1064480568+1067651548+1069574917+1069923816+1069689577
1942+1069469113+1069242090+1069277708+1069959171+1070941059+1071255258
1934+1070343229+1068708936+1067494580+1067476607+1068305266+1068791060
1925+1068276076+1067488939+1067387726+1067537610+1066949488+1065978686
1917+1065903646+1066779729+1067420130+1067354470+1067429838+1068401428
1908+1069665766+1070176946+1069892134+1069319491+1068547376+1067614291
1900+1067010557+1067056801+1067415932+1067600319+1067467424+1067105276
1891+1066557428+1065831754+1065294861+1065786953+1067664405+1069912599
1883+1070934303+1070405740+1069518047+1069294237+1069581805+1069753466
1874+1069662224+1069552090+1069346779+1068459544+1066692750+1065147207
1866+1065029530+1066152250+1067398484+1067875489+1067561356+1067043944
1857+1066866248+1067265655+1068202938+1069345205+1070140541+1070138245
1849+1069334775+1068176175+1067202880+1066788650+1067012328+1067583264
1840+1068134523+1068489718+1068559708+1068174929+1067235219+1065930277
1832+1064661019+1063965911+1064291589+1065423820+1066623679+1067304159
1823+1067307635+1066716299+1065722801+1064771808+1064306217+1064184998
1815+1063819963+1062850079+1061324674+1059486381+1057605780+1055813863
1806+1053924472+1051528165+1048382570+1044668989+1040775745+1036921333
1798+1033111853+1029197684+1024777517+1019424134+1013535825+1008541180
1789+1005208245+1003007345+1001161116+999324529+997694500+996638424+996304022
1779+996607529+997372954+998407842+999450536+1000115339+1000192544+1000098284
1769+1000345445+1000858068+1001229334+1001143143+1000511859+999479332+998379571
1759+997494042+996985617+996992898+997445830+998099744+998822467+999602257
1749+1000545903+1001773049+1003030107+1003879755+1004239739+1004276866
1741+1003969095+1003255753+1002326603+1001162756+999114101+995471822+990770778
1731+985597584+978899246+969174761+954979470+934397809+906925553+876752433
1721+850284367+831208696+821163058+821380243+830723885+846848252+869082965
1711+896319474+924991655+950997279+972558269+989564098+1001731593+1009600928
1701+1015040700+1019496550+1023054737+1026211549+1029856714+1033494205
1693+1036223995+1038076390+1039384022+1040319140+1040907000+1041037337
1684+1040854656+1040939994+1041214311+1041349699+1041584003+1042227357
1676+1043183859+1043974472+1044133671+1043637250+1043139255+1043524820
1667+1044527370+1045092863+1044638160+1043146667+1041175414+1039254669
1659+1037264065+1035037845+1032537440+1028915167+1022843653+1016525830
1650+1011811077+1005989282+995171267+978178426+959227057+941144621+924253583
1640+910378197+901799193+898601974+898174362+896558501+891957227+884508551
1630+873782763+859599278+843634044+828089600+812562211+795368322+778115070
1621+764102132+753182641+743566978+736485239+734949600+738224614+744014399
1611+751243727+759373210+767832898+775994523+783226343+789092742+793267257
1601+795295315+794863898+792089569+787323587+781037381+773806086+766057576
1591+758156559+750771116+744607048+739953823+736857817+735399580+735698299
1581+737788475+741492938+746813327+754338093+763601906+772331057+779881995
1571+787604070+796503308+805617893+813615990+820480480+826328710+831004368
1561+835084689+841053416+851034705+860894774+868338596+874757828+880795561
1551+886560683+892212522+897540586+902196828+906379411+910479016+914527261
1541+919169007+925780169+932759056+937783613+941344948+944888572+949177287
1531+953438321+956764893+959312264+961573708+963525414+964756103+965409361
1521+966375374+968113044+970161437+972334131+974694624+976832815+978196792
1511+978510729+977661933+976029148+975790974+979093079+983087798+985318216
1502+985917424+985456096+984498938+983580546+982857692+981941202+980139774
1492+976521371+970301088+962427358+955738401+952023836+951337387+953147802
1482+956594215+960378179+963151852+964073983+962768254+958833751+951793336
1472+942389019+932452597+922220933+910499810+896832491+883436471+873986893
1462+869097658+866637331+864952465+864370443+866359144+870050160+873724580
1452+876895561+879362382+881072568+882526147+884363718+886586658+888620554
1442+889739535+889290211+886696464+881646260+875663626+872292778+872987230
1432+877002808+883717741+891731647+898278527+900912418+898218507+890266064
1422+879264711+868126266+859973693+858304045+862806402+869392769+875233521
1412+879574581+882674916+885048265+887102758+889429600+892961680+898097354
1402+904196812+910658484+917335831+923760573+929198967+933547636+937178764
1392+940138792+942173475+943236962+943694682+944151484+944887851+945649733
1383+946134872+946317094+946346940+946249860+945802897+944844689+943643912
1373+942601808+941455540+939269924+935228763+929096967+920454926+907653851
1363+888876243+865010254+839492261+815225489+794511458+780263822+774932741
1353+778541698+788771066+802476692+816567426+828538662+837084410+842164722
1343+844642629+846065444+848490088+853610413+861522844+871017223+880868109
1333+890229396+898434248+905047182+910087088+913918214+916836983+918963433
1323+920471784+921668298+922904037+924564305+926956873+930062522+933548816
1313+937043114+940289332+943074484+945145769+946370751+946904364+946869336
1303+945829266+942894492+937403819+929361839+919367234+908365226+897392014
1293+887334701+878721259+871469630+864795169+857642981+849451313+840524329
1283+831700591+823672713+816531414+809970301+803967464+799114044+796123252
1273+795014110+794700633+793264633+788845253+780805503+770466592+760664180
1264+754230386+752664902+755965957+763155927+772774608+783227982+793019702
1254+800918030+806149145+808600748+808987626+808756798+809511203+812356375
1244+817710217+825433735+834976982+845638750+856842004+868083367+878716208
1234+887956211+895056120+899446572+900751579+898569964+892260144+881251248
1224+865748129+847032245+826997973+807421748+789622026+774694173+763804528
1214+757863875+756695502+758605489+760892056+760873821+756708949+747843033
1204+735281575+721548071+710001889+703666815+704165925+711276329+723289611
1194+737939999+753263782+767925714+781153942+792569854+802022646+809514352
1184+815087740+818445600+818711914+815065503+807977598+799803576+793988077
1174+793381654+798799058+808797139+820767981+832416426+842596795+851169961
1164+858349436+864295468+869144100+873073683+876163064+878225428+878774588
1154+876836919+870523360+857568924+838034353+816953319+802558358+800377464
1145+809396347+824169921+839553920+853002153+863853425+872117640+878122773
1135+882554222+886234677+889713363+893071879+896021084+898071050+898806564
1125+898352321+897573252+897543800+898764387+900985818+903673562+906436872
1115+909074436+911439586+913375811+914817977+915966541+917225238+918811057
1105+920489757+921729957+921957046+920558500+916763910+909703293+898936311
1095+885440062+872124265+862636446+858770554+858687971+857768529+851637455
1085+839253562+823971235+811661792+806872392+809738095+815978057+819558283
1075+815503217+801400611+778131796+750080863+723954348+706140458+700154807
1065+705720455+719674882+737748069+756156182+772529219+785956527+796098326
1055+802048621+802090602+795000598+782347701+769551873+763384066+767278294
1045+779249203+794472626+809062338+821402610+831389803+839436965+845922841
1035+851128440+855438079+859259301+862708403+865698998+868327642+870845168
1026+873343803+875811608+878366326+881050003+883492555+885157743+885835861
1016+885530452+883922135+880357323+874575869+867350543+860269001+854832378
1006+851722925+850767800+851410563+853276536+856489563+861401494+867874382
996+874974029+881550819+886995182+891315776+894623522+896591758+896121772
986+891197706+879345196+859409841+834053080+810291124+796152441+795480882
976+805431604+819050449+830738906+839749786+848795825+859970413+872682542
966+884987393+895539618+903950897+910190727+914136185+915255363+912488511
956+905085030+894336545+884333414+880009015+883743192+893927693+906774750
946+919068516+929263315+936956201+942231723+945475711+947250770+948084216
936+948406943+948562074+948673979+948635868+948384903+948004322+947435616
926+946437198+945058134+943845025+943355164+943692321+944648430+946046910
916+947793960+949824117+952141316+954725224+957300015+959428761+960932913
907+961993252+962809448+963365953+963452670+962602037+959811047+953429204
897+941965343+925944287+908927307+895492193+887664773+884125085+883050053
887+884425049+888978046+895955161+903004103+908000060+910272262+910091745
877+907741682+903496325+897934482+891690060+885140163+878529657+871874349
867+864383299+854350125+840086484+821341279+800277563+781109338+768210264
857+764065661+768686876+780413116+796910782+815778124+834924572+852857910
847+868595596+880867256+887104201+883485077+866378363+834466721+791307221
837+746935595+714819888+704009154+713502024+734821953+759180952+781508285
827+799868777+814000310+824746761+833416155+840846202+846932279+850277873
817+847819251+836845842+820041716+807124473+807645492+822060985+842391811
807+860627673+873851440+882656878+888161785+891079570+892035679+892062573
798+892762206+895642405+901050495+907830826+914163342+918884392+922077871
788+924500416+926715091+928842000+930866648+932968041+935439060+938274261
778+941023074+943177796+944581195+945442979+946134216+946934472+947844533
768+948692017+949473907+950523029+952230853+954556974+956950001+958915088
758+960450923+961651307+962141300+961107723+957430023+949809424+938032217
748+924909399+915830038+914881604+921402114+930962088+939280484+944681817
738+947705800+949535500+950777536+951227975+950571503+948971516+946748970
728+943875789+940045188+934728997+926789016+914271573+895182258+869445901
718+840461227+813399921+791151958+772893007+757312027+746262921+743787638
708+751874551+768496979+789501463+810920506+829815135+844743382+855984615
698+864826785+872432888+879186785+884785099+888924061+891903636+894391317
688+896721898+898828735+900763255+902745266+904750956+906637592+908618422
679+911023256+913704638+916246368+918422605+919901503+920089432+918911613
669+917656786+917388372+915397244+907693995+892770209+873472696+857323272
659+851364253+856585397+868478903+881668496+893194607+902328608+909418349
649+915342145+920862204+926030020+930492889+934231330+937605195+940715960
639+943145982+944420357+944026657+940761745+933557278+924166539+917576760
629+917802078+923913671+931497669+937111201+940088152+941119695+941023009
619+940681719+940821108+941573676+942515486+942833883+941254624+936368669
609+927538699+915294457+900802546+885715363+872837608+865829532+866863239
599+874293746+883429518+889951472+892146403+890362554+885631665+879110629
589+871768807+863669891+853792701+840936592+824751550+806277711+788347586
579+774937792+768597011+768492781+771707907+776334369+782363378+789333278
569+794364263+793747410+786882987+777976402+773172506+775938833+785211239
560+797538065+809827829+820277398+828675230+836186615+843597705+849880762
550+853334522+853517925+850977375+846036911+839641358+834664620+834196798
540+838278103+843644605+846793218+845974464+840712258+831779895+821991848
530+815280785+814501388+820392911+831317058+843657789+854111688+861368500
520+865708706+868531445+871802720+876218820+879868642+879788289+875289080
510+869625631+867625319+871462611+879371696+888030792+894479935+896754695
500+894996363+889967214+879331225+858981704+830531496+805285000+796547518
490+807229949+828340566+849188147+864570047+874354027+880755024+886111687
480+891561429+896846987+901004775+903481763+904746758+905830449+907619873
470+910569931+914445858+917983054+919398392+917677776+913077289+907038441
460+902357010+902406075+908230626+916222688+922086727+925120418+926147828
450+925243932+922895903+921296179+922384199+924595725+923512166+917091228
441+908825504+904043648+905349377+911877759+920398056+927629154+932119769
431+934109520+934817550+935699209+937573447+940208060+942445299+942730702
421+940142399+936311601+935187701+936123475+934310437+928300450+921368661
411+917125928+914206568+907989827+897340391+886466489+879567234+875877858
401+871447000+865878466+867013911+881154627+900134989+913351803+918671405
391+917926380+911413807+898566159+881992337+868483889+863722498+866044420
381+869883155+872302027+872746038+869652918+858969372+840593203
##END=
