##TITLE=LSH-R373E,X18664
##JCAMP-DX=4.24
##DATA TYPE=INFRARED SPECTRUM
##DATE=18/5/2021
##SAMPLING PROCEDURE=Diamant-ATR
##ORIGIN=Angelika Moesle
##XUNITS=1/CM
##YUNITS=TRANSMITTANCE
##RESOLUTION=4
##FIRSTX=3997.453
##LASTX=373.96442
##DELTAX=-1.4165319
##MAXY=0.92318839
##MINY=0.53154635
##XFACTOR=1
##YFACTOR=8.5978619e-010
##NPOINTS=2559
##FIRSTY=0.88273329
##XYDATA=(X++(Y..Y))
3997+1026689307+1026495960+1027012292+1027831298+1028303539+1028320593
3989+1028259033+1028318860+1028234214+1027651746+1026605424+1025538097
3980+1024925265+1024968107+1025562084+1026406046+1027157875+1027618609
3972+1027756496+1027560792+1027069832+1026540467+1026285698+1026296304
3963+1026310516+1026229544+1026151415+1026040079+1025732138+1025297678
3955+1025118057+1025528877+1026462615+1027457081+1028020000+1028081699
3946+1028043779+1028243227+1028500006+1028385620+1027971750+1027872823
3938+1028337093+1028924206+1029246081+1029500712+1029957425+1030318261
3929+1030121517+1029503832+1029033600+1029024865+1029214539+1029209270
3921+1029135300+1029427643+1030115624+1030624747+1030434381+1029701477
3912+1028974536+1028541393+1028276433+1028087869+1028215219+1028801292
3904+1029416482+1029619396+1029823697+1030581696+1031473076+1031644032
3895+1030926796+1029919573+1029445529+1029887961+1030738786+1031370614
3887+1031731312+1031825594+1031456231+1030825928+1030560136+1030796118
3878+1030900244+1030558611+1030182454+1030075208+1030077773+1030149871
3870+1030534001+1030993972+1031029258+1030809845+1030866760+1031311619
3861+1031785316+1031970067+1031710930+1031031823+1030387240+1030688249
3853+1032230660+1033377988+1033155455+1032306571+1031440494+1030681455
3844+1029965259+1029247607+1028657235+1028552277+1029267364+1030595145
3836+1031831348+1032629001+1033053686+1033058053+1032554546+1031696996
3827+1030702945+1029684007+1028940566+1029113255+1030505647+1032011801
3819+1032276830+1031970067+1032279811+1032930911+1033045991+1032759263
3810+1032680856+1033077048+1033799622+1034326145+1034240668+1033844198
3802+1033714630+1033929191+1034127668+1034178830+1034017511+1033480173
3793+1032795104+1032508237+1032811534+1033395458+1033904858+1034166421
3785+1033975500+1033255283+1032513644+1032497076+1033249529+1033945759
3776+1034028395+1033720384+1033289806+1032829003+1032572016+1032704149
3768+1032945331+1032989629+1032936804+1032934169+1033069422+1033611474
3759+1034685734+1035706267+1035975040+1035654550+1035349382+1035401861
3751+1035614758+1035273610+1034030890+1032439813+1031537895+1032113431
3742+1033358507+1033948740+1033809189+1033324330+1032649452+1031952875
3734+1031823584+1032653819+1033895915+1034802200+1035259467+1035601239
3725+1036013515+1036334628+1036433416+1036473625+1036741774+1037355785
3717+1038020888+1038131046+1037318557+1035911122+1034801368+1034618419
3708+1035238670+1036349880+1037676829+1038908387+1039738830+1039855712
3700+1039170574+1038120578+1037362093+1037219908+1037516619+1037875791
3691+1038080647+1038143871+1038213543+1038437185+1038812649+1039238373
3683+1039624791+1039898347+1040050931+1040236930+1040685116+1041281103
3674+1041381624+1040827648+1040219044+1040035888+1040286914+1040690315
3666+1041117704+1041469389+1041510707+1041169004+1040787648+1040784805
3657+1041051637+1040836245+1039639557+1038069485+1037309684+1038354203
3649+1040889139+1042733461+1042879806+1042269122+1041524433+1040743765
3640+1040244695+1040462306+1041162210+1041458228+1040810456+1039680597
3632+1039143953+1040086911+1042351203+1044030808+1043853752+1042930621
3623+1042348083+1042272242+1042630513+1043388443+1044134102+1044390258
3615+1044365093+1044500554+1044752620+1044752828+1044418681+1044010565
3606+1043809038+1043863180+1043952263+1043809523+1043503800+1043477942
3598+1043970149+1044647176+1044933558+1044513102+1043620959+1042868228
3589+1042785732+1043467612+1044418820+1045028810+1045174947+1045049330
3581+1044920455+1045062364+1045529683+1046057246+1046324632+1046267301
3572+1046087957+1046044698+1046306608+1046918193+1047604094+1047818169
3564+1047463850+1047026478+1046961452+1047342392+1047886316+1048230514
3555+1048259561+1048166319+1048102610+1047908431+1047495254+1047210397
3547+1047382115+1047748359+1047782883+1047462671+1047207555+1047291161
3538+1047599657+1047851653+1047955433+1048051101+1048252213+1048624072
3530+1049259505+1050035528+1050499520+1050370160+1049869842+1049341447
3521+1048927577+1048742202+1048945393+1049481137+1049975840+1050112756
3513+1050032478+1050154282+1050593040+1050995124+1051058002+1050871379
3504+1050616125+1050319206+1050050017+1050045650+1050430889+1050951519
3496+1051170933+1051029926+1051012872+1051509932+1052256423+1052683534
3488+1052647346+1052525196+1052654209+1052954179+1053163124+1053266626
3479+1053511343+1053994192+1054454787+1054555585+1054276067+1053939841
3471+1053827396+1053867119+1053801676+1053579559+1053382815+1053290197
3462+1053146971+1052815667+1052393270+1052116456+1052138224+1052448314
3454+1052937055+1053412209+1053589819+1053285691+1052654417+1052074029
3445+1051789866+1051842483+1052170737+1052518263+1052484849+1051975310
3437+1051368301+1051071174+1051128922+1051374263+1051651978+1051719570
3428+1051213082+1050010363+1048484798+1047153066+1046180159+1045397827
3420+1044600937+1043568272+1041956051+1039459381+1035998263+1031560981
3411+1025950303+1018833333+1009944764+999036759+985700993+969618919+951184233
3401+931620729+912357263+894666018+879902089+869400328+863799148+862729464
3391+865123185+869660712+875126153+880659533+885878594+890714426+895005988
3381+898448665+901165233+903954662+907543962+911839406+916291871+920714664
3371+925333995+930241023+935187914+939910538+944406262+948813735+953150636
3361+957329891+961418469+965605558+969797431+973527807+976517585+979066733
3352+981590023+984049049+986172888+987961680+989617368+991175724+992573246
3342+993951495+995559488+997371920+999053327+1000329115+1001216543+1001893987
3332+1002566300+1003434942+1004512668+1005496667+1006110400+1006464790
3323+1006801570+1007069927+1007098420+1006974467+1006889890+1006689888
3315+1005881905+1004201330+1002010314+999914066+998012136+995781189+992746281
3305+989024917+985095093+981196396+977069619+972294793+966814239+961012710
3295+955382761+950355315+946337586+943558626+941912019+941228891+941595967
3285+943154253+945752761+949071000+952933649+957255713+961804193+966246260
3275+970378721+974166498+977633023+980859546+984072064+987562368+991362832
3265+995023259+997911060+999716005+1000474420+1000270743+999228927+997575596
3255+995442675+992920425+990432768+988539018+987286178+986318124+985565185
3245+985231247+985230554+985288371+985507160+986214760+987298102+988197038
3235+988527996+988319258+987736651+986992032+986357362+985847407+985103689
3225+983991439+983021722+982823245+983510879+984850722+986695044+988925921
3216+991222657+993232596+994889601+996277625+997209422+997280480+996391803
3206+994914280+993255819+991523735+989691615+987916272+986547174+985782311
3196+985411145+985030066+984410440+983447654+981772833+978525582+972632960
3186+963705777+953017670+943321396+937136431+935054810+935668128+936918889
3176+937513767+937266970+936447826+935155470+933314615+930973372+928388037
3166+925797987+923198994+920444089+917529876+914560965+911429626+907850378
3156+903805890+899708646+896093003+893316746+891476099+890352550+889500615
3146+888606254+887715497+886970254+886268477+885394012+884367864+883422133
3136+882694013+882164648+881819895+881668835+881717987+882095392+882992873
3126+884288418+885487809+886272568+886854689+887629604+888759739+890212513
3116+891881927+893564236+895085503+896487531+897930808+899471763+901040171
3106+902561507+904031751+905462410+906773207+907882683+908979474+910427811
3097+912221178+913833469+914835145+915382743+915896718+916542342+917227896
3087+917916778+918726771+919747651+920893384+921967713+922850775+923609952
3077+924411973+925334133+926298790+927183585+927890699+928323218+928470533
3067+928510742+928597467+928514971+927809034+926380871+924791943+923900424
3057+924254674+925797779+928028795+930400263+932635508+934737163+936770464
3047+938698877+940409124+941814549+942917578+943765908+944304978+944374511
3037+943995650+943575264+943655820+944516004+946049195+947915492+949741858
3027+951249676+952283658+952857876+953176355+953425440+953532062+953357224
3017+953069525+953018988+953286790+953690885+954183162+954884869+955763008
3007+956614596+957387847+958227927+959232584+960407087+961797677+963420297
2997+965156541+966865886+968456062+969840204+971035436+972201135+973361150
2987+974285875+974807684+974976283+974814478+974239081+973286487+972169038
2978+971053045+969875491+968415507+966564531+964481454+962373975+960154051
2968+957351174+953269320+947250457+939021792+928927870+917879412+907071928
2958+897364284+888498523+879305547+869444280+860833773+856673235+858868479
2948+866562857+876906488+886788623+893985108+897490525+897432569+894776106
2938+890873249+886974136+883834062+881567621+879834289+878259434+876734285
2928+875331702+874068532+872972088+872350451+872703246+874241428+876663088
2918+879438721+882162637+884673518+887061832+889597531+892536979+895945687
2908+899651453+903314307+906649462+909643676+912450228+915098511+917471435
2898+919526088+921400080+923332028+925545782+928125572+930944810+933716838
2888+936135240+938059007+939624989+941083863+942488387+943611382+944075929
2878+943381570+940935300+936347651+929823341+922285291+915169915+909941427
2868+907405104+907195465+907932805+908063275+906787765+904402224+901833872
2859+899806187+898420866+897562623+897547995+899038621+902308194+906945271
2849+912328077+918031996+923723160+929003712+933543665+937269188+940356991
2839+943023992+945360520+947439992+949456170+951521222+953465163+955098320
2829+956538061+958039640+959643473+961158015+962371687+963211213+963792849
2819+964360690+965076262+965844175+966407024+966653405+966765920+966980827
2809+967329670+967780005+968451279+969422660+970467803+971251730+971691319
2799+971944702+972178882+972447724+972680309+972785059+972839202+973058754
2789+973485172+973861052+973942232+973828331+973884900+974365599+975137949
2779+975755357+975808529+975273479+974554579+974151385+974214055+974448443
2769+974464457+974122061+973528847+972860208+972273580+971896105+971803765
2759+971995933+972354343+972685162+972904714+973129258+973479765+973923237
2749+974443451+975182525+976177754+977130140+977707756+977939786+978073791
2740+978225544+978410780+978710333+979168363+979679981+980093297+980300301
2730+980253438+980068548+980004630+980201582+980565885+981006653+981594529
2720+982389340+983290356+984142429+984857447+985359984+985582794+985607058
2710+985645117+985806714+986056699+986436878+987086452+987962443+988776526
2700+989287728+989515946+989654873+989880526+990227913+990582926+990803172
2690+990881509+990975236+991213021+991509385+991664188+991631189+991556318
2680+991569212+991681034+991849909+992022251+992165338+992315912+992531997
2670+992786281+993010686+993221850+993509826+993935828+994471987+994980347
2660+995248496+995161909+994856533+994578262+994418122+994350322+994438850
2650+994750951+995138685+995362189+995344581+995143815+994860276+994689252
2640+994806272+995105063+995275048+995151441+994822217+994466649+994220892
2630+994084877+993885013+993465805+992962090+992716749+992901569+993386774
2621+993995586+994668870+995336123+995877828+996317972+996854894+997633413
2611+998592802+999507059+1000102491+1000273793+1000281003+1000573624+1001301051
2601+1002143557+1002765263+1003225165+1003697337+1004039872+1004049508
2592+1003921534+1004042506+1004507607+1005143803+1005777363+1006334944
2584+1006867360+1007435131+1007908759+1008133788+1008232299+1008367205
2575+1008398887+1008147722+1007729208+1007367886+1007161852+1007140361
2567+1007330381+1007763108+1008435074+1009136366+1009462956+1009245483
2558+1008773935+1008356321+1007864738+1006994224+1005858543+1005051323
2550+1005064148+1005798923+1006717964+1007358111+1007651356+1007845188
2541+1008178988+1008649289+1009103159+1009421569+1009492211+1009192172
2533+1008585995+1008005537+1007789798+1008010598+1008457397+1008804438
2524+1008850955+1008661906+1008452752+1008361243+1008375455+1008411920
2516+1008379199+1008226684+1008076803+1008291641+1009140595+1010297074
2507+1010989630+1010906717+1010660475+1011015973+1011923368+1012677346
2499+1012826395+1012540083+1012230547+1012186941+1012480325+1012933363
2490+1013250733+1013332744+1013333784+1013428759+1013724708+1014284091
2482+1014993008+1015573188+1015910593+1016148239+1016333614+1016265121
2473+1015816034+1015182820+1014707112+1014578514+1014716401+1014824618
2465+1014605412+1014089565+1013705089+1013807967+1014212825+1014439379
2456+1014363329+1014344889+1014731653+1015458386+1016145743+1016461519
2448+1016398086+1016292851+1016574102+1017389918+1018450174+1019268625
2439+1019523394+1019211986+1018693436+1018588062+1019226267+1020136851
2431+1020525556+1020250128+1019838199+1019647139+1019549391+1019364571
2422+1019146128+1019014896+1018966784+1018931151+1018929834+1019025364
2414+1019147930+1019187029+1019234656+1019420031+1019571090+1019437986
2405+1019216770+1019378228+1019965687+1020485001+1020534429+1020176851
2397+1019671819+1019212541+1018961446+1019006230+1019210739+1019311052
2388+1019168242+1018830907+1018424247+1018065490+1017843928+1017834638
2380+1018076790+1018502376+1018952156+1019282074+1019349666+1019013578
2371+1018446362+1018297174+1019108623+1020615401+1021983737+1022711718
2363+1022965517+1023014253+1022812448+1022395805+1022129943+1022156841
2354+1022161417+1021950530+1021666298+1021417005+1021257350+1021443626
2346+1022307346+1023669512+1024639784+1024550910+1023744106+1023099037
2337+1023093907+1023445246+1023533358+1023082607+1022449739+1022196426
2329+1022340830+1022373205+1022104570+1021982628+1022414800+1023176958
2320+1023738976+1023935304+1024005184+1024133296+1024193817+1024008858
2312+1023744175+1023782928+1024181754+1024570113+1024651639+1024546473
2303+1024551395+1024739682+1024933098+1024984399+1024900030+1024699681
2295+1024405119+1024148686+1024037974+1023971908+1023813777+1023601643
2286+1023415298+1023202401+1022824718+1022180759+1021401338+1020991628
2278+1021520508+1023059175+1025043394+1026591143+1026984493+1026240012
2269+1025284922+1025144817+1025869055+1026572010+1026564037+1026106562
2261+1025968051+1026567989+1027746167+1029027153+1029772327+1029364558
2252+1027754555+1025837581+1024924987+1025557785+1026921685+1027774520
2244+1027789356+1027361205+1026431835+1024693788+1022825689+1022215698
2235+1023306457+1025149392+1026669342+1027688557+1028573352+1029326706
2227+1029461197+1028832211+1028168702+1028327318+1029114087+1029297243
2218+1028053969+1026246321+1025691236+1027044182+1029032075+1030050043
2210+1029921515+1029689623+1030191050+1031238966+1032126880+1032742694
2201+1033781806+1035619957+1037370482+1037627400+1036242703+1034859948
2193+1035117906+1036659000+1037805912+1037948513+1038055343+1038954626
2184+1040277763+1041061065+1040682759+1039233867+1037211173+1035062307
2176+1033319478+1032606956+1032787686+1032790459+1032064141+1031395502
2167+1031650618+1032483072+1032985816+1033246340+1034618627+1038160440
2159+1042910378+1046422450+1047193482+1045604623+1043067538+1041162973
2150+1040786816+1041529286+1042212345+1042082846+1041221691+1040035611
2142+1038921558+1038411188+1039029636+1040722205+1042695193+1044080375
2133+1044662566+1044742914+1044407589+1043371736+1041702460+1040247190
2125+1039754151+1039870964+1039689818+1039049116+1038592334+1038680169
2116+1038875319+1038589076+1037918149+1037589895+1038052085+1038945961
2108+1039669921+1040021122+1039991659+1039479694+1038659649+1038266784
2099+1039047730+1040891704+1042669543+1043157036+1042157648+1040521232
2091+1039181666+1038468797+1038169244+1037979571+1037953158+1038485019
2082+1039746733+1041290046+1042375744+1042610201+1042230577+1041912930
2074+1042308915+1043626505+1045583479+1047721184+1049632889+1050775295
2065+1050367803+1048242022+1045812876+1045057511+1046217317+1047554665
2057+1047697613+1047024537+1046342934+1045693637+1045150337+1045427567
2048+1046830774+1048472112+1049203351+1048680711+1047498928+1047066132
2040+1048686257+1051980440+1055067065+1056612110+1056710552+1055940767
2031+1054926196+1054609312+1055785895+1058386205+1061418618+1063423010
2023+1063534138+1062300085+1060716564+1058942746+1057123035+1056412038
2014+1057575381+1059621645+1061113727+1061881085+1062607194+1063326233
2006+1063086438+1061235323+1058495253+1056178760+1054726402+1053734154
1997+1053063088+1052805477+1052424882+1051116166+1048984770+1047004294
1989+1045869722+1045514362+1045458902+1045453079+1046054126+1048154811
1980+1051678183+1055260135+1057394304+1057692817+1057254198+1057986824
1972+1060942910+1064988368+1067734399+1067906117+1066282457+1064283333
1963+1062496274+1060885578+1059513984+1058371162+1056990486+1055149977
1955+1053586769+1053126312+1053442088+1053507946+1052910365+1052001654
1946+1051273118+1051262996+1052454138+1054424630+1055744231+1055593103
1938+1054657008+1054031627+1053949130+1053873428+1053492764+1053018443
1929+1052627797+1052253788+1051953542+1051935102+1052123943+1052163319
1921+1051953958+1051725948+1051620297+1051687819+1052111534+1052943780
1912+1053886738+1054673299+1055378403+1056057510+1056454743+1056415366
1904+1056126974+1055728910+1055090497+1054173813+1053354808+1053209641
1895+1053989616+1055305820+1056432489+1056905909+1056759980+1056366007
1887+1056082121+1055996643+1055943956+1055752550+1055601630+1055990473
1878+1057099465+1058380243+1059119178+1059219838+1059097133+1059068363
1870+1059217828+1059572147+1060018600+1060285917+1060218603+1059845704
1861+1059282161+1058782189+1058777337+1059522511+1060651953+1061409051
1853+1061420004+1060975354+1060472540+1059965289+1059400915+1058880700
1844+1058445894+1057914934+1057173781+1056284896+1055370708+1054729937
1836+1054762936+1055513171+1056652596+1057993479+1059509408+1060843637
1827+1061506037+1061490993+1061133761+1060664085+1060094303+1059374433
1819+1058493104+1057476038+1056370305+1055275733+1054413954+1054100952
1810+1054488548+1055340968+1056259177+1057004212+1057544046+1058040898
1802+1058782675+1059849378+1060909842+1061671931+1062278455+1063076178
1793+1064235083+1065474059+1066178331+1066123634+1065623731+1065070449
1785+1064725834+1064729786+1065126741+1065825328+1066599896+1067253492
1776+1067750968+1068175306+1068595831+1068858087+1068644289+1067949306
1768+1067065898+1066247101+1065622414+1065211802+1064912388+1064617479
1759+1064458171+1064653875+1065106914+1065425878+1065440575+1065387749
1751+1065544839+1065790389+1065720301+1065231283+1064544758+1063897332
1742+1063364569+1062751667+1061746733+1060391291+1059099351+1058302807
1734+1058266065+1058636884+1058755777+1058560142+1058349810+1058339064
1725+1058599310+1059140946+1059835444+1060464013+1060939236+1061186934
1717+1060814243+1059581298+1058042700+1056898145+1056472698+1056717900
1708+1057426886+1058510574+1059843624+1061038232+1061964690+1062981064
1700+1064099761+1064683477+1064865801+1065386779+1066196148+1066827698
1691+1067311447+1067855995+1068390283+1068777047+1069271749+1070424069
1683+1071995319+1073040532+1073455511+1073610591+1073702932+1073741823
1674+1073702100+1073555616+1073353257+1073319634+1073488440+1073495650
1666+1073240257+1072915123+1072507839+1071789632+1070641680+1069087137
1657+1067218136+1064821988+1059980679+1049310736+1035840549+1024101060
1649+1009692421+984473872+945800803+902990074+862067341+822116475+785003010
1639+755514251+737288857+732979340+742027149+757082451+773186570+790801488
1629+810733177+831249830+849892353+867046399+884253339+900054647+912066653
1619+921045968+929027421+935783623+938887094+937467180+932004304+922779786
1609+910657068+897998053+888057824+883446674+885159833+892389594+902896485
1599+914266472+925138498+935072211+943821991+951294390+957717418+963213015
1589+967234002+968355056+964729291+955837186+944634133+937102392+937945106
1579+947354445+963326985+983575490+1002288515+1013705019+1018777596+1019971857
1570+1017206554+1009165760+994163352+969754588+936503494+899061844+859765475
1560+820072913+797641228+805013383+826130043+850505671+874464447+896053973
1550+914815387+929987433+941133084+949625115+957107704+964068624+970895330
1540+977447094+981703438+983658402+985314714+988228027+992365479+995991798
1530+998153767+999402517+1000441282+1001559910+1002977744+1005158985+1008245055
1520+1011477123+1014302323+1016931195+1019298989+1020921609+1021626852
1511+1021517596+1020280492+1015948930+1003884723+983710327+963143344+943981716
1502+923931828+902733710+883155440+870375245+868385687+875272845+886799299
1492+901239757+916940059+928066230+928228173+916608824+894976386+865691095
1482+835149498+814791253+814001849+832801184+862084742+888320981+899197791
1472+889985127+866739150+836875551+801898127+761396751+720328297+688903361
1462+671158042+663523007+663168340+670823757+684359387+696296799+704527197
1452+711080000+717671487+725856893+736725106+749258851+761339558+772163819
1442+781739606+789972500+797499111+805663512+814084346+819988060+822773259
1432+824906458+828840025+835011056+841783342+847852396+853179534+857677338
1422+860897344+862657990+862357189+858201365+849101077+835903892+820458291
1412+805744622+795398634+791727739+794783098+803456413+816083262+829871720
1402+842389173+853622036+864604288+875276311+885053904+894148438+902570935
1392+909540659+914833828+918909997+921765700+922706648+921543583+919241024
1383+916951151+915119724+913405595+911365431+909291713+908244698+909182734
1373+911982562+915781015+920099405+924734056+928895634+930556313+925889357
1363+911125150+888970556+869420016+859980452+860802646+868154142+878563008
1353+890014174+901081905+910562370+917827765+922832195+925921454+927870664
1343+929781260+932589268+936217736+938692707+936925544+929472210+918288152
1333+907971003+902912153+904184821+909377884+915444789+920886521+925521519
1323+929547150+933230177+936842770+940476993+943960225+947072154+949803349
1313+952259255+954321396+955603214+955769178+954708645+952356241+948377473
1303+942086649+933008615+921926811+911388932+904790790+904454772+910203960
1293+919719713+930277419+940168219+948820807+956125231+961957679+966221580
1283+968972117+970253936+969872648+967496189+963122685+957577658+952584528
1273+950031775+950708595+953635910+956774459+958344462+957548542+954713775
1264+951210369+948775191+948217610+948552380+947358258+941767338+929338412
1254+909501005+885603096+864782800+853554513+852631243+857146933+862295698
1244+867556214+875167610+886050381+898260725+908606783+914742874+915906077
1234+912371128+904495604+892113057+874571554+851301382+822673431+790842944
1224+759872503+734545183+718545051+713335488+717979498+729433437+743427651
1214+756141364+765894624+773570838+781336967+790763082+801956637+814067292
1204+826183424+837726168+848342108+857776542+865965206+873137567+879681150
1194+885859252+891677557+896991385+901687389+905784979+909445060+912903613
1184+916305666+919472292+921765146+922272258+920292614+915747254+909163254
1174+901337575+893081596+885139936+878092915+872277660+867924676+865328803
1164+864730737+866104272+869230273+873890921+879858622+886787929+894179565
1154+901364057+907375641+910588991+908491911+898815117+882273973+864291078
1145+852659597+852325104+862217152+877029054+891539878+903164634+911337354
1135+915620528+914893586+908586401+898812136+890525723+888279594+892504882
1125+899600915+905719398+909895187+913626256+918374046+924057722+929563649
1115+933976322+937123398+939306094+940828748+941779123+942150775+942084361
1105+941961517+942344399+943766739+946335992+949552254+952752849+955663111
1095+958370112+960981791+963487611+965801609+967852172+969669665+971329512
1085+972849670+974276170+975759655+977392396+979070754+980602627+981902124
1075+983089314+984390682+985815657+986994805+987500392+987187736+986026543
1065+983909636+981101490+978747630+978347417+980453717+984107074+987702959
1055+990294950+991984677+993281054+994393373+995136328+995180350+994105605
1045+991150767+984897031+973086138+952392914+918287320+867134303+802170366
1035+737792225+692799562+675668740+679017205+690649726+706329992+728864487
1026+758416471+788035214+807955049+812697361+805099970+794331723+789170896
1016+792702864+803108749+817762590+835149013+854007898+872718983+889920794
1006+904994883+917790468+928231639+936224253+941659677+944419434+944525778
996+942156113+936906549+926643197+907347633+874690169+826895807+768140960
986+710236731+668772154+654010998+664334733+688949531+716389252+740207091
976+758798729+772878212+784012841+794134008+804809706+816409367+828162998
966+839155372+849079171+858055090+866161951+873338956+879486208+884572165
956+888641887+891154847+890093135+883133880+871117438+859408937+854037292
946+856725367+864652400+874082605+882791137+889798851+894610419+897166916
936+897981762+898008660+898230569+899254568+901321492+904543716+908797634
926+913557902+918265206+922720166+926736924+929278446+927727231+918373283
916+899625872+876255526+858628407+854890890+864075131+878152465+889615487
907+895766205+897721862+898086997+899412282+903096627+908974759+915913287
897+922741588+928808492+934012856+938463727+942181000+945129946+947369558
887+949026008+950240443+951291271+952608168+954429196+956579795+958792440
877+960968758+962935854+964411575+965463650+966510180+967562117+967664440
867+965315711+959944621+953424469+949473778+950624503+956068107+962928436
857+968966155+973581118+977083138+979848302+981926665+982899433+982114951
847+979538143+976575887+975437640+977078146+980178081+982631630+983593930
837+983797330+984472763+986328939+989256809+992736160+996382375+999948451
827+1002920551+1004108088+1001315678+992181213+977079463+960697767+947258707
817+932812286+906200929+861870389+810479795+772773670+762393367+777000413
807+805055810+836566431+866462266+892487412+913752359+930541131+943652423
798+953715981+961114271+966080365+968592355+967811271+961641557+948265375
788+929332866+910853050+899827331+900121269+911302137+929835334+950732373
778+969483735+983784366+993595789+999696247+1002407546+1001001983+992902470
768+972688767+932954610+869345769+788039651+707958852+651643897+630901730
758+640951146+667629124+698331694+726619537+750528607+770002752+785682602
748+798076380+806867687+811396617+812427549+813213902+817817980+827772560
738+840592201+851578336+856625678+853824950+844077652+831043797+819624936
728+813535292+814145906+820853166+831497598+842918123+852356092+858690453
718+862251260+863863967+864310212+864185011+863866878+863639215+863682890
708+863950900+864416348+865382253+867139502+869486568+872014711+874672283
698+877681333+881100093+884839066+888998356+893768745+899042641+904327561
688+908453782+908983494+903513408+893219067+883890631+881266196+885739112
679+893239449+900310872+906408835+911929251+916458320+919670076+922374928
669+925763601+929378482+931544610+932091445+931738165+931370188+932012692
659+934105197+937099966+940075185+942320551+943506979+943959532+944543387
649+945584925+946293080+945953318+945183464+945139027+945252304+941868483
639+930287679+910291518+889716354+879767876+885340147+901757268+920983021
629+938060325+951770861+962551031+971256860+978114624+980492401+971332979
619+942690192+895451816+845807171+815900799+815673829+837206716+865162701
609+888728820+904917516+915546558+923528565+930313329+935036855+934928084
599+924858772+898282216+854330051+804922428+769382709+759224107+770582863
589+792215301+816329366+839777633+860520701+877018725+889219086+898204225
579+905176930+910716272+914489976+915849161+914887832+912648982+910339976
569+908799922+908797773+911191841+916064970+922111424+927620679+931664265
560+933862837+933785817+931352164+927348231+922984156+919088994+915837376
550+912955260+909988429+906609184+903040196+900026848+897950843+896253213
540+894302131+892428485+891384868+891206217+891348957+891530034+891760609
530+891957838+892060647+892226126+892611503+893198963+893930619+894700057
520+895288279+895664991+896125447+896684484+896837206+896488086+896504377
510+897694271+899587744+900866096+900793235+899546010+897429450+894570488
500+891124552+887236878+883187676+879856126+878416593+878902076+878982424
490+874614466+862395803+841365660+813372309+782645753+754245326+731519911
480+714357476+699653721+684028360+667287699+653028317+644802148+641412088
470+637851558+631548740+624419361+619547827+618230860+619859581+623247630
460+627741136+633512162+640537692+647524400+653154558+657537836+661644162
450+666189037+671105841+676061882+681285310+687574817+695333667+703646700
441+710961524+717134842+723618251+730898204+736948887+739971802+741181661
431+743056763+746615213+751343869+756439600+761385659+766032858+770368649
421+774374869+778691457+784253953+790470531+796577713+802614739+807697021
411+810209289+810688601+811796414+814803107+818751788+822657279+825988690
401+828194679+830481155+836807543+847811217+857286206+861288129+862030945
391+863274635+866228711+869292181+870692268+870409491+868560456+862676915
381+849659975+829450570+805299487+783004024+770947304+771635147
##END=
