##TITLE=X9600
##JCAMP-DX=5.0
##DATA TYPE=LINK
##BLOCKS=1


$$ === CHEMSPECTRA SPECTRUM ORIG ===
##TITLE=X9600
##JCAMP-DX=5.00
##DATA TYPE=INFRARED SPECTRUM
##DATA CLASS=XYDATA
##ORIGIN=Default
##OWNER=
##XUNITS=1/CM
##YUNITS=TRANSMITTANCE
##XFACTOR=1
##YFACTOR=9.4769515e-010
##FIRSTX=3996.5625
##LASTX=399.65625
##MAXX=3996.5625
##MAXY=1.0175799170615634
##MINX=399.65625
##MINY=0.2632797373892967
##NPOINTS=1765
##XYDATA= (X++(Y..Y))
1765I75935742I76093732I76392229I76633491I76992932I76983875I76747330I77111614
1757I77726028I77822634I77749614I78045972I78083457I77088406I75690768I74901570
1749I75399190I76546571I77209540I77937919I78672651I78776930I78837371I79537762
1741I80452246I80503190I79746131I78637682I77682254I77715211I78635292I79719024
1733I80591431I80814580I80679797I80596777I79649085I78691771I79630720I80869990
1725I80122302I78744979I78244592I78911146I81619187I85913297I88745680I88298942
1717I85513918I82188569I80838228I82530211I84454149I84407858I84581824I85040953
1709I85455992I85898957I84789438I84145275I85326053I87545027I90020925I89622112
1701I87634023I86954512I85747382I84152822I85088689I90234389I97759694I96228155
1693I87497857I83003680I83399788I86238649I90169985I94110440I94911085I91546113
1685I88390201I86796459I85819836I85680525I86174812I88522782I92377198I92566510
1677I90798551I88719013I85096929I83343120I85144791I88385044I89906835I91228245
1669I91663725I89242734I87178982I84800508I81806046I80226895I80057710I80748667
1661I81856487I83056763I84669436I84759249I82561973I81525223I83488595I86894385
1653I88090824I87198542I86142169I85516748I86493749I87663520I87918494I91058933
1645I98538829A002404817I99942630I99426394I98296560I93022808I91020756
1638I94738691I99506836I98436060I91835992I85582850I83134185I84521697I87587355
1630I88981534I87338042I84910761I85055104I89195374I93702067I92548208I88575362
1622I86820610I87669369I88013653I86282675I84375279I84161376I87551191I93855089
1614I96407907I91439318I86190346I84906673I87034074I91422022I97115279I99334820
1606I97714851I97143896I93958299I88293029I85218126I84686795I85013719I86643060
1598I88448882I88793542I91644039I98222534I99823509I92922177I86446767I84261755
1590I84394965I84207351I83799230I84584340I88075667I93638104I93685023I87489240
1582I83865961I85403727I89265501I90106336I89200783I90089794I91217427I90870502
1574I89062164I86696520I85714236I86473434I87499555I87734465I87313073I86522491
1566I86465886I88272589I89678088I88054157I85423539I83343938I82018629I81837053
1558I82281653I82519393I83517275I86275254I88633665I87441440I84779564I83460293
1550I82976321I83040725I84192445I84504213I83496142I83603126I84081877I83033177
1542I81777240I81567739I82008566I82291087I82258948I83096197I85007682I85895058
1534I85075922I83909295I82888646I82338635I82580653I83189973I83671114I83552747
1526I82825878I82409580I83124940I84516477I84834471I83764261I82960346I82920219
1518I82718957I82307251I82189827I82162908I82345931I82861350I82685497I81625225
1510I81460127I82411781I82665749I82192532I82077875I82506374I83174941I83366957
1502I82822167I82573483I82830343I82421404I81405283I81002445I81725416I83003617
1494I83928352I83823004I82635748I81370880I80857222I80728729I80789045I81279117
1486I81503902I81351572I81646106I81906111I81449624I80780617I79999784I78974355
1478I78200881I77703261I77332876I76911484I76019328I75273716I75655736I76976014
1470I78339122I79176434I79405936I79384300I79745817I80529794I81116976I81349748
1462I81456542I81247922I80847222I80846404I81227796I81673654I81930137I81828814
1454I81609124I81447045I81379623I81648307I82111209I82247501I82204356I82151713
1446I81785165I81443775I81627175I82346183I83406141I83887031I83266704I82448197
1438I81960703I81902274I82522287I83196451I83187143I82897892I82922420I83313623
1430I83835709I84134205I84061374I83898729I84077978I84095211I83730675I83649290
1422I83342680I82670466I82633610I83012233I83178526I83336013I83363058I83249785
1414I83378970I83955334I84943089I85515365I84964913I83956214I83897282I84916862
1406I85722601I85624486I84919567I84179049I83978227I84080179I83812878I83704763
1398I84287856I85137873I86041035I86904511I87126214I86398086I85308820I84687864
1390I84885729I85541151I86050029I85711532I84736607I84191565I84094142I83750110
1382I83157897I82953239I83239408I83493564I83462494I83438154I83832061I84489307
1374I84672140I84194081I83870364I83988102I84091877I84427293I85124854I85196616
1366I84754721I85053217I85963801I86594065I86766396I86877341I86901430I86288902
1358I85597064I85869963I86507711I86619286I86418590I86081036I85967009I86248209
1350I86078520I85755244I85793043I85413161I84789312I84275717I83802878I83767343
1342I83994140I83520482I82277376I81901016I82802481I83491677I83539980I83287144
1334I82710152I81941961I81202386I80843637I80491177I79203416I77664706I77041298
1326I77314700I78087168I79142346I80535329I81871519I82100580I81521575I81681767
1318I82062466I81652710I81489939I81834663I82044416I82441845I82846067I82304484
1310I80756466I78475792I75128556I71094703I68346724I68327289I70388714I73102352
1302I75264911I76459903I77415582I78774162I80003180I80329916I79710281I78432269
1294I76437890I73288142I68273955I60174550I48954957I38012477I33149803I37376301
1286I47237376I56649449I62697430I66051018I67742561I68172066I67613565I66100327
1278I63628140I59933602I53965182I45057396I34899460I25910163I17391567I07928047
1270I01939627I05304851I15740088I25565754I30272136I30364276I26254509I14923342
1262H93488076H64851222H40542063H32086235H36754001H41438055H37401561H23247256
1254G99905789G73438222G60813571G74026725H01981113H25658184H38034906H40528415
1246H35300450H24129286H08565960G90268240G69784691G45365656G13391943F68436024
1238F12887569E70660132E69025446F04413314F49850500F88793156G22026642G52369505
1230G78499958G98758722H13915625H25765922H35243216H43441868H50689307H55991739
1222H58987332H59586024H56825026H50252129H42014859H35093905H29090390H21036583
1214H12606920H11117897H19281392H30864136H37271432H32823546H16840400G95172802
1206G78825436G75884309G84716684G98884888H14845266H32135733H49206070H63051061
1198H73036981H81610735H90562799H99465993I07483321I14211504I19732997I24275854
1190I28157754I31661786I34735431I37387874I39788424I42164320I44358263I46143455
1182I47849967I49596857I50964054I52074138I53200639I54066882I54793752I55543767
1174I56012958I56322021I56993229I58002494I58896349I59377868I59537430I59592966
1166I59602841I60037755I60926074I61515331I61777160I62073141I62764727I63877013
1158I64637217I65151252I66048565I66725748I66497379I65711200I64949424I64424382
1150I64220039I64474069I65078798I65669124I66356559I67248274I67684195I67615955
1142I67900992I68566917I69080952I69508634I70136633I71082124I72387684I73766013
1134I74630684I75176859I75772531I76176753I76435060I76577201I76523992I76549401
1126I76665379I76457198I76258138I76268075I75931779I75564602I75309880I74813833
1118I74269356I73739346I73304369I73462045I74215645I74697101I74652383I74904463
1110I75729197I76604308I77247843I77648417I77824710I77903328I78310380I79261845
1102I80375137I81287419I81685226I81730258I81866613I82008629I82256684I82615936
1094I82577319I82260583I82043598I81720321I81589815I82055422I82344925I81979760
1086I81669125I81954036I82552602I82963616I83137079I83223621I83108021I82667698
1078I82399831I82709146I82825500I82578451I82864306I83801683I85023971I85826440
1070I85426621I84710254I84612013I84562641I84663838I84951643I85047557I85480458
1062I86305946I87045269I87177095I86919417I87652262I89347767I90149796I89512047
1054I88692849I88165480I87673772I87325526I86970551I86616581I86342236I85574297
1046I84147665I83082235I83630610I85476119I86886398I87145711I87067659I87430308
1038I88449888I89581357I89922307I89593621I89073108I88631149I88564985I88404164
1030I87882833I88106548I89644062I91390952I92205056I91783224I91118180I91271830
1022I91027675I89285313I87387791I86946273I88162209I89917338I91247239I92278077
1014I93101175I93772823I94844668I96312622I97010434I96745272I96739674I96768606
1006I95961483I95100459I95226248I96276080I97616673I98247440I98152847I98433859
998I98714870I98388197I98000831I97314843I96127587I95230651I94642903I94352394
990I94723597I95085679I95382415I96189538I96987981I97437046I97934226I98462287
982I98768834I98801916I98867578I99322807I99568032I99130036I98741475I98787576
974I98612101I97779695I96400611I95045427I94657746I95043666I95419774I95895066
966I96442876I96564891I96118404I95698207I95093164I93425961I92234994I92911045
958I94486045I95736635I95807643I95328577I95985068I96959175I97252389I97334214
950I97158299I96480990I95674999I95838461I96605521I95998842I93951254I93050104
942I94251134I95587450I96238281I96625081I96625647I96713259I97900829I99606901
934A000546164A001308066A002856839A004899458A005923503A005424563A005210785
927A005944699A006732827A006920252A006091808A004071769A002160976A001794051
920A002294627A003396284A005471922A007108684A006903208A006215899A006640687
913A007766810A008380281A008499152A009366213A010237236A009948551A009567223
906A010335729A011745505A012774645A013620133A014834056A016645665A018324377
899A018665453A018286515A018345509A018486833A018195129A017186619A015281046
892A014134420A014718708A015712313A016885669A018683315A020682725A022214642
885A023435736A023815995A022655406A021803942A021643876A020777696A019982837
878A020103091A019736354A018067768A017564614A020043405A020898956A017439139
871A015441741A018046007A022025897A023383408A022811761A022691256A021730922
864A020633731A020914428A020644486A018155003A014749149A014406123A018231168
857A022053759A022554775A020959083A020106676A019941767A019925981A021003864
850A021039399A019345907A018657528A018966088A019114015A019304082A019672894
843A020315045A021309970A022425779A022314644A020476684A019212948A019604717
836A020604359A021457458A022441628A023842473A023967193A022252316A020251207
829A018576332A017672980A018462430A020155356A020688260A020428947A021194434
822A022689495A023437371A023222272A022121119A020388946A020009316A021036883
815A021789162A023235669A026083964A028438036A029430885A030110207A031692754
808A032645603A029623782A024975389A024024175A027134928A030320211A030792862
801A029272203A027621856A028922322A031228028A028898171A025582319A026671208
794A029302392A029764854A027276252A024513241A025880753A029970707A031075195
787A028936033A026790645A026081197A028558604A034318340A039655427A041662762
780A040416826A037221165A034402116A034215194A036638701A039101454A040427014
773A041247974A041624522A041744713A039836877A035721953A033816255A035372386
766A037154874A037443811A037256575A038071119A037947783A034651995A032039679
759A033929087A037504881A037835768A035231755A032197041A029185157A027996266
752A029712212A030978337A030632104A031455580A033443795A034570672A034759355
745A034506394A034574949A035694531A035878749A033712794A031617344A032118045
738A034968731A038171058A040566137A041456846A040783751A040953566A042323593
731A041914151A040710919A040982120A041768487A042295542A042964863A043811169
724A044570052A046224928A048526923A047665962A043408017A040934257A041107720
717A041825281A042933165A044139100A044463195A044083942A044107905A045431642
710A047011799A045193649A041889119A041172375A041397725A040892307A041508545
703A044746597A047087964A046400592A045211449A043592800A041845407A041332064
696A041188287A040901678A041633139A042634102A042009373A040535570A040228080
689A041729179A044057526A045102138A045042766A045669319A045320570A040080152
682A032976238A027515502A022850567A018496519A013692273A007940273A003364773
675A001618198I99367525I93516026I87638866I83916591I82317125I80760617
668I77475583I73785196I70532993I68767361I68848369I66150831I56607813
661I42174509I25273798I05981593H80554928H52404121H16312842G54695463
654F92966131F47558757F08108104E66609486E20721159D86216515D74769654
647D80391935D84552112D80772383D77498104D84884382E09208604E46526071
640E84680975F28723794F72869130G07806801G43150455G73414448H01863501
633H29250708H52692114H73546425H81219281H79612708H80344609H85413892
626H91530239H98056028I06967147I13598788I16729730I21783226I26507344
619I28289015I31472097I40191137I53347371I54981869I50251964I47120267
612I33156595I09144738H84236636H57480888H17355379G32957298F32111722
605E64760015E22359116D93318951D57943882C97724517C32863740B93095093
598B77810578B85498811C07943877C38614608C73393219D06346543D35488816
591D61947106D86816590E10822253E35720071E61713729E87059009F09265422
584F26141604F37033203F43650189F47605613F50176984F50066982F37161885
577F17037148F16752488F44127494F84340552G17177238G44968415G70699615
570H02518671H34668928H45078504H51229066H59512249H68602302H78249914
563H89861275I04657982I20094828I27597618I24822783I25852174I33183766
556I39570307I44327130I50645745I57665444I65104207I70130721I69171960
549I64050916I55376216I45871878I38350346I31219387I01978496H30530419
542G51381687F76301085F31170383F53922845G20084968G81050888H35055414
535H80267690I05279190I15814492I16582557I04658737H76920957H33924511
528G68199754F67266001E82043690E45841403E29000505E18596997E17239140
521E13974673D92560697D67114094D73918914E01239611E36094857E77386617
514F25298632F75286474G17033839G38112934G40871794G40788144G47610417
507G51435147G35215896F89038255F16278454E44104639E24938884E81223045
500F70953369G40591474G92547845H32830590H61689210H81609163H93837580
493H98146596H96505935H88232124H69570309H27587845G51901634F67062601
486F11114264F07291484F34564727F54475371F47362464F19025363F05027225
479F34423843F86063605G07283269F75188610F18795736E86433399E93887949
472F24265467F59412198F95406242G30987385G62673104G85873499G94367881
465G84475610G68543786G70232813G95934767H27888354H52193047H69999374
458H84156509H95564407I04433324I11243836I16538846I20376028I21655299
451I17646163I02664421H66352258H08645395G59419329G52027989G80191500
444H09623402H15766354G96751073G77423458G90032638H33468904H79672584
437I13047330I35189025I49574466I57623682I61067964I62931711I65784095
430I69733418I73166630I74321559I72075036I67204940I60956075I51025564
423I32502620I00249593H43977602G50924382F37361511E63598735E73139929
416F41989968G19953833G77358363G99934595G79748787G35264953G11258190
409G21019578G21421850F62484020E51093771D69063410D83375547E65073418
402F51597201G17781275G62634236G86139291G85371540G55773283F94091562
395E99393592D84206256C87260789C49852377C77841578D46896557E33740095
388F24346915G06560613G69199963H05544705H12807868G87165789G21459524
381F17322185E08557428D49518464D60216977E07222748E43912497E42992605
374D99549892D32359603C76154815C54706215C66361257C97094410D34561534
367D73036318E14536194E60949752F07851809F50223338F85860519G13001055
360G28971559G29263703G04818818F42875394E42058687D28989317C46568728
353C18240716C30491177C50266190C51683357C29954249C03910181C00983111
346C28502868C72853649D21183251D68102416E12062780E52516000E89135905
339F22128318F51185432F74509666F88460885F86529337F61641299F13994509
332E56682120E09328481D83929583D81364816D98377950E30403677E70411385
325F09543352F39230731F51641039F37054336E86918818E13495859D58864655
318D56732883D97624193E52335179F03060897F44871723F78077661G01304346
311G09853005G06411742G06879676G22062303G45458802G65208563G69383740
304G44483752F97075583F66235226F80260283G24691852G71585293H02963522
297H02545401G49869204F40300123E19025559D54503814D64099475E12197531
290E65696889F13184242F52399481F83190341G06157712G15763939F98221077
283F54856196F19517700F21045152F50377177F84992452G13467353G35426277
276G53550723G68865554G81946692G93135404H02403134H10255805H17561420
269H24171111H30098523H35661715H40920687H45650717H49874134H53727858
262H56654897H55059771H34588738G60518156F33809617E60139044F12145919
255G11389073G77583587H12749627H32428947H41602147H43220921H41633782
248H43781686H51195921H58237821H59756845H49263681H22850644G96263390
241G93895796H14701741H38579949H55929033H68169904H77055865H82979441
234H86858637H89487368H90177822H87205500H81112109H77104671H80466813
227H89650831H99003909I06479465I12697701I17280684I19935202I20370620
220I16682119I06431539H89991781H73421077H64275927H64399766H67258628
213H61833489H31221690G44751996E90676691D44165434D15844089E03103547
206F13710164F94387920G43582853G73652063G98353997H24311805H48356682
199H67935308H82659561H90888151H94557091H94850430H78909487H12416413
192F61501107D78878792D01307104D70146922E93825558F86879533G13027848
185F97186088G11769773G71379817H28722207H62187270H82018039H96676819
178I07379231I15607758I23239670I29597972I34490018I37332904I35833944
171I33539496I37547059I45507908I51641363I55515653I57076187I55764714
164I53330453I51350980I48225320I40586679I30681075I24879199I18178627
157H96115424H45142091G55247989F44987196E75912185E93808325F69152768
150G38048530G70720936G83225900H05463635H43405641H81711618I10465393
143I30017854I43104653I52695786I60199708I65218738I68848683I72322022
136I74040798I68375089I43255914H72678169H05911819H27326959H84275693
129I31192406I57404369I70496200I78370192I84162508I88208311I89690856
122I80701370I41707141H54733538G57496587G27921349G47102860G34300595
115G21602545G71858757H47488489H97838477I25112097I44391911I58425899
108I65777302I67925521I66513669I60553425I54294811I58457661I73687081
101I89490789A000194900A006833458A011270653A015092489A018907344A022708740
94A025960125A026474475A022433074A019527042A024543934A032883595A037409534
87A038344772A037919040A035302448A026057989I99716022I41317574H50429931
80G69358331G53979474H03032706H69366531I22274305I57830919I75488060
73I68065901I22747773H48865309G98476453H07614180H51812788H94904142
66I27063393I51669539I70973254I85288568I96398472A005225125A008959664
59A008281223A009888047A013788627A017366685A022052941A026075348A027197571
52A026122078A019591760I99100727I56523975H91874334H26634870G94245740
45H06958444H47892900H94682251I34009065I63924498I84646102I97085153
38A008940984A023385923A033940849A039445611A046538204A055991787A061155034
31A063423129A070582264A073741822A059745823A037535071A013607932I73745069
24I04286025H17062983G46288567G29443077G67454331H31561634H92528246
17I35770358I65847744I88331206A002748724A010947816A018395762A025168726
10A019818369A005959164A001855184A012209476A028528792A040547017A049622731
3A060184574A066711873A064433841
##END=


$$ === CHEMSPECTRA PEAK TABLE EDIT ===
##TITLE=X9600
##JCAMP-DX=5.00
##DATA TYPE=INFRAREDPEAKTABLE
##DATA CLASS=PEAKTABLE
##$CSTHRESHOLD=0.93
##MAXX=3996.5625
##MAXY=1.0175799170615634
##MINX=399.65625
##MINY=0.2632797373892967
##$CSSOLVENTNAME=- - -
##$CSSOLVENTVALUE=0
##$CSSOLVENTX=0
##NPOINTS=58
##PEAKTABLE= (XY..XY)
415.96875, 0.9533426208208546
440.4375, 0.6912896662739766
491.4140625, 0.752702835706161
540.3515625, 0.756712261897303
558.703125, 0.7145426907093512
583.171875, 0.9662008329972464
609.6796875, 0.9043805640548667
632.109375, 0.6838592321241568
638.2265625, 0.6898475320287574
666.7734375, 0.7637587221939779
709.59375, 0.5457891845504028
746.296875, 0.8847108526926445
774.84375, 0.6607198742450733
785.0390625, 0.3803167961213456
821.7421875, 0.3940934263014684
838.0546875, 0.8190701042796541
864.5625, 0.8312278427490457
889.03125, 0.7523711954745894
905.34375, 0.7976122532775574
921.65625, 0.5308410553244366
972.6328125, 0.587113919629155
995.0625, 0.43073106018430213
1013.4140625, 0.6313878924393539
1029.7265625, 0.6694629817964514
1046.0390625, 0.43284353806461745
1068.46875, 0.45618710150384245
1105.171875, 0.2852402345266117
1117.40625, 0.3015951830857274
1154.109375, 0.33615335963035725
1170.421875, 0.4260064681682496
1196.9296875, 0.3315534008988716
1223.4375, 0.44452911869946155
1233.6328125, 0.6740559370607785
1249.9453125, 0.5341197877056353
1296.84375, 0.7367604406428288
1307.0390625, 0.7126932778395534
1343.7421875, 0.7283452185548379
1364.1328125, 0.5557600880303148
1376.3671875, 0.5733813667504588
1386.5625, 0.5755271940231026
1421.2265625, 0.49748203441321265
1435.5, 0.7020413312463016
1455.890625, 0.4426817613804441
1498.7109375, 0.5981571107927425
1537.453125, 0.8764500660586025
1572.1171875, 0.5844933416280332
1616.9765625, 0.2632797373892967
1680.1875, 0.8336046972499662
1710.7734375, 0.45252263729499564
1718.9296875, 0.44993689846297813
2854.6875, 0.7353017966004014
2871.0, 0.7686924970650996
2917.8984375, 0.5392626554007869
2950.5234375, 0.7210193312908807
2964.796875, 0.7885640892912603
2987.2265625, 0.8547638101007091
3023.9296875, 0.8843415425265555
3058.59375, 0.9176790753979484
##END=


$$ === CHEMSPECTRA PEAK TABLE AUTO ===
##TITLE=X9600
##JCAMP-DX=5.00
##DATA TYPE=INFRAREDPEAKTABLE
##DATA CLASS=PEAKTABLE
##$CSTHRESHOLD=0.93
##MAXX=3996.5625
##MAXY=1.0175799170615634
##MINX=399.65625
##MINY=0.2632797373892967
##NPOINTS=152
##PEAKTABLE= (XY..XY)
3984.328125, 0.9256587074164495
3976.171875, 0.9266085671021721
3965.9765625, 0.9239094896163855
3939.46875, 0.9265447303568681
3921.1171875, 0.9275014447216107
3910.921875, 0.9270776553521288
3894.609375, 0.9295356316101943
3888.4921875, 0.9329185526484888
3876.2578125, 0.9326697040129163
3859.9453125, 0.9326768562682134
3847.7109375, 0.9315878199681521
3827.3203125, 0.9341246529919538
3811.0078125, 0.9319095056098681
3788.578125, 0.9287959384871065
3774.3046875, 0.9301866934397685
3762.0703125, 0.9339694423233722
3739.640625, 0.9391855640105334
3727.40625, 0.9317114989237028
3717.2109375, 0.9333951513825092
3704.9765625, 0.9352051060170415
3694.78125, 0.9326849628525264
3682.546875, 0.933391277204736
3662.15625, 0.9331828998905443
3641.765625, 0.9327800915439883
3635.6484375, 0.9323417588447346
3623.4140625, 0.9324049994897892
3615.2578125, 0.9374607844253025
3603.0234375, 0.9341566007431554
3590.7890625, 0.934868935802653
3576.515625, 0.930482213218393
3558.1640625, 0.9315618919765432
3550.0078125, 0.9320545238171114
3539.8125, 0.9302269856467659
3533.6953125, 0.9308820410637022
3519.421875, 0.9309575600471203
3507.1875, 0.9310247942795371
3486.796875, 0.9307910244214963
3476.6015625, 0.9301250022762841
3468.4453125, 0.9307104390598063
3458.25, 0.9311801243577075
3450.09375, 0.9296912592646418
3433.78125, 0.9294318599389644
3425.625, 0.9300221252292759
3401.15625, 0.9242621705756775
3388.921875, 0.9281577510961451
3372.609375, 0.9295433799657407
3358.3359375, 0.9300487090259285
3344.0625, 0.9301095055651913
3327.75, 0.9305440228437711
3319.59375, 0.9314875651936239
3307.359375, 0.9324360535644644
3293.0859375, 0.9312371064239916
3282.890625, 0.9318210524830428
3268.6171875, 0.9324346822495824
3256.3828125, 0.9325113934334991
3250.265625, 0.9322522329269995
3233.953125, 0.9331839129766597
3213.5625, 0.9315400172770909
3205.40625, 0.9319995688707532
3195.2109375, 0.9324091721915346
3182.9765625, 0.9332472730313032
3166.6640625, 0.9340455574070397
3154.4296875, 0.9343961524893064
3148.3125, 0.9341954638258666
3136.078125, 0.9323115396894865
3127.921875, 0.9305428306432725
3103.453125, 0.9259372994643047
3089.1796875, 0.9301832362478613
3081.0234375, 0.930153254964096
3058.59375, 0.9176790753979484
3023.9296875, 0.8843415425265555
2987.2265625, 0.8547638101007091
2964.796875, 0.7885640892912603
2950.5234375, 0.7210193312908807
2917.8984375, 0.5392626554007869
2871.0, 0.7686924970650996
2854.6875, 0.7353017966004014
2742.5390625, 0.9137866544931109
2728.265625, 0.9170049476161183
2697.6796875, 0.9254470510770388
2689.5234375, 0.9251951025306308
2673.2109375, 0.9223958299751104
2665.0546875, 0.9236733363050424
2620.1953125, 0.9302479069648973
2612.0390625, 0.9303230686672438
2595.7265625, 0.9310155551995197
2589.609375, 0.9311848325072127
2573.296875, 0.9330652397468912
2556.984375, 0.9352987449317276
2528.4375, 0.9316622661606603
2518.2421875, 0.9354392331561538
2497.8515625, 0.93621176960236
2485.6171875, 0.9392778922628271
2475.421875, 0.935324196232676
2452.9921875, 0.9446053548623812
2446.875, 0.9430518787570739
2436.6796875, 0.9459446120605921
2418.328125, 0.9423429411846892
2375.5078125, 0.9426323217941319
2355.1171875, 0.9403362914740792
2344.921875, 0.9432680650793016
2330.6484375, 0.9435963675285549
2320.453125, 0.9411087672677957
1753.59375, 0.9180961294979992
1718.9296875, 0.44993689846297813
1710.7734375, 0.45252263729499564
1680.1875, 0.8336046972499662
1616.9765625, 0.2632797373892967
1572.1171875, 0.5844933416280332
1537.453125, 0.8764500660586025
1498.7109375, 0.5981571107927425
1455.890625, 0.4426817613804441
1435.5, 0.7020413312463016
1421.2265625, 0.49748203441321265
1386.5625, 0.5755271940231026
1376.3671875, 0.5733813667504588
1364.1328125, 0.5557600880303148
1343.7421875, 0.7283452185548379
1307.0390625, 0.7126932778395534
1296.84375, 0.7367604406428288
1249.9453125, 0.5341197877056353
1233.6328125, 0.6740559370607785
1223.4375, 0.44452911869946155
1196.9296875, 0.3315534008988716
1170.421875, 0.4260064681682496
1154.109375, 0.33615335963035725
1117.40625, 0.3015951830857274
1105.171875, 0.2852402345266117
1068.46875, 0.45618710150384245
1046.0390625, 0.43284353806461745
1029.7265625, 0.6694629817964514
1013.4140625, 0.6313878924393539
995.0625, 0.43073106018430213
972.6328125, 0.587113919629155
921.65625, 0.5308410553244366
905.34375, 0.7976122532775574
889.03125, 0.7523711954745894
864.5625, 0.8312278427490457
838.0546875, 0.8190701042796541
821.7421875, 0.3940934263014684
785.0390625, 0.3803167961213456
774.84375, 0.6607198742450733
746.296875, 0.8847108526926445
709.59375, 0.5457891845504028
666.7734375, 0.7637587221939779
638.2265625, 0.6898475320287574
632.109375, 0.6838592321241568
609.6796875, 0.9043805640548667
558.703125, 0.7145426907093512
540.3515625, 0.756712261897303
491.4140625, 0.752702835706161
440.4375, 0.6912896662739766
##END=

##END=

