##TITLE=X9638
##JCAMP-DX=4.24
##DATA TYPE=INFRARED SPECTRUM
##DATE=19/11/2018
##SAMPLING PROCEDURE=Instrument type and / or accessory
##ORIGIN=Default
##XUNITS=1/CM
##YUNITS=TRANSMITTANCE
##RESOLUTION=4
##FIRSTX=3996.5625
##LASTX=399.65625
##DELTAX=-2.0390625
##MAXY=1.0445795
##MINY=0.62561572
##XFACTOR=1
##YFACTOR=9.7284048e-010
##NPOINTS=1765
##FIRSTY=0.92793328
##XYDATA=(X++(Y..Y))
3997+953839092+954803951+955225418+954975258+954670814+954474570+954358221
3982+954600968+955057174+954885989+954510964+954796476+955060850+954669834
3968+953769919+953057181+953500950+954349889+954484802+954723627+955349793
3954+955706377+955894901+956010637+955932642+956287449+957016669+956294985
3939+954688153+954568128+955331719+955874498+956678282+957482617+957890912
3925+958190638+957898386+957551606+958293324+958848112+957751525+956150636
3911+955318546+956027241+959124740+963183116+965273419+964822298+961834592
3897+957731245+956655551+959305483+960900306+960119988+961006791+962500338
3882+963006968+962778742+960359243+959537630+962178493+965504769+967733479
3868+966581321+964428585+964172360+963225085+961372443+962108218+967766993
3854+975970929+973920083+964260403+959313325+959863028+962994592+966466014
3840+969701612+970760764+968396222+965793835+964136272+963135510+963129873
3825+963340454+965306749+969550279+970370360+968859291+966457620+961640677
3811+959179208+961729516+965867664+967270226+968946108+969999868+966850965
3797+963564146+960727222+958042613+956758360+956549311+957234785+958242287
3782+958617619+959452956+959812910+958447905+957857214+959625550+962569878
3768+963738639+963179807+962114529+961866513+963839181+965249647+965229122
3754+968375697+976011857+980041742+977262657+976348896+975106551+969425107
3740+966487396+969545255+975023287+975080879+968367426+961555330+959299233
3725+960987491+963345723+963983346+962460023+960385772+960456292+964414003
3711+968715064+967020373+962616013+960759940+961613290+961681788+959891089
3697+958685015+959130070+962569510+968438926+970422561+965310915+960002720
3683+958595991+961027500+966469812+973340420+975402601+973312543+973017963
3668+969407768+962278484+957731245+956670011+957649819+960312923+962885472
3654+963641038+967272738+975106918+976475661+968080933+961212286+959228774
3640+959079034+958676927+958755841+959946598+963215833+968632596+968626408
3625+962490106+959539590+962077461+966574214+967462058+966580464+966435134
3611+965332972+963732757+961866391+959421954+958212266+959059857+960604378
3597+961439654+960979527+959788341+960337125+963461153+965035819+962489309
3583+959926379+959087918+958613514+957776523+957168493+957377051+959099865
3568+962619015+964918244+963279124+960876350+959752744+959195750+959184171
3554+959634189+959163401+958335048+959013905+959682591+958879420+957858255
3540+957162978+956871278+956777844+957031312+958315994+959824980+960258027
3526+959863211+959372511+958537541+957354566+957121622+958197806+958859753
3511+958502434+958024600+958070980+959399959+961230728+961221844+959738897
3497+958723001+958081028+957488560+957666975+958223294+958214104+958320405
3483+959097292+959289001+958165579+957084861+956896766+956743839+956360481
3468+956187949+956385050+956857186+957105386+957046139+957330058+958006525
3454+957984101+956968450+956269314+956773126+957941887+958781390+958796034
3440+958200870+957600130+957266645+957261437+957649145+958163557+958166927
3426+957626353+957492604+958205159+959009861+959226936+959250157+959523599
3411+959689208+959193422+958261526+957561654+957262908+957579299+958440675
3397+959000916+958879788+958607510+958384369+958011243+957852986+958164905
3383+958616516+958971752+959203225+959141160+958811657+958475966+958286952
3369+958304536+958090770+957445917+956993816+956936958+957280614+958109824
3354+958638941+958561191+958530128+958662652+958745426+958679133+958415433
3340+958013143+957945318+958484054+959076154+959183068+958718284+958283337
3326+958555554+958803692+958190270+957646021+957806728+958153999+958612656
3311+959077747+959096495+958494102+957933187+958250068+958811596+958943385
3297+958970404+958736909+958430321+958646170+959149738+959464414+959415828
3283+959199304+959154455+959353211+959383661+959149921+958829364+958571239
3269+958755658+958940015+958835246+958793583+958851175+959307566+960029311
3254+960096829+959583397+959642338+960306735+960600764+960662094+961002564
3240+960867466+960000760+959678915+960374008+961026520+961174667+961129757
3226+960683231+960222185+960278245+960157975+959465088+958612963+958121220
3212+958042980+957757468+957234724+956937203+956728522+956501889+956505137
3197+957153482+958383879+959068863+958928129+959077624+959953705+960677472
3183+960597026+960429702+960657437+960607136+960133345+960031700+960449124
3169+960702286+960722995+960818390+961037732+961413738+961688038+961606428
3154+961391620+961239796+960926713+960718461+960783344+960324319+959521700
3140+959049563+958822563+959105195+960020917+960683966+960651249+960712211
3126+961080620+961420845+961648029+961734724+962075010+962525090+962751172
3112+963405153+964287300+964091791+963078775+962250300+960490112+956270049
3097+950607843+945188323+940319056+935830574+931518975+927045811+921273138
3083+913993378+906581461+898891937+890816664+883855502+879657617+879158155
3069+881576797+885400207+888915436+890460510+890137134+889118542+888249936
3055+888564612+890596955+893492145+896561644+899516632+901750427+903393775
3040+905113403+906985283+908592728+909942355+911693965+914032896+916826441
3026+919867083+922135372+923236064+924054307+924629374+924454943+924101177
3012+924040399+923900461+923859840+924710800+926450034+928316033+929633493
2997+930429741+931065281+931480744+931597216+931747814+932430102+933335530
2983+934138518+935140077+935890373+935861331+935124085+933564001+931728759
2969+931083110+931772873+932675850+933311881+933660070+933617979+933319233
2955+933034395+932975148+933434479+934206893+934926678+935752579+936830112
2940+937992011+938893640+939307327+939407011+939703061+939789817+939022060
2926+938275868+937774262+936924588+936412137+936740292+937592294+938279851
2912+938527805+939399720+941031978+942341535+943050414+943629280+944140261
2898+943984393+943503495+943437019+943682032+943975999+944124944+944371489
2883+944806803+944805455+944304032+944070169+944437843+945033926+945447734
2869+945527935+945496382+945454841+945305959+945113881+944640519+943904315
2855+943439470+943197397+942986143+942943010+943064750+943373238+943624011
2840+943661875+943879072+944054178+943943343+944085119+944455304+944423016
2826+943767380+942762144+941752192+940941975+940430443+940495632+941241579
2812+942096338+942858030+943578366+943785576+943484257+943318403+943615495
2798+944119981+944453711+944432451+944137259+944108156+944630104+945249898
2783+945862646+946623174+947397181+948097175+948419878+948544130+949072573
2769+949688262+949792786+949567746+949693837+950188214+950367364+950375022
2755+950718372+950951928+950862537+950893845+950890353+950603738+950363197
2741+950194586+949801792+949439388+949690957+950574758+951388774+951830766
2726+952246719+952682462+952926985+952802364+952471269+952238202+952121424
2712+952037854+951964454+952164619+952334272+951979771+951792841+952032278
2698+952014511+951836403+951988594+952243349+952376731+952691223+953068883
2683+953091307+952876071+952587985+952082703+951519582+951248713+951375662
2669+951861829+952263568+952201380+952257318+952908237+953594691+953795897
2655+953559584+953258816+953337424+953880387+954499813+954700713+954697098
2641+954839303+954981262+955066548+955106434+955173646+955328349+955600995
2626+956053158+956294618+955728985+954736494+954360243+954486579+954275753
2612+953746025+953348391+953614052+954665974+955466571+955657546+956046541
2598+956346022+956205900+956375676+956021604+954456312+953671522+954387262
2583+955294651+955686648+955616741+955542054+955671883+955697861+955701659
2569+955914445+956129682+956218951+956002366+955377609+954686192+954590429
2555+955347955+956157253+956160194+955567542+954934698+954383893+953938960
2541+953257407+952371952+951816245+951253676+950532054+950058447+949738931
2526+950052994+951410647+952478805+952405650+952335926+953305748+954810568
2512+955972896+956186968+955554553+955457687+956468375+957564533+958097019
2498+958246209+958410347+958711238+958954536+959357561+959574758+959419013
2484+959614644+959390585+958313114+957582117+957597986+957844776+957487702
2469+956644707+956755726+957921362+958686792+958441962+957593575+956455693
2455+955515709+955414309+955428707+954579340+953585317+953268374+953224812
2441+953351822+953988955+954598578+954995599+955479377+955488812+955141541
2426+954978566+954356444+953572328+953232409+952960866+953003203+953340548
2412+953769858+954542824+955393662+955829833+956061674+956604576+957581198
2398+958673435+959211006+959137606+958856935+958540114+958104188+956994122
2384+955125918+953019746+950472562+947517451+945514885+945142065+945451533
2369+945851311+947010453+948218549+947812215+946948265+946847968+946230074
2355+945062538+945293644+947080422+948757590+948954385+947359501+945343577
2341+944148103+944439987+945777115+946204035+945773500+945549318+945839731
2327+946672863+947516103+947783112+947783112+948862115+950792139+951999071
2312+952312583+952334762+952528800+953265678+954621738+956050278+957323319
2298+958866983+960255453+960760736+961016594+961817253+962382089+962155763
2284+961835327+961616537+960943133+959945189+959425508+959888760+961414840
2269+962936203+963306940+962801228+962277197+962111833+961335314+959112302
2255+957128668+957446775+959465026+960804727+960097258+959178534+960275304
2241+962157601+962456776+962740449+965564568+967980575+966891953+964277313
2227+962946067+962854470+962943678+963170862+962942881+962599777+962573676
2212+961955782+961189923+961619784+963741641+966449594+967988847+967674906
2198+965841257+963843286+963167860+964868065+969389020+973567482+973227992
2184+969721953+967530924+967953004+967619396+965512367+964562028+965643666
2170+968916638+972143414+971843810+969082860+966224738+964787681+965130357
2155+965085692+962872545+960622820+961847275+965691700+968755379+969768150
2141+968757707+966759429+965341182+965207004+966372579+967200993+967217964
2127+967708420+968136933+967794747+967019025+966867017+968574698+970841945
2112+971464189+969930083+967307784+965845730+965916189+966219775+966859359
2098+967789785+968181904+968099559+967711973+966809976+965989405+966107286
2084+967233771+969063131+970914181+971692599+971000202+970059483+970043737
2070+969885480+968285142+966452228+966442303+967941302+970216943+973660978
2055+975966579+975710721+974799533+973417557+972485171+972940764+972962944
2041+972546439+973120894+974554949+974815525+974022708+974211844+975273079
2027+976981188+977212539+972467709+965399204+963715540+968038964+970531129
2013+969376950+970123999+973498432+975150419+974682388+973934175+972196534
1998+970779328+972478615+975413139+976889408+977737244+978429457+977875098
1984+976001135+975216712+976526575+977940288+979171605+980745413+982139459
1970+982076536+979477029+975987533+973790867+974244623+976343933+976503354
1955+975425332+975792944+976271146+975321849+974329970+975771010+978589185
1941+978072322+974858351+973378407+974328868+975535186+975162734+973651910
1927+973277191+975480106+978243874+979332129+979698393+979545711+978678208
1913+978625394+979304496+979215167+978921138+979330413+979727495+979589396
1898+979426666+979826260+980330379+981087782+982667350+983025159+981606299
1884+980850856+981011380+981150522+981500672+982144483+983202593+985607818
1870+988897761+989453101+986212968+983595325+982849808+982174076+982093753
1856+982986621+983196344+982321182+981925264+983350251+986188093+986595530
1841+983979235+983162095+984239259+984626906+985370463+987785061+988528679
1827+986847099+985010999+982034261+979128288+978048611+977611949+977346533
1813+978521176+980122249+979709176+977971842+977326070+978645981+980296130
1798+980313530+980003143+981669957+983267048+980437844+976475170+975660910
1784+977264801+979568442+980845771+980333320+981141883+985075025+987270588
1770+983120861+977168303+973285646+972287395+971936877+969728632+967122324
1756+964748040+963583568+964843987+965533014+962652468+958982352+957413629
1741+958101369+958557821+959450812+965263677+971328724+969846390+966736270
1727+965312753+965870482+967926414+972464278+981460480+989321373+987781569
1713+983689618+983583623+988000604+994777103+999914910+1004180006+1010529769
1699+1013791407+1012024112+1006753107+1002085598+1002009625+1005401152
1686+1012781638+1020624886+1016331239+1008493321+1006621257+1009542363
1674+1012184146+1014008850+1016500156+1014209749+1010175330+1010491783
1662+1011202254+1009041921+1009288833+1016560690+1028561568+1028029756
1650+1023453660+1025388341+1022754953+1015121611+1012377203+1015850096
1637+1023891486+1028280345+1021622524+1015904564+1016357094+1019081651
1625+1020872840+1018307582+1007749519+992340142+967752288+940318505+934632588
1611+949658730+970229564+984585672+992680857+998004431+1001457717+1003818950
1597+1005530919+1005994723+1005110984+1004246851+1004901874+1007088675
1584+1009629671+1011934231+1015558273+1022311061+1028413543+1027162621
1572+1026590310+1030465186+1031425879+1029662199+1030522656+1036843500
1560+1051092143+1055902224+1043062515+1032575769+1025584340+1019484002
1548+1013377660+1009437961+1008832076+1009186208+998940984+982217025+975894772
1533+975323503+969916114+958907420+938820118+902960483+851319263+777504237
1519+710609384+680176254+678160944+694261125+719898205+749569888+781208969
1505+797818661+804009800+816049829+835765843+857201362+873378007+887170872
1491+904234994+919882952+926889882+929228507+930084247+929497661+928186266
1476+927759468+928534272+925286665+914317122+903272831+893124594+877348646
1462+862171109+858337957+862717197+861236517+857200994+861894910+875108541
1448+891693113+904632811+911622893+913317156+910778059+906368247+902796957
1433+905156291+914414171+924767658+930532611+932988076+933413954+933719624
1419+936027063+938829492+943717262+953069802+964443290+974659473+983089736
1405+988475069+988283972+985373281+984350829+987306675+993462890+999050103
1391+1003473701+1007843934+1007350170+993579668+963534982+929954664+918498892
1376+934927474+958985721+971396610+971849569+966972644+961621438+962165872
1362+970473169+982062261+993088416+1001129929+1003059219+994962992+971130030
1348+929166565+873766389+810604943+749425355+706067354+684723676+673965387
1334+673261655+689387754+718151864+750217559+781176987+810490310+838624762
1319+865759370+890843623+912629966+930908127+946309049+960674470+974983094
1305+987350360+994992463+995602454+987006520+968797654+944763976+921691480
1291+903461783+886109944+861438642+825681448+782091483+739564285+708485751
1276+688934366+670716065+652264146+643081504+645754901+653418264+662174783
1262+672459587+683196677+692773951+701045038+708271494+715029919+722081759
1248+729420031+736391732+742682125+748144105+752518382+756162826+759496271
1234+762249807+764670778+767755533+772394858+779099734+787190936+794181631
1219+798006082+799324094+797115175+788507600+776852522+768775044+767010690
1205+771272967+779445473+788932192+798267577+806905541+814702286+821676621
1191+827855261+833403139+838376440+842701457+846827166+850695977+853793905
1177+856544317+859434054+862076326+864145186+865950161+867834295+869972449
1162+872331845+874716360+877129427+879793695+882762223+885829517+888735980
1148+891409868+894161015+896951068+899457385+902100332+905350329+908802267
1134+911996816+915286576+919295263+923745451+928110660+932919087+938204184
1119+942402314+942728692+934108067+911551331+877411569+842869333+819368385
1105+810278749+811564043+817986654+825925910+833073391+839020006+844996642
1091+852231982+860079519+866737096+871835752+876112244+879966473+883452844
1077+886374257+888576498+890304458+892093136+894345127+897147740+900265642
1062+903330791+906349376+909284513+911484181+911956930+910456583+907874169
1048+905371773+903069419+898265158+887920617+875193092+868291237+869467473
1034+873810441+880038157+889933967+900926731+909170063+914736935+919514788
1020+923856470+927218895+929916309+932442968+934175891+933337307+928288891
1005+920138381+913003521+910826461+914448910+921504182+928866348+934900945
991+939527587+943314849+946529739+949235241+951856070+954797334+957964066
977+960840018+963602193+966291337+968366078+970343524+972349644+972707637
962+970482665+968192075+970437878+979570219+993229395+1005331184+1004322824
948+971537957+897911270+813660535+771009083+780821200+810141813+835465994
934+855263373+871063093+881030832+882400616+875613027+869596995+873469175
920+882956813+885484636+872231670+845490835+821923534+816249075+820769294
905+821870108+823373273+832547828+844649249+854531763+864452877+876190729
891+887611271+896271231+902136481+906603702+910472083+914406022+918656904
877+922726308+926629123+930660724+934581000+937511235+939272097+941407004
863+944124576+945618551+945611260+945836116+947507710+949845416+951480125
848+952327839+953322842+954827233+956420157+958158411+960129240+961803835
834+963055370+964432935+965695009+965829555+965659963+965930709+965193341
820+964585739+966295503+968791037+970604406+972770866+976007078+978925121
805+980627593+982741730+985762092+987770540+988507051+989397959+990521197
791+991810535+994032137+997511708+1001625899+1004905060+1007342573+1010272379
777+1013741167+1017384018+1021251113+1025882902+1030589194+1033889615
765+1036726109+1039325617+1038990109+1034180396+1019070622+977770819+904261830
750+808633379+714775409+664973658+672677091+703962775+732439596+757255859
736+781713517+805972235+829374969+851038224+869092509+882790101+893322737
722+901141355+906462539+911137277+916126876+920567935+923471825+924913477
708+925748263+927358404+930993964+935130947+937844721+940635019+944257835
693+946983556+949263547+951805156+953858759+956071477+958636735+961089749
679+963901920+966827376+969254780+970627504+970278212+970765114+975710844
665+979810576+982498984+985925312+988126879+989095721+990189305+989556829
650+988047230+989271807+993161203+996318868+996944911+996663933+998022689
636+1001409008+1004698156+1006095020+1005955695+1005226169+1005336636
624+1007637888+1010380274+1011425027+1011448922+1012192295+1014759452
612+1018071820+1019855168+1020223270+1021431304+1023590719+1025353602
599+1026455642+1027361438+1029045346+1031207395+1032865938+1034783647
587+1037300687+1039448399+1041331798+1043921625+1047908377+1051579596
575+1052661356+1052618958+1053699002+1055019955+1050325059+1031472566+996121277
561+954785876+931672515+942799212+976184022+1007039783+1017361716+993797478
546+930901020+850137084+796659274+790767495+811892014+837577864+862985125
532+887002996+905627815+919711399+931955086+941498784+950669173+960499854
518+967352755+971514062+974408823+975572744+978867835+986224793+992789976
504+996702900+998844485+999534861+1002501061+1009750983+1017430705+1019990755
489+1017057089+1015127493+1016957404+1018463082+1019362996+1021910241
477+1025142103+1030507829+1037411951+1037757261+1032681397+1033026094
465+1038924797+1042696987+1044578180+1046022282+1042299353+1035052249
453+1028911413+1021670926+1010685330+996915564+984373131+976732254+976931622
438+986164934+999640978+1009850790+1016700015+1024349776+1030103701+1031202371
424+1030573019+1033093000+1042359641+1047462096+1042014699+1040379315
412+1047859117+1057610639+1060918167+1061348028+1066893211+1073741823
400+1072777209
##END=
