##TITLE=JPK-228,X12534
##JCAMP-DX=4.24
##DATA TYPE=INFRARED SPECTRUM
##DATE=26/8/2019
##SAMPLING PROCEDURE=Diamant-ATR
##ORIGIN=Angelika Moesle
##XUNITS=1/CM
##YUNITS=TRANSMITTANCE
##RESOLUTION=4
##FIRSTX=3997.453
##LASTX=373.96442
##DELTAX=-1.4165319
##MAXY=0.98871195
##MINY=0.46942383
##XFACTOR=1
##YFACTOR=9.2080976e-010
##NPOINTS=2559
##FIRSTY=0.95828527
##XYDATA=(X++(Y..Y))
3997+1040698428+1040464167+1039866250+1039189620+1038840204+1039017048
3989+1039441099+1039663578+1039608104+1039561951+1039703323+1039926708
3980+1040093066+1040170484+1040147181+1039999466+1039714068+1039282056
3972+1038777739+1038423533+1038377768+1038522700+1038655721+1038775926
3963+1038980216+1039227617+1039386272+1039407245+1039348405+1039316686
3955+1039378957+1039446213+1039389508+1039326008+1039534635+1039987232
3946+1040295479+1040231460+1039929492+1039637362+1039507707+1039512108
3938+1039445436+1039142820+1038759485+1038725760+1039295325+1040137666
3929+1040618032+1040486046+1039945675+1039294549+1038792174+1038643487
3921+1038867326+1039252862+1039600013+1039932664+1040291142+1040511550
3912+1040469605+1040301564+1040205503+1040201037+1040236056+1040353607
3904+1040520418+1040416784+1039850715+1039189361+1038898203+1038945780
3895+1039037762+1039157125+1039604738+1040456594+1041138467+1041167272
3887+1040732929+1040286870+1040005874+1039744556+1039498127+1039444141
3878+1039550947+1039634449+1039697238+1039848384+1040023481+1040022963
3870+1039875377+1039919782+1040317617+1040815914+1041018327+1040765748
3861+1040413030+1040469410+1041117947+1042190858+1043333678+1043994449
3853+1043552986+1042453794+1041726804+1041606211+1041947924+1042543835
3844+1043047439+1043040643+1042403304+1041463609+1040644572+1040204986
3836+1040277808+1040791187+1041403410+1041735802+1041746029+1041734895
3827+1041883582+1042004369+1041814708+1041315635+1040806722+1040641659
3819+1040799731+1040925114+1040811253+1040527344+1040299881+1040237416
3810+1040270752+1040292696+1040215796+1039970984+1039614577+1039447831
3802+1039886899+1040932947+1041860149+1042145353+1041860214+1041307220
3793+1040792481+1040479703+1040417302+1040636480+1041119824+1041681946
3785+1041996019+1041909021+1041645761+1041528146+1041653205+1041870118
3776+1041982425+1041931871+1041796066+1041698711+1041674955+1041563359
3768+1041186432+1040668522+1040373803+1040530063+1041005186+1041503483
3759+1041786939+1041736060+1041412860+1041029655+1040769243+1040655058
3751+1040515110+1040180647+1039868645+1039957714+1040630266+1041572939
3742+1042139721+1042335790+1042516583+1042661386+1042413726+1041714182
3734+1041202097+1041187986+1041161123+1040848538+1040548123+1040617967
3725+1041017356+1041316347+1041228637+1040896115+1040602626+1040494138
3717+1040581977+1040866339+1041340621+1041857754+1042133636+1042132212
3708+1042087095+1042052270+1042054082+1042255977+1042584874+1042516842
3700+1041814126+1041056388+1040820380+1041074060+1041432279+1041607958
3691+1041571191+1041475002+1041554426+1041921320+1042418128+1042822112
3683+1043024331+1043083430+1043153792+1043308369+1043490068+1043487543
3674+1042984651+1042066381+1041280615+1041251681+1042094668+1042983291
3666+1043265323+1043032681+1042581184+1042104702+1041752890+1041713793
3657+1042013690+1042262580+1042029549+1041424771+1040781412+1040402738
3649+1040789957+1041911804+1042667600+1042519625+1041982102+1041831797
3640+1042381620+1043284872+1044064941+1044540906+1044581427+1043990630
3632+1042957852+1042286401+1042844444+1044115755+1044484007+1043805695
3623+1042937980+1042543187+1042814733+1043431098+1043823496+1043784657
3615+1043524440+1043309146+1043258267+1043228297+1043005364+1042673361
3606+1042525969+1042609213+1042759258+1042972093+1043388117+1043920656
3598+1044157182+1043817411+1043064981+1042314688+1041958863+1042310092
3589+1043428250+1044591460+1044526341+1043272573+1042157975+1041847786
3581+1042136161+1042608371+1042969051+1043146348+1043269789+1043404300
3572+1043406630+1043266876+1043330118+1043837866+1044288068+1043939622
3564+1043056372+1042377218+1042109362+1041989999+1041842542+1041901965
3555+1042530565+1043698306+1044833035+1045296636+1045032341+1044481612
3547+1044046752+1043824337+1043657461+1043370122+1043012873+1042809295
3538+1042841984+1042948725+1043022777+1043186093+1043470195+1043667689
3530+1043676945+1043682965+1043811585+1043897353+1043796891+1043628397
3521+1043544571+1043514277+1043438477+1043297559+1043106085+1042829685
3513+1042432757+1041984820+1041632686+1041439464+1041318871+1041213490
3504+1041250645+1041597472+1042157651+1042571151+1042632257+1042505708
3496+1042445315+1042438583+1042324592+1042186845+1042313717+1042781720
3488+1043319632+1043638689+1043722516+1043703032+1043578425+1043234835
3479+1042751297+1042402916+1042253323+1042067741+1041769591+1041613655
3471+1041699164+1041737420+1041530346+1041311362+1041379589+1041670035
3462+1041918989+1042057254+1042183285+1042284329+1042296822+1042375664
3454+1042742234+1043263834+1043514212+1043294452+1042848004+1042564484
3445+1042578401+1042692456+1042624295+1042276821+1041779689+1041312528
3437+1040951589+1040642241+1040245637+1039683904+1039106118+1038785765
3428+1038786413+1038901245+1038985395+1039141655+1039503952+1040054746
3420+1040696097+1041284370+1041621940+1041665569+1041635793+1041671589
3411+1041589187+1041289095+1041110244+1041391952+1041924815+1042189823
3403+1041983332+1041558375+1041298740+1041432603+1041883582+1042278115
3394+1042295204+1042041525+1041851864+1041809659+1041803898+1041891349
3386+1042180437+1042490626+1042537232+1042326793+1042081722+1041949801
3377+1041953038+1042020293+1041995889+1041801892+1041568926+1041430791
3369+1041282622+1040986673+1040757656+1041018780+1041790887+1042546812
3360+1042837583+1042772528+1042701130+1042743076+1042834799+1042932866
3352+1042936426+1042657113+1042108844+1041685117+1041766678+1042182702
3343+1042358187+1042072919+1041750366+1041848821+1042291191+1042682035
3335+1042806512+1042751426+1042731942+1042893510+1043142723+1043180396
3326+1042860044+1042433857+1042251317+1042315076+1042400003+1042488943
3318+1042735632+1043070225+1043242408+1043202858+1043046015+1042717313
3309+1042192347+1041757098+1041698711+1041925786+1042181861+1042355080
3301+1042389646+1042210601+1041910704+1041743699+1041825389+1042029032
3292+1042192218+1042278698+1042329058+1042338833+1042256625+1042136096
3284+1042198626+1042600992+1043187063+1043622766+1043725817+1043566321
3275+1043302090+1043016304+1042723915+1042469848+1042313782+1042222447
3267+1042118425+1042036864+1042021199+1041938214+1041677997+1041446196
3258+1041557404+1042006311+1042489331+1042811626+1043091586+1043496735
3250+1043893728+1043942017+1043502237+1042748901+1041948183+1041379653
3241+1041304825+1041692303+1042146971+1042363624+1042424536+1042489331
3233+1042499106+1042311257+1041904878+1041427942+1041161187+1041277185
3224+1041551966+1041562259+1041242554+1040965183+1040995606+1041206952
3216+1041439464+1041778200+1042276109+1042731359+1042984262+1043164278
3207+1043335361+1043172823+1042452564+1041663368+1041570933+1042236493
3199+1042996561+1043327400+1043229203+1042887490+1042463828+1042135125
3190+1042019775+1042111628+1042314947+1042405570+1042153444+1041671330
3182+1041383731+1041508014+1041816197+1041967667+1041853352+1041605758
3173+1041424059+1041451634+1041766225+1042341681+1042913317+1043081035
3165+1042769162+1042400586+1042382396+1042639054+1042855319+1042941993
3156+1043004135+1043043620+1042951832+1042713364+1042413273+1042101336
3148+1041799820+1041585756+1041528599+1041607570+1041761241+1041928116
3139+1041995372+1041859308+1041607700+1041503742+1041685959+1041982231
3131+1042087095+1041837170+1041296733+1040742380+1040538219+1040817726
3122+1041290649+1041537402+1041438558+1041188763+1041024929+1041041177
3114+1041165201+1041245467+1041202032+1041056194+1040814101+1040412447
3105+1039802296+1039059641+1038413823+1038081042+1037983234+1037760172
3097+1037160766+1036296676+1035481005+1034988340+1035008342+1035608719
3088+1036615605+1037616147+1038181116+1038153670+1037752211+1037362014
3080+1037205366+1037257021+1037435160+1037701138+1037942001+1037958637
3071+1037660293+1037155264+1036620848+1036184239+1035914571+1035833852
3063+1035930819+1036172458+1036491969+1036829669+1037186723+1037527919
3054+1037680942+1037522999+1037197728+1036946896+1036783128+1036496306
3046+1035963378+1035305779+1034711940+1034221087+1033798202+1033568925
3037+1033736578+1034233515+1034705532+1034950667+1035160588+1035585739
3029+1036115236+1036381150+1036219841+1035816828+1035357952+1034808065
3020+1034172539+1033657283+1033296604+1032666256+1031234737+1028840608
3012+1025670164+1021963620+1017931611+1013909764+1010502470+1008448372
3003+1008105234+1009003372+1010082498+1010401037+1009441340+1006806089
2995+1002076024+995312056+987522884+980258936+974544382+970154217+965990028
2985+961364179+956993045+954599952+955425333+959216739+964657352+970418577
2975+975634705+979847767+983035235+985632877+988264179+991378114+995043683
2965+998913801+1002446025+1005325051+1007677753+1009846101+1011973346
2956+1013844451+1015163533+1015900038+1016189773+1015996228+1015184182
2948+1013824643+1012089602+1009995305+1007553858+1004964243+1002415472
2939+999937387+997594525+995614866+994288146+993832507+994227429+995133205
2929+996192135+997365961+998719609+1000050277+1001069915+1001824869+1002631672
2919+1003700246+1005015639+1006465218+1007924441+1009319905+1010665333
2911+1011932242+1012905079+1013363566+1013448752+1013654984+1014382557
2902+1015601371+1016968353+1018183348+1019194118+1020085718+1020854654
2894+1021407778+1021776419+1022137811+1022546973+1022828293+1022845899
2885+1022738123+1022717927+1022767899+1022710871+1022507682+1022290899
2877+1022144996+1022030552+1021887173+1021691557+1021481053+1021392437
2868+1021600028+1022186035+1023130197+1024351665+1025678838+1026867293
2860+1027739733+1028275444+1028559418+1028692763+1028763061+1028882812
2851+1029203165+1029789625+1030521729+1031224056+1031864890+1032539513
2843+1033303465+1034066510+1034603775+1034729676+1034562412+1034509009
2834+1034833375+1035347466+1035710670+1035902013+1036165532+1036565050
2826+1036853555+1036794455+1036434488+1036013027+1035738633+1035707045
2817+1035945059+1036431316+1037051760+1037606049+1037954559+1038170112
2809+1038454409+1038905582+1039452103+1039998624+1040488118+1040807305
2800+1040807887+1040502099+1040098051+1039764364+1039497997+1039270404
2792+1039154018+1039238103+1039542985+1040028400+1040563011+1040906602
2783+1040900064+1040691243+1040624829+1040875142+1041276926+1041519536
2775+1041461473+1041277897+1041299258+1041645438+1042061203+1042224130
2766+1042132083+1042005405+1041906432+1041719878+1041457524+1041291879
2758+1041266310+1041263591+1041305407+1041593265+1042148201+1042680740
2749+1042940310+1042985039+1043023230+1043157352+1043335232+1043449611
2741+1043464564+1043461327+1043532272+1043653254+1043694811+1043527482
2732+1043123304+1042591930+1042110204+1041804610+1041721237+1041842348
2724+1042051946+1042157069+1042072207+1041949672+1042005599+1042239212
2715+1042456060+1042562542+1042659379+1042822889+1043001675+1043166803
2707+1043359247+1043574994+1043755010+1043856185+1043846734+1043724458
2698+1043564961+1043447863+1043377501+1043348243+1043384816+1043441455
2690+1043409219+1043301702+1043302414+1043525605+1043806407+1043871137
2681+1043703032+1043595514+1043817022+1044323540+1044831805+1045110730
2673+1045161090+1045114161+1045034089+1044925794+1044857698+1044885597
2664+1044900355+1044713607+1044283731+1043808607+1043605094+1043799545
2656+1044095105+1044056267+1043673968+1043355428+1043322998+1043382809
2647+1043349149+1043330377+1043459385+1043624449+1043663287+1043632605
2639+1043683483+1043789382+1043789771+1043638431+1043451035+1043342482
2630+1043312641+1043269077+1043145830+1043007695+1042997920+1043184151
2622+1043497965+1043793525+1043943506+1043943830+1043929848+1044039955
2614+1044299137+1044640850+1044949551+1045114678+1045152546+1045210480
2605+1045365639+1045538470+1045662430+1045783929+1045951387+1046165969
2597+1046458293+1046826287+1047091295+1047020609+1046642258+1046312131
2588+1046374273+1046800913+1047257523+1047492301+1047535088+1047537160
2580+1047601308+1047759380+1047939655+1048028271+1048069893+1048211653
2571+1048428307+1048637905+1048979553+1049545753+1050058549+1050277662
2563+1050416121+1050750585+1051166156+1051375689+1051286490+1051001610
2554+1050638083+1050228014+1049810954+1049572745+1049656183+1049827331
2546+1049668741+1049144034+1048664380+1048569679+1048756297+1048815655
2537+1048497504+1048023675+1047848579+1048098957+1048455105+1048596283
2529+1048528057+1048432514+1048439829+1048640753+1049107720+1049743699
2520+1050256107+1050434893+1050344982+1050166520+1050046509+1050143282
2512+1050539498+1051063364+1051401840+1051386564+1051088220+1050776024
2503+1050786510+1051207454+1051737987+1052069537+1052255508+1052494688
2495+1052767334+1052905987+1052872586+1052770506+1052662988+1052500903
2486+1052237060+1051928101+1051640308+1051297300+1050745536+1049987993
2478+1049273819+1048905243+1048948677+1049189346+1049410854+1049600126
2469+1049781178+1049867335+1049816197+1049668158+1049325863+1048639717
2461+1047810776+1047329568+1047408216+1047743133+1047871235+1047612830
2452+1047212147+1047104047+1047469063+1048026006+1048331988+1048213854
2444+1047845148+1047510749+1047391904+1047530492+1047891236+1048360663
2435+1048693573+1048627613+1048154690+1047575998+1047228200+1047232666
2427+1047502011+1047814919+1047902888+1047662478+1047288335+1047047472
2418+1047042229+1047331704+1047969107+1048665674+1048810995+1048195730
2410+1047369895+1046984036+1047091554+1047328597+1047486087+1047664550
2401+1047995453+1048379953+1048538996+1048306548+1047825988+1047424722
2393+1047342644+1047605256+1048089442+1048606381+1048925568+1048882587
2384+1048555697+1048212754+1048007622+1047878679+1047816472+1048038110
2376+1048727751+1049637605+1050093763+1049670100+1049022405+1049444125
2367+1051086408+1052529643+1052856209+1052791802+1052950263+1052779827
2359+1052038920+1051442232+1051347596+1051335232+1051074238+1050526487
2350+1049652882+1048550259+1047658724+1047588944+1048460802+1049553261
2342+1050335014+1051089126+1052102097+1053211904+1054064990+1054384306
2333+1054134834+1053493936+1052586865+1051457768+1050343947+1049588345
2325+1049248121+1049110762+1049147400+1049619934+1050552703+1051453301
2316+1051781550+1051474339+1050936815+1050654201+1050800945+1051182921
2308+1051529489+1051720186+1051702320+1051419706+1050978178+1050664558
2299+1050609278+1050590312+1050305302+1049720461+1049084676+1048670723
2291+1048522814+1048483716+1048455817+1048504883+1048691567+1049013084
2282+1049522709+1050283035+1051179943+1051925511+1052234859+1051967198
2274+1051212309+1050276238+1049501542+1049090761+1049046679+1049173681
2265+1049242684+1049303336+1049635793+1050227496+1050589664+1050373076
2257+1049907209+1049861897+1050560406+1051797345+1053103222+1054029323
2248+1054358544+1054183900+1053723212+1053058622+1052179385+1051324487
2240+1051036565+1051535185+1052190260+1052207608+1051813204+1052074845
2231+1053464030+1055165800+1055926191+1055321218+1054190179+1053812929
2223+1054599148+1055782424+1056468570+1056599455+1056683864+1056961041
2214+1057187922+1057166561+1057174976+1057674955+1058689544+1059699472
2206+1060168317+1060143719+1060341601+1061427782+1063118418+1064337879
2197+1064383773+1063488612+1062249732+1061195722+1060894077+1061610905
2189+1062793146+1063693420+1064481452+1065827332+1067386500+1067758701
2180+1066215522+1063690831+1061893907+1061971131+1063944964+1066833182
2172+1069027876+1069048331+1066841467+1064261044+1063293643+1064002250
2163+1065394089+1067595839+1070988633+1073741823+1073312464+1070252710
2155+1067476993+1066937593+1068506341+1070559210+1071049480+1068985671
2146+1065371693+1062176586+1060229358+1058804182+1057249092+1056000891
2138+1055702547+1056180518+1056611366+1056265704+1055164441+1054235944
2129+1054462695+1055735106+1056949195+1057299582+1057104872+1057253041
2121+1058039324+1058757706+1058574388+1057490667+1055990987+1054216978
2112+1052336810+1051237877+1051719409+1053249254+1054537459+1055171949
2104+1055803527+1056860061+1057884424+1058221865+1057803899+1057093286
2095+1056551554+1056275608+1056037916+1055680150+1055408799+1055494826
2087+1055758280+1055683192+1055070905+1054339966+1054079878+1054352653
2078+1054570537+1054292907+1053963363+1054327602+1055283804+1055983802
2070+1055957650+1055532305+1055261990+1055297397+1055279143+1054901116
2061+1054515321+1054691971+1055269175+1055524926+1055130845+1054316339
2053+1053430047+1052867278+1053028458+1053943296+1055184960+1056261302
2044+1056994118+1057765449+1059278076+1061568571+1063597878+1064313411
2036+1063709279+1062637857+1061892354+1061506106+1060918481+1059959949
2027+1059208037+1059017405+1059053007+1059300667+1060243469+1061409074
2019+1061346998+1059927195+1058969504+1059594997+1060745067+1060927543
2010+1059907905+1058577042+1058162248+1059182145+1060620525+1060993050
2002+1060205602+1059175801+1058185875+1057073348+1056427725+1057014767
1993+1058495935+1059962603+1061125036+1061851185+1061554330+1060274151
1985+1059269661+1059502367+1060399599+1060734840+1060103715+1059392843
1976+1060122228+1062793340+1065700071+1066339869+1064264151+1061530056
1968+1060131032+1059875669+1059258915+1057639742+1055742680+1054695467
1959+1055050579+1056413290+1057871413+1058741199+1058855902+1058377154
1951+1057648869+1057066228+1056730146+1056442160+1056227318+1056439182
1942+1057085065+1057559023+1057401727+1056802062+1056283828+1056213337
1934+1056484105+1056648845+1056484558+1056366036+1056873266+1058019711
1925+1059118255+1059531820+1059415046+1059379120+1059527612+1059366627
1917+1058656467+1057900542+1057632104+1057689326+1057466199+1056744258
1908+1056008205+1055787732+1056102971+1056602433+1056899741+1056902330
1900+1056909191+1057097817+1057066681+1056350436+1055281797+1054754048
1891+1055150006+1055865474+1055954026+1055310603+1054735147+1054862990
1883+1055537160+1056184014+1056538220+1056748789+1056900064+1056810154
1874+1056452387+1056238517+1056591752+1057373052+1057899830+1057824742
1866+1057636764+1057792506+1058067159+1057933813+1057263592+1056373804
1857+1055502011+1054638051+1053713373+1052687909+1051629110+1050752462
1849+1050197202+1049856201+1049498564+1048914111+1048101482+1047380705
1840+1047003390+1046865126+1046643682+1046069068+1045061276+1043645810
1832+1041849792+1039844630+1038086868+1036812839+1035654613+1034117647
1823+1032060183+1029572453+1026726504+1023597423+1020161389+1016198706
1815+1011517771+1005970610+999176607+990550014+979535376+965657118+948554754
1805+927773615+902226745+870729960+834143725+796041950+759993821+727697547
1795+700167976+680006699+671803509+676653455+689595255+706502845+726029502
1785+746255381+764220735+778652376+790332639+800068069+808035963+814664838
1775+821164705+829095961+838736561+848096359+855804165+862347401+867910680
1765+872259805+876032115+880292041+884912647+889068615+893092857+897603162
1755+902104080+906101200+910197034+915109769+920394900+925003854+928691820
1745+931801417+934681415+937626726+940803513+943860484+946056538+947357948
1735+948754836+950987268+952821477+952923881+951602080+949237080+945597403
1725+939670791+929960153+916306769+900957376+887540259+881475383+888438851
1715+905155873+922305232+936151578+946912018+955268361+961933874+967674191
1706+972668875+976387782+978897261+981167302+983652701+985450790+986097255
1696+985966305+985293494+984531096+984372765+985132250+986364593+987606127
1686+989482799+992910807+996528605+998642903+999952469+1001333628+1003070482
1676+1005152026+1007191949+1008764969+1010102499+1011659013+1013126782
1667+1013854355+1014062205+1014298278+1014681160+1014977885+1015193114
1659+1015597552+1016300980+1017362434+1019135213+1021551739+1022922411
1650+1023053556+1023168323+1023857705+1024818373+1025352013+1025511638
1642+1025669970+1025964300+1026373528+1026875126+1027438088+1027880587
1633+1028062286+1028110058+1028232916+1028577672+1029072538+1029457945
1625+1029619965+1029681654+1029797651+1030000841+1030191473+1030039550
1616+1028979779+1026918171+1024431995+1022117356+1020644279+1020605247
1608+1021845746+1023539489+1025048102+1026256300+1027280081+1028209808
1599+1029081471+1029917273+1030717927+1031458640+1032123813+1032724320
1591+1033276408+1033793153+1034272742+1034675820+1034946006+1035036435
1582+1034880693+1034423047+1033647703+1032397883+1030397769+1028125787
1574+1026668117+1026095056+1025659354+1024485657+1022334592+1019924798
1565+1018063985+1017224816+1017548664+1019260985+1023073557+1027800969
1557+1030234713+1031235190+1032232496+1033293626+1034246915+1035104985
1548+1035821683+1036327747+1036756070+1037339294+1038132956+1038891406
1540+1039184118+1038988696+1038731262+1038642387+1038737865+1038805508
1531+1038618631+1038337635+1038253679+1038430265+1038724724+1039081714
1523+1039511073+1039756661+1039542273+1039009928+1038329673+1037503062
1514+1036570228+1035616875+1034714723+1033978606+1033599543+1033573586
1506+1033226694+1032263502+1031004878+1029295665+1026472048+1021505651
1497+1013381238+1002627206+991311312+979894437+966544252+950000319+934294196
1487+926767312+929000779+937667571+949250155+960803611+970044564+976309523
1477+980340691+982809778+983788959+983636648+983696394+984939612+987058182
1468+989541963+991873239+992809309+990903961+986158102+979552854+972450603
1458+968435100+971912497+980052445+988073418+994726049+999746496+1003103494
1448+1005316183+1007094076+1008843617+1010635751+1012171745+1012933690
1439+1012638583+1011364489+1009608734+1008285898+1007860034+1008179674
1431+1008994310+1009882091+1010255005+1009871152+1009059818+1008506823
1422+1008908736+1010808646+1014363073+1018364206+1020942494+1021786323
1414+1021412568+1019909522+1016815201+1011281828+1001953036+986737765+964771732
1404+940406844+921431497+912870735+915498218+925605461+936696222+945502896
1394+953636565+963200200+974197231+985764151+996936343+1006328377+1012721891
1384+1016034096+1016731310+1014669249+1008536405+995591822+971325066+931770282
1374+881694366+836919635+808396319+794689661+793637723+807512680+836472282
1364+874654193+911637356+937441531+949871311+952550838+948069921+937575653
1354+923804135+911773938+906194477+908677352+917016023+926637721+932919575
1344+932550351+923501973+904733117+877942511+850594510+832901478+829810782
1334+839563625+857423726+878224672+897812954+913964230+926177939+934686464
1324+939791708+942013136+942463014+942653193+943678268+945515713+947310889
1315+948294342+948184624+946963415+944624112+941124189+936432056+930568427
1305+923590589+915529612+906346659+895911166+883978518+870215416+854305261
1295+836090759+815732182+793795860+771186468+749069742+728873186+712011685
1285+699289063+690638908+685463560+683096747+683110859+685469904+690486596
1275+698639038+710331470+725473984+742961042+760601448+775698844+785678374
1265+788361784+782216641+766909129+744048000+717389574+691678288+670703023
1255+656065344+647157172+642196148+639956660+641000507+647221903+660092822
1245+679286764+702766654+727895817+752431530+774797016+793886807+809034563
1235+820441793+829597236+838858125+850129355+863726812+878463399+892722209
1225+905424246+916233300+925264007+932812575+939193014+944585015+949029424
1215+952595243+955424492+957594005+959132977+960222071+961211350+962362715
1205+963639980+964719170+965037710+963649690+958979371+948950970+932096395
1196+909600476+886643675+870630663+866463043+873037932+884675603+895668167
1186+903250849+907308298+908681948+908062216+905791593+902067572+897109461
1176+891179483+884549961+877473408+870112623+862408183+854007306+844427682
1166+833356729+820744732+806671052+791326320+775202036+759184947+744314173
1156+731273594+720030392+710135336+701679826+696092403+695793995+702793647
1146+717585320+739251327+765953899+795067106+823818210+850591532+875087694
1136+896926597+914919008+927963923+935793747+938305103+934618432+923798310
1126+907381702+890758604+880354377+878612539+882388927+886286037+886535251
1116+881791527+871890257+857012816+837705984+814911138+789679765+762913240
1106+735297383+707300262+679180930+651061727+623056838+595501245+569281823
1096+545979684+527501534+515310836+509794585+510279094+515597917+524569169
1086+536109938+549280884+563360455+577809638+592203217+606234758+619730846
1077+632667985+645134662+657138708+668477711+678915404+688424924+697197162
1067+705515766+713656556+721815276+730076918+738451644+746939714+755553490
1057+764302295+773197715+782242728+791306189+800055706+808151443+815426395
1047+821701387+826398634+828403602+826532303+820537594+811801412+802911429
1037+796519209+794424201+797178621+804153481+814038698+825402105+836919247
1027+847450670+856240320+862960530+867162458+867663732+863455720+856174230
1017+850890782+852547370+860754249+868826101+869339933+861578012+852788880
1007+850840551+856396515+863682342+867210423+865203966+858174279+848030916
997+838806599+835438209+840448105+852271423+866963929+881156584+893495094
987+904076036+913293361+921285918+928056941+933790591+938858680+943450675
977+947304545+949763793+950058577+948011598+944912552+943228648+944791959
967+949325890+954965680+959967744+963722318+966456218+968551615+970322841
958+972022604+973726639+975385751+977082342+979002319+981165295+983373323
948+985327154+986743073+987584960+988208576+989057713+990202151+991290080
938+991897577+991789542+990835865+988910839+986152082+983234346+981091437
928+980387556+981342398+983791613+987161816+990610408+993493642+995708079
918+997535426+999264059+1001013405+1002747152+1004309233+1005551220+1006428192
908+1006735339+1005829821+1002958756+997658867+989720685+979808799+970824504
898+967267229+971620108+981741269+992745355+1001025834+1005864323+1008080183
888+1008429017+1007074463+1003572274+997238506+987899357+976166792+963160261
878+950800585+942244742+940535852+946045598+955845824+965939991+973810854
868+979013776+982098841+983495599+983258491+981191964+976745678+968928930
858+956529121+938306980+913219309+881257952+844692496+808394765+778284123
849+758461387+748780137+744651614+739994435+732203644+725190463+726610654
839+741093239+766418018+796120922+824515618+849055603+869625395+886955353
829+901587141+913746217+923753710+932099890+938995326+944223300+947651566
819+949536135+949990286+948324701+943143851+933125677+918392715+902283837
809+891421381+891858573+903997582+922062298+938672644+949207433+952642690
799+950499199+945822536+941799524+939971983+939478153+937798197+931681148
789+917297601+890864762+851389532+803459180+755262720+712304203+674689073
779+642028689+618744092+611643071+622938187+647849272+678697327+709497156
769+736944843+759058269+774122846+781407767+783044288+784279285+790491423
759+803573689+821407121+840393731+857889075+872652849+884207665+892388911
749+897381394+900118984+902458740+906413525+912901870+921267793+929916913
739+937444897+943500970+948691853+953637472+958349412+962471980+965608440
730+967161200+965810789+959183208+945235235+925716345+907909710+900702143
720+907207900+922103402+937529759+949415931+957417808+961640061+960799210
710+953426579+940929609+928883164+924030628+929372204+942222992+957025864
700+969641745+978964775+985456551+989617180+992161938+994138813+996029531
690+997621323+998953351+1000427722+1001947793+1002846643+1002919012+1002959792
680+1003655712+1004265669+1003203050+999334421+992030081+980875431+964204950
670+935703124+890940303+853095315+847236994+863793031+888902193+914475538
660+935495338+950695138+961038195+967775818+972530092+976777526+980997901
650+984939612+988243789+990802787+992833971+994553413+995942533+996920808
640+997603975+998397121+999746755+1001600448+1003170879+1003496474+1002456705
630+1001227081+1001328644+1003020833+1005064187+1006291092+1006796768
622+1006864347+1004607318+995602114+977478947+956204626+943547576+945864093
612+959057760+974698635+987624317+996835687+1002433467+1004651723+1004618192
602+1003802715+1002691095+1000558931+996069082+987696362+974689055+959242760
592+947474334+945786028+955132232+970527778+985736640+996995960+1003686524
582+1006969793+1008071121+1007800223+1007113236+1007223796+1008751635
574+1011120389+1013223942+1014375048+1014418677+1013511606+1012170709
565+1011088477+1010214289+1008223432+1003895021+998168427+993568859+991302055
555+990499524+990696888+992947444+997529017+1002557362+1006101561+1008187572
545+1009753601+1011031967+1011770350+1011925898+1011620758+1011135536
537+1011142851+1012418887+1015104563+1018300511+1020379402+1020075167
528+1017773085+1015563180+1015369829+1016861871+1018120819+1018006957
520+1016882003+1015874211+1016045488+1017677219+1019895281+1021191318
511+1020715936+1019305390+1018855835+1020220617+1021988412+1021776549
503+1018328539+1012298553+1005543647+999762550+995753325+993154453+990455184
493+986443888+982384821+981431144+984854620+990458032+995347658+998806801
483+1001744733+1004594630+1007184570+1009227017+1009655663+1006889462
475+1000800894+993676182+988087400+983220170+975435335+963356266+950710285
465+943096404+942611441+946857321+951945670+955292894+956975633+959798862
455+966188492+975289626+984119862+990800651+995928357+1000192426+1002774209
445+1002655946+999374101+992483649+981991129+968604824+953221965+937494545
435+924013863+914764690+911154465+915140063+927180035+943915506+960445392
425+973554196+982164478+987199813+991968846+1000726066+1011983444+1018626948
415+1019463851+1018055311+1017185784+1017006027+1016068403+1013833252
407+1011282281+1009883515+1010854799+1014713719+1020869866+1027721156
398+1032291660+1030863636+1024245118+1018159722+1016824392+1019396531
390+1021705215+1021261228+1019545217+1018565454+1017070369+1013625855
381+1009968377+1007581498+1006432658+1008438986+1016137794+1022299249
##END=
