##TITLE=X9575
##JCAMP-DX=5.0
##DATA TYPE=LINK
##BLOCKS=1


$$ === CHEMSPECTRA SPECTRUM ORIG ===
##TITLE=X9575
##JCAMP-DX=5.00
##DATA TYPE=INFRARED SPECTRUM
##DATA CLASS=XYDATA
##ORIGIN=Default
##OWNER=
##XUNITS=1/CM
##YUNITS=TRANSMITTANCE
##XFACTOR=1
##YFACTOR=9.046115e-010
##FIRSTX=3996.5625
##LASTX=399.65625
##MAXX=3996.5625
##MAXY=0.9713192011167645
##MINX=399.65625
##MINY=0.5993745341134525
##NPOINTS=1765
##XYDATA= (X++(Y..Y))
1765A000285534A000363745I99954438I99942248I99875634I99325718I99385545A000014661
1757A000373431A000749661A001122927A000814695A000002010I99180101I98411695
1750I97763339I97769203I98666952A000028366A001286268A001689513A001403222
1743A001050514A000570244A000163308A000195198A000234535I99793667I99742009
1736A000335281A000245868I99451962I99321435I99710646I99671112I99382910
1729I99302722I99865421A000853240A001180185A000881177A000819373A000534070
1722A000114879A000912343A002479531A003006254A002178086A000685880I99566742
1715I99668213A000778126A001878748A002409753A002348608A001656898A001732341
1708A002244239A002317311A002795605A003126569A003287142A003356524A002671007
1701A002626729A003013173A002799294A002843638A004063258A006733112A008367507
1694A004744163A001550420A001546993A002816294A004570873A006093717A006136941
1687A004374719A003089736A003398101A003504974A003316134A003641497A003910328
1680A004969440A006471266A006385872A006250337A005518170A003942877A003600778
1673A004331891A004561187A004187460A004924306A005423552A004764984A004088098
1666A003161622A002758443A003131708A003143700A002569010A001990234A001973564
1659A002582715A002667910A002533429A003282332A004728679A005750168A005098319
1652A004202220A004023395A004327937A004784356A004236087A004038088A006549279
1645A010321732A010613360A008450792A007793146A006409856A003954079A003900576
1638A005854801A007150194A006339486A004445682A002591873A001314271A001118908
1631A002409161A003215323A002495213A002516364A003998554A005514678A005514678
1624A004395474A003993481A004304744A004294663A003142383A002117269A002284827
1617A002987146A004303294A006326440A006840446A004981102A003347366A002953279
1610A003815776A005871603A008000699A008187365A008320857A008632252A006143200
1603A003502272A002938124A003245500A003627331A004551106A005464272A005952384
1596A007819568A009932981A008155803A004474344A003007967A003388151A003696450
1589A003256174A003074318A003688345A005353577A007369343A006325715A003544178
1582A002928768A004095017A004671552A004138570A004667138A006146693A007088191
1575A006665047A005383623A004784751A004765907A004290841A003539171A003297487
1568A003381431A003349078A003519272A004046522A004244125A004112478A004048696
1561A003745010A003260523A002786051A002758377A003554984A004579636A005089557
1554A004768542A003848655A003092109A002813263A002846208A003448441A004345332
1547A004516382A004053704A003427092A002467671A001853776A002349860A003007506
1540A002839355A002607358A003211962A003871848A003877119A003405810A002758443
1533A002220914A001990695A002223813A002831712A003718984A004444694A004302701
1526A003420635A002849041A003640312A005287688A005743711A004832258A004404369
1519A004359828A003932467A003989198A004282605A003848721A003272976A003093558
1512A003058175A003088616A003344466A003518350A002965666A002018962A001554570
1505A002025814A002938322A003091516A002608741A002569735A002879351A002855894
1498A002296819A001725950A001908597A002576455A003025889A003187978A003342424
1491A003431441A003225338A002776233A002261502A002495081A003437107A003725705
1484A003339195A003237857A003176250A002820511A002765757A002816492A002663100
1477A002844231A003365288A003467219A002934237A002658356A002913547A002992879
1470A003094151A003513408A003465572A003036498A003155429A003606247A003650986
1463A003339591A003108054A002831844A002375953A002297873A002838433A003314618
1456A002871641A002054213A002060472A002449354A002585878A002802918A003045195
1449A003110492A003306580A003736313A004060425A004204196A004138372A003560254
1442A002788291A002426358A002680759A003334188A003598142A003387361A003226260
1435A003097841A002827298A002423986A002307493A002771225A003267310A003324107
1428A003066148A002757257A002830329A003017060A003158855A003701457A003639323
1421A002678584A002457392A003034850A003294654A003210447A002864394A002621787
1414A003134871A003995787A004412671A004057196A003445475A003098302A002811814
1407A002828945A003204648A003024769A002595893A003091516A004011996A003801280
1400A002526643A002317904A003433418A004257633A004700939A004885496A004317197
1393A003622324A003813668A004343619A004246761A003928448A003955199A003613824
1386A002657170A002348015A002865776A002945767A002582847A002764966A003232783
1379A003471897A003691771A003882852A004134946A004220932A003575410A002924880
1372A003308688A003914611A004009031A004547218A005229177A004788309A004040065
1365A004170856A004740078A004816642A004321085A004091063A004269295A004258621
1358A004264815A004536808A004568303A004119067A003910064A004253482A004504917
1351A004650995A004633270A004095478A003144425A002073123A001597267A001840269
1344A002294052A002951434A003812745A004192270A003895437A004123942A005042116
1337A005555727A005670112A005696534A005635520A005681972A005529371A005288544
1330A005301327A005035527A004721892A004787321A004907174A005006141A004897357
1323A004507619A004310147A004421369A004537730A004564350A004085265A002953674
1316A001796716A000521222I98969056I97641904I96736579I95708501I93286854
1309I89391451I85400837I81853661I79014800I77340014I76282878I75482845I75402262
1301I76204865I78313008I81506883I83794312I84058860I82798586I80997028I79935873
1293I80230664I81508926I82827841I83631762I84366763I85199412I85631517I85573929
1285I85196447I84550068I83647181I82123084I79938048I78420738I79086686I81908349
1277I85453746I87921648I88802528I88726228I87754551I86144601I84859289I84692917
1269I85897250I88201020I90745881I92326708I92549877I91638687I89427690I86093865
1261I82383876I78429567I74284837I70811458I68372811I66349205I64809493I64507652
1253I65363626I66801274I68162294I68167235I65286337I59111147I50385629I39715373
1245I28013218I17172703I08883836I03999230I03016022I05686337I10765187I17229830
1237I24947235I33519363I41786618I48746093I54243541I58514647I61576478I63559761
1229I64455203I64600886I64738068I65133341I65952087I66780519I67488439I69057077
1221I71763894I74985509I77980397I80135915I81593001I82677678I83087776I82710953
1213I81641759I79553713I76554740I73235542I69423885I64614591I59448042I55584859
1205I53863752I54111300I56450057I60554990I65512998I70708340I75452601I79303661
1197I82581941I85241384I86827350I87936736I89218490I90356802I91242558I92080083
1189I92990943I93896400I94508187I95070424I95937072I96928714I97680911I97903223
1181I97771180I97468087I97301781I97843659I98647580I98911600I98808549I98816390
1173I99230243I99653453I99327497I99218185A000039963A000607932A000618211
1166A000503036A000319994A000157246A000274794A000819439A001429248A001816351
1159A001972312A001858850A001839017A002450606A003166894A003348815A003288987
1152A003353098A003513078A003363573A003087694A003063578A003104759A003271395
1145A003687818A003953156A003657970A003268496A003422875A004060227A004541881
1138A004414253A004039735A003913556A004019639A004036375A004247420A004766697
1131A004884508A004570807A004308038A004161038A004034662A003952300A003787443
1124A003458917A003375435A003743758A004206832A004522773A004591958A004400877
1117A004298155A004440740A004896895A005586564A005727106A005283009A005134494
1110A005266537A005429878A005918121A006479172A006668210A006532214A006456045
1103A006884724A007325988A007128977A006892960A007273737A007959386A008199686
1096A007883415A007531959A007255881A007305825A007793871A007827870A007266555
1089A007136027A007557129A007653065A007358537A007357747A007961758A008981929
1082A009847523A010296101A010363440A009939242A009669819A009931730A009529671
1075A008625400A008877231A009722926A010148178A010561900A010797588A010989393
1068A011515852A011857557A011952372A012056017A012266535A012641909A012884976
1061A012574635A011742974A011486136A012593348A013961747A014226558A013723291
1054A013727640A014560553A015333835A015270186A014986398A015555752A016224599
1047A015833741A015001619A014482408A014487217A015161598A015842768A015824780
1040A015439918A015601216A016544889A017279560A017385577A017587923A018020491
1033A018432499A018979516A019202355A018939060A019278195A020130742A020529441
1026A020308974A019708521A019794704A020914303A021393652A020671170A020373151
1019A020957593A021189327A020971430A021067168A021350428A021603181A021613855
1012A021075140A020448397A019737183A018368257A016951100A016193038A015489533
1005A014271494A012574503A010844238A009133015A005875820A000480304I94336873
998I87549370I79212404I70296200I62173111I54334798I46198861I37490737I28085499
990I19483523I13031334I08569015I05761451I03495173I00099873H95254010H89891307
982H85088865H81378217H79449557H80163737H83687126H89535832H96289533I02380054
974I07333713I11071442I13097421I13678239I13986340I14074698I13090305I10645465
966I07698808I06278159I05636590I04332434I03966680I05169959I08277518I14226047
958I21825575I28123452I31361473I32317204I33686657I36330945I39526006I43836647
950I48648774I52050597I54096277I55983162I58036749I60170128I62674796I66364821
942I70868650I74313894I76367283I78043651I79769172I81627198I83531939I84862847
934I85460072I86331266I88131507I90217840I90498663I88216702I86191646I86036541
926I86030348I85686140I85918072I86023561I86095974I86788739I87216364I87757121
918I88835934I89626809I90271672I91261468I92070595I91885049I91221869I91224768
910I92466065I94358419I95151271I95267105I97036575A000189532A002129261
903A002009540A001927375A003897743A006915494A008152245A008085829A008469834
896A008082995A007166403A006337839A004375641A002273231A001479061A001221169
889A001282973A002509050A003701984A003812284A004898081A006968404A006869569
882A005491616A005547755A005683949A005864618A007304376A007786623A006312208
875A005588145A007811134A010149298A008967170A006521737A006885449A010131113
868A013021895A013651801A011400413A006983559A004706803A006788657A009903068
861A009229741A006818900A009595166A015796645A018837194A017512480A014519438
854A012812497A012613708A012983415A013742334A013348906A011654287A011248999
847A011751013A011460703A011862235A013403066A014794857A015369745A014545991
840A012474680A010587465A010453577A011541681A012360362A012884119A013507898
833A013568912A012990202A013569505A015168781A015901278A016571838A017633388
826A017666465A017635958A018016669A018192661A018604735A018061672A016492507
819A015371195A014991077A015694055A016830785A017414305A017955919A018874817
812A019879570A020667349A020879184A019982622A018404035A017588649A017723657
805A018440999A020008780A021590662A020975317A017591944A015467130A019089157
798A024351707A023484466A018842136A016973634A017379251A016727997A014657147
791A014844735A019170201A022202778A021946598A021772715A020698646A018587604
784A018121368A018697772A018649936A019244064A020390216A019220409A015867542
777A013757752A014601009A016535599A018026948A019541358A019739950A018075574
770A015689179A012554143A010891349A013018732A015897259A015895216A015376267
763A017714762A020818302A022011039A022475166A023355322A023710929A022959588
756A021640541A020609695A020442533A020763021A021011952A020499725A019639534
749A019426578A019096207A017874544A016114958A014674410A014772652A016005120
742A016162663A014588292A012902964A012195901A012157553A011579041A009927777
735A008144998A007476941A008274998A009936540A011400281A012688559A014625322
728A016325213A017102251A017938326A019218235A020694100A022191643A023114626
721A022766333A021707748A021379485A021936386A022232890A022161597A022551598
714A022781158A021966300A020976701A021354118A022517533A021636324A019763143
707A019426447A019767887A019881613A020222790A021223722A021658924A020749645
700A019242351A017078333A014797031A013877012A014638896A016213859A018340122
693A020272603A021053858A021308983A021747216A022211805A022398800A022176093
686A022107304A023112979A024005127A022884276A021473708A020884389A020578990
679A020371569A019531079A017921788A017006513A017334842A017077872A015006165
672A012752274A011335314A010854318A010237393A008834732A007398005A006378954
665A006165339A006451433A006173312A004922922A003646308A003341897A004119594
658A004527847A004748841A006462766A007935534A007694114A007431214A007399257
651A007687459A008322834A009931796A013023213A015593770A015568469A015095644
644A015975997A018665486A022293903A024864395A026637291A028677963A029622032
637A029374748A027772572A026163807A026029854A027206711A030191320A032944853
630A030787622A027416240A026248673A026578452A026340919A026426708A027555861
623A027284065A026776714A027714853A028162903A027780874A028723953A032089538
616A036775816A036722907A035724611A036811265A035647454A033221261A033257500
609A035915428A039975555A041708852A039163793A037361049A037579737A038426553
602A039245563A038953605A037488744A037499615A038229279A036639161A035037381
595A034955084A034817572A033784618A032270076A030076474A026237340A020045547
588A012639009A008206868A008416332A008462784A005316086A001084777I97168223
581I94006239I93978499I98763414A006139576A011315613A015848698A022052220
574A026680383A028952263A031562288A035543875A041056938A042266806A038427541
567A035973411A034645864A033713260A033666873A035371376A039218811A044529791
560A046488957A044116596A043407688A044073438A044124503A044651621A046278505
553A048413927A050225895A049189515A045734387A042241307A038939439A037697548
546A039654870A044556805A048462948A040828367A023419103A003096260I92316693
539A001424307A015376267A021103209A020867917A015624541A004514273I87480713
532I68744891I57851269I60550180I72542777I86118574I91834116I86044843
525I79370868I80801204I90601187A000271895A005904350A003949137I93562866
518I90120126I94331207A000675272A008194151A013928999A009561430I80955781
511I18915224H29485410G64157744G76847916H32936848H90718883I30665874
504I56035940I73149754I84524503I91901456I92337778I83988687I69455710
497I58201144I60945980I73686228I86116466I93705979I96456943I93591726
490I84342449I70753277I59938196I58529011I64771738I73826310I81650391
483I87513724I91820807I95170116I98480879A001604252A003625091A004778162
476A005904218A007491173A009853849A012326165A014150850A015722717A017291684
469A018618045A019874826A021355304A022920120A024594181A026458401A028315833
462A029374089A028906601A027346199A025267245A023196396A021907262A021715523
455A022637716A024020479A024413841A023207003A021117508A018860585A016066134
448A013123036A012311471A014801907A019188321A023701177A027067683A028543878
441A028895861A029708348A031460620A032979511A033514075A033710690A034299679
434A035225628A035701022A035368543A034942697A035113681A035857379A036801447
427A037722125A039062257A041084019A042919840A043753477A043735028A043296268
420A042646529A041646915A039923700A037109284A033080718A028834056A025881206
413A024604394A024129263A023243705A021799071A021030665A021835838A023933900
406A026892351A030000701A031266970A029273673A026446475A025746923A026102596
399A025911581A024772545A021688508A016939371A012674919A010141326A008609585
392A006702275A003278774I97712010I90387638I81930357I71468247I57872486
385I43923885I37529019I45287012I64947334I87518270A005238534A015382857
378A017994398A013661355A005445296A000137611A001344185A004405621A004924701
371A003281608I99298571I93122789I88500226I88668838I91212183I90686975
364I86071133I82272390I83131000I85140704I83380788I82726371I90565014
357A003116290A012056741A014747350A012944408A009969683A007977835A004282407
350I90645860I58290359I11642509H74223774H66289327H82812570I01993808
343I07977324I06707036I15233633I36141775I58480912I73399740I76774746
336I68726771I55013265I40256592I19992588H87158792H45408002H13056124
329H08338153H28445735H51854657H62058084H63332260H70276845H87984721
322I10971883I33473042I52671674I67675368I79397159I89147659I97296378
315A003527311A008097096A011548796A011747521A002952488I85912076I76452215
308I85144130A001665990A013962735A021093458A026216387A030793289A034832002
301A038396507A041177780A042156770A038065740A023406320A002700592I92802696
294I99206062A010482108A018112736A022866090A027275236A031382343A034847420
287A037714482A039517358A040492527A039996377A037125164A035057609A036462576
280A038012633A036533210A033927599A032791923A033022142A034572528A038717917
273A044984628A050992259A055582931A058138466A056958776A050470874A038705332
266A026996061A024224935A032228500A044328300A053494621A056854472A056244860
259A053961318A047918897A034327484A014229061I95654274I87490333I91337505
252A001237641A009577705A010053231I98962138I80046436I66897671I71833342
245I91027098A011030970A025485077A035668275A042637502A046417203A047807938
238A048462817A050685806A053671337A052525580A045637002A038567886A037041023
231A040903613A047643016A055335977A061158787A062765444A058773051A045397822
224A019037829I84297578I56400442I49284479I61870084I83289333A003710484
217A017368182A024814517A030765615A038373643A047442646A055370371A060614670
210A063890050A065670919A066087342A064561796A060358820A055028864A051731147
203A051932572A053720952A053960396A053544829A055760834A058853766A057448271
196A047090201A025382882I96030043I76138448I82805505A009518338A036821083
189A054262500A062170788A064594214A064413413A063141279A061785333A060549834
182A056606727A047856038A038189481A032498516A032697108A037373305A040755229
175A034844785A010207281I57660716H84580393H17864826G74228402G57710759
168G76081750H24027694H78624881I22670348I53159720I74321208I88679512
161I91081787I67698759I06540400H30057992G95478183H24240518H80498259
154I21910376I28967368I00773135H47025267G81856198G24173195F92905270
147F83771827F75261702F63392714F62576735F85619706G31104601G82577493
140H23830486H52190036H73664633H92538692I10077693I24638607I34116851
133I45583319I65427605I81921791I95010003A006709523A014586118A019140090
126A021837946A022804154A022849222A022438795A018728147A007914910I89880155
119I70241577I59793370I65220579I81714238A001699462A019203080A025615539
112A013880636I83577864I50318026I46691453I82169471A022036670A030976265
105A003337284I53282143H97137996H46920963H20425632H29701989H64554186
98I05478982I40635787I67450289I88365284A005902505A017909203A020179369
91A013904027A002207868I80897996I53449305I44878034I67579301A001831044
84A029144990A045759294A053691895A055613175A048370044A026774276A000755723
77I94525318A014596595A040490945A055913566A062058908A059199160A043503360
70A023160815A012989543A018138236A031175252A042763615A051867012A060926592
63A069167623A073741823A069783297A051222808A026675639A017926729A020757947
56A010219010I78412963I22601230H37548209G55161550G27915207G51958319
49G67683571G44228855G09832550G08438520G39143219G65435083G69319351
42G68833941G90525644H31085740H70050909H99595289I23989989I46170265
35I64808900I78788996I86482220I90415047I97213950A002453044I90363654
28I57436164I17987430H89201178H81191288H92683452I15271322I40000676
21I60164132I74248927I90081844A008664538A019055224A017193376A005102603
14I80554842I42801123I08020878H94855640I06984497I30739144I55988236
7I81719971A003406271A016314539A028748993A041248348A038355985A023374430
##END=


$$ === CHEMSPECTRA PEAK TABLE EDIT ===
##TITLE=X9575
##JCAMP-DX=5.00
##DATA TYPE=INFRAREDPEAKTABLE
##DATA CLASS=PEAKTABLE
##$CSTHRESHOLD=0.93
##MAXX=3996.5625
##MAXY=0.9713192011167645
##MINX=399.65625
##MINY=0.5993745341134525
##$CSSOLVENTNAME=- - -
##$CSSOLVENTVALUE=0
##$CSSOLVENTX=0
##NPOINTS=57
##PEAKTABLE= (XY..XY)
420.046875, 0.80949670278386
448.59375, 0.797135772824612
483.2578125, 0.6954960246189215
491.4140625, 0.64086163223498
501.609375, 0.6584804672770805
538.3125, 0.9163619899775445
554.625, 0.899659039703957
575.015625, 0.854747535653791
603.5625, 0.742166461601968
619.875, 0.8563879753355095
638.2265625, 0.868240120125755
691.2421875, 0.5993745341134525
717.75, 0.7195987123409046
742.21875, 0.6854338662651285
762.609375, 0.934010031306534
791.15625, 0.883026065652952
811.546875, 0.951590301855778
848.25, 0.8587336564749085
870.6796875, 0.9381192353775645
901.265625, 0.8746667525098165
915.5390625, 0.8932951113706296
937.96875, 0.9265256547877525
960.3984375, 0.934483709407833
999.140625, 0.898100736032604
1027.6875, 0.8833099028894725
1068.46875, 0.7312319890925595
1094.9765625, 0.820217611896514
1103.1328125, 0.7836552875314605
1129.640625, 0.8889855765598665
1137.796875, 0.888574900126485
1147.9921875, 0.894208672192199
1180.6171875, 0.8480995321711186
1233.6328125, 0.9243311903159165
1311.1171875, 0.916482749280514
1390.640625, 0.8670963664342265
1411.03125, 0.866799774175556
1435.5, 0.691265883036456
1453.8515625, 0.895674052361049
1468.125, 0.885950149957782
1480.359375, 0.8664832732269935
1498.7109375, 0.8976610921297695
1549.6875, 0.93510890269849
1580.2734375, 0.8991643809481386
1745.4375, 0.907909992149342
1896.328125, 0.911979558858277
2257.2421875, 0.8966707017488935
2283.75, 0.89166301763461
2359.1953125, 0.81773865434482
2395.8984375, 0.7955601829321055
2801.671875, 0.9021706600630816
2854.6875, 0.862876119492348
2928.09375, 0.816878678185453
2954.6015625, 0.872504713837198
2987.2265625, 0.8907645366867455
3007.6171875, 0.885090651433287
3036.1640625, 0.8864612599783395
3052.4765625, 0.882360103331213
##END=


$$ === CHEMSPECTRA PEAK TABLE AUTO ===
##TITLE=X9575
##JCAMP-DX=5.00
##DATA TYPE=INFRAREDPEAKTABLE
##DATA CLASS=PEAKTABLE
##$CSTHRESHOLD=0.93
##MAXX=3996.5625
##MAXY=0.9713192011167645
##MINX=399.65625
##MINY=0.5993745341134525
##NPOINTS=47
##PEAKTABLE= (XY..XY)
3965.9765625, 0.9025881907377985
3052.4765625, 0.882360103331213
3036.1640625, 0.8864612599783395
3007.6171875, 0.885090651433287
2987.2265625, 0.8907645366867455
2954.6015625, 0.872504713837198
2928.09375, 0.816878678185453
2854.6875, 0.862876119492348
2801.671875, 0.9021706600630816
2395.8984375, 0.7955601829321055
2359.1953125, 0.81773865434482
2283.75, 0.89166301763461
2257.2421875, 0.8966707017488935
1580.2734375, 0.8991643809481386
1498.7109375, 0.8976610921297695
1480.359375, 0.8664832732269935
1468.125, 0.885950149957782
1453.8515625, 0.895674052361049
1435.5, 0.691265883036456
1411.03125, 0.866799774175556
1390.640625, 0.8670963664342265
1180.6171875, 0.8480995321711186
1147.9921875, 0.894208672192199
1137.796875, 0.888574900126485
1129.640625, 0.8889855765598665
1103.1328125, 0.7836552875314605
1094.9765625, 0.820217611896514
1068.46875, 0.7312319890925595
1027.6875, 0.8833099028894725
999.140625, 0.898100736032604
915.5390625, 0.8932951113706296
901.265625, 0.8746667525098165
848.25, 0.8587336564749085
791.15625, 0.883026065652952
742.21875, 0.6854338662651285
717.75, 0.7195987123409046
691.2421875, 0.5993745341134525
638.2265625, 0.868240120125755
619.875, 0.8563879753355095
603.5625, 0.742166461601968
575.015625, 0.854747535653791
554.625, 0.899659039703957
501.609375, 0.6584804672770805
491.4140625, 0.64086163223498
483.2578125, 0.6954960246189215
448.59375, 0.797135772824612
420.046875, 0.80949670278386
##END=

##END=

