##TITLE=M. Stahlberger MRO-26
##JCAMP-DX=4.24
##DATA TYPE=INFRARED SPECTRUM
##DATE=6/11/2018
##SAMPLING PROCEDURE=Diamant-ATR
##ORIGIN=Lara
##XUNITS=1/CM
##YUNITS=TRANSMITTANCE
##RESOLUTION=4
##FIRSTX=3997.453
##LASTX=373.96442
##DELTAX=-1.4165319
##MAXY=0.91574126
##MINY=0.57044518
##XFACTOR=1
##YFACTOR=8.5285051e-010
##NPOINTS=2559
##FIRSTY=0.8992188
##XYDATA=(X++(Y..Y))
3997+1054368595+1054985713+1055263381+1054895347+1054284310+1053861133
3989+1053554322+1053132333+1052693712+1052610265+1053108222+1053929345
3980+1054457634+1054288293+1053646924+1053189083+1053407975+1054179756
3972+1054853973+1054850059+1054246011+1053746236+1053893562+1054380476
3963+1054449177+1053937452+1053457246+1053498830+1053962682+1054548699
3955+1054997664+1055075939+1054783665+1054410249+1054144043+1053939409
3946+1053858617+1054071009+1054451134+1054623549+1054494814+1054348677
3938+1054341548+1054359580+1054406405+1054749629+1055487444+1056215685
3929+1056514739+1056495449+1056416196+1056146006+1055446210+1054644446
3921+1054387815+1054749419+1055181611+1055382471+1055613663+1055986310
3912+1056231060+1056226937+1056140974+1056102814+1056126227+1056302696
3904+1056672617+1056843565+1056339737+1055475144+1055088939+1055400153
3895+1055909782+1056210233+1056281800+1056271736+1056329883+1056553177
3887+1056860269+1056972789+1056717136+1056222604+1055685649+1055353817
3878+1055476122+1056002734+1056676671+1057281698+1057673494+1057702847
3870+1057295815+1056727061+1056437582+1056554016+1056984111+1057642953
3861+1058305078+1058592461+1058373779+1057927190+1057517922+1056939383
3853+1056032437+1055644344+1056120986+1056810648+1057206288+1057221943
3844+1057054629+1056894444+1056641587+1056072623+1055418394+1055402599
3836+1056248812+1057346764+1058146291+1058533684+1058657597+1058722943
3827+1058779483+1058640265+1058101213+1057201955+1056288719+1055913486
3819+1056217502+1056773607+1057233544+1057515755+1057667064+1057717733
3810+1057656301+1057513728+1057438109+1057599482+1057852549+1057792514
3802+1057400229+1057415115+1058219255+1058934566+1058706659+1057874564
3793+1057458796+1057803697+1058494756+1059111385+1059469984+1059410718
3785+1058895568+1058305847+1058113094+1058313395+1058531029+1058496434
3776+1058216040+1057834308+1057571946+1057563629+1057665177+1057717244
3768+1057880085+1058216739+1058459812+1058634254+1059141367+1059923492
3759+1060240647+1059685032+1058911223+1058574010+1058488397+1058082203
3751+1057352914+1057392681+1058764178+1060562065+1061492005+1060832605
3742+1059497171+1058772844+1058834835+1059306794+1059678043+1059612557
3734+1059324965+1059178408+1059246270+1059515831+1059863737+1059956759
3725+1059627094+1059290440+1059457124+1060004283+1060441018+1060606375
3717+1060765581+1061155840+1061640588+1061733121+1061113487+1060343453
3708+1060167124+1060412573+1060524535+1060281322+1059840604+1059445104
3700+1059186375+1059108380+1059355856+1059974650+1060692687+1061143330
3691+1061318471+1061631852+1062270216+1062729804+1062732740+1062619799
3683+1062597994+1062379242+1061625073+1060537674+1059750727+1059780639
3674+1060455904+1061040104+1061089725+1060536556+1059571672+1058637399
3666+1058100724+1058016718+1058115470+1058058231+1057904127+1057966258
3657+1058208003+1058337367+1058480220+1059021438+1059894907+1060431583
3649+1059875478+1058711412+1058215621+1058583725+1059190289+1059496332
3640+1059451463+1059388214+1059521771+1059650227+1059467747+1059138432
3632+1059237185+1059907977+1060265318+1059481935+1058496084+1058280967
3623+1058591762+1058866075+1058871107+1058764457+1058830572+1059213213
3615+1059935233+1060924788+1061879817+1062328643+1061967458+1061008724
3606+1060152797+1059834873+1059798112+1059620734+1059227190+1058796816
3598+1058404600+1058103729+1058196961+1058935475+1060055302+1061047582
3589+1061602149+1061612493+1061201338+1060709181+1060312283+1059982967
3581+1059779591+1059879881+1060299284+1060694714+1060640271+1060121207
3572+1059528411+1059075742+1058532706+1057751280+1057189794+1057277854
3564+1057583198+1057578934+1057304272+1057024367+1056887316+1056999207
3555+1057442162+1058043066+1058373080+1058165650+1057595638+1056999207
3547+1056514110+1056051726+1055535807+1055097046+1054926657+1055066924
3538+1055411615+1055763854+1055917749+1055858414+1055801035+1055879240
3530+1055952833+1055841151+1055601503+1055430485+1055424265+1055541468
3521+1055655037+1055575155+1055106900+1054234479+1053291680+1052774573
3513+1052844741+1053114302+1053070272+1052661423+1052314915+1052382637
3504+1052832091+1053456757+1054135866+1054790024+1055240527+1055295040
3496+1054937839+1054388653+1053954994+1053763778+1053651257+1053410700
3488+1053083551+1052827409+1052626269+1052330919+1051865460+1051272245
3479+1050677352+1050186663+1049687727+1048883448+1047651170+1046216563
3471+1044895806+1043861453+1043125105+1042495058+1041625852+1040345700
3462+1038849172+1037382278+1035887148+1034135177+1032058923+1029852954
3454+1027913822+1026624235+1025918149+1025198085+1024022976+1022766446
3445+1022183434+1022462919+1023087655+1023408864+1023191999+1022793284
3437+1022829626+1023574011+1024686639+1025540330+1025741121+1025433191
3428+1025179285+1025411386+1025973361+1026313439+1026085183+1025465060
3420+1024967802+1024973952+1025388951+1025827084+1026089097+1026239078
3411+1026262211+1026034374+1025618047+1025198225+1024743669+1024094332
3403+1023313675+1022628765+1022099848+1021644033+1021320658+1021297245
3394+1021495869+1021528717+1021130910+1020498627+1019999971+1019670725
3386+1019223996+1018545726+1017879616+1017406959+1016940451+1016245128
3377+1015399405+1014604211+1013892534+1013252772+1012757121+1012318569
3369+1011621779+1010569674+1009525536+1008825740+1008305908+1007641545
3360+1006906176+1006420869+1006271866+1006307789+1006383338+1006328685
3352+1005927524+1005164409+1004291638+1003551726+1002992896+1002526738
3343+1002015782+1001383079+1000717808+1000199443+999880122+999560870+998929774
3333+997941618+997000915+996516866+996375481+996166584+995743547+995186604
3323+994466121+993541493+992612252+991967179+991668894+991501580+991177995
3313+990594914+989881629+989189451+988565065+988096881+987957313+988166979
3303+988494897+988707359+988778086+988768721+988638868+988286908+987700402
3293+987010041+986431362+986126577+986089327+986233297+986556812+987034781
3284+987413998+987439088+987239905+987142969+987113127+986785349+986107707
3274+985588993+985723739+986386493+986994386+987215304+987337819+987824874
3264+988608466+989113342+989014729+988663119+988606929+988952598+989410649
3254+989776167+990098843+990459190+990840153+991240266+991698597+992151825
3244+992463738+992671797+993008871+993596355+994224306+994521403+994366809
3234+994086275+994113113+994498689+994984765+995478808+996096974+996801523
3224+997358466+997635016+997695260+997697776+997823506+998177772+998699701
3214+999264961+999843220+1000468515+1001116244+1001716099+1002251167+1002725222
3204+1003047479+1003139383+1003161677+1003384762+1003798154+1004138722
3196+1004329867+1004569236+1004986472+1005552152+1006283258+1007199918
3187+1008074646+1008550728+1008574350+1008479232+1008587909+1008944551
3179+1009462147+1010093801+1010784162+1011440627+1012022870+1012552068
3170+1013002501+1013286738+1013359422+1013287786+1013234461+1013365013
3162+1013685873+1013985556+1014056213+1013938241+1013841096+1013968782
3153+1014535300+1015629968+1016866719+1017556451+1017474401+1017070235
3145+1016747628+1016402867+1015878911+1015445531+1015562944+1016387492
3136+1017617533+1018697454+1019183391+1019086036+1018855822+1018917254
3128+1019259989+1019571133+1019635151+1019455607+1019078278+1018518259
3119+1017874025+1017381589+1017263197+1017494180+1017784707+1017884229
3111+1017857322+1017942516+1018189433+1018373660+1018264633+1017876471
3102+1017474401+1017374390+1017643183+1017958451+1017909668+1017465945
3094+1016946182+1016534887+1016112479+1015529468+1014741961+1013768132
3085+1012767115+1011967938+1011325450+1010558701+1009710531+1009306225
3077+1009711789+1010608252+1011296447+1011363680+1010917021+1010272507
3068+1009607236+1008952868+1008389355+1008108262+1008235739+1008616283
3060+1008879904+1008798973+1008500268+1008241610+1008097569+1007973028
3051+1007859948+1007973796+1008558276+1009502682+1010321010+1010712037
3043+1010994807+1011765680+1013178900+1014691432+1015559660+1015620952
3034+1015505146+1015938247+1016966170+1018055736+1018783907+1019167316
3026+1019451973+1019820356+1020277149+1020725695+1021064586+1021215895
3017+1021191154+1021147823+1021214427+1021344420+1021559817+1022095724
3009+1022976392+1023766554+1024117326+1024277231+1024727245+1025542497
3000+1026407510+1027111499+1027761814+1028547363+1029511967+1030583991
2992+1031607022+1032290744+1032405431+1032118468+1031883851+1031928161
2983+1032046622+1031920403+1031505474+1031085932+1030930918+1030938606
2975+1030779819+1030354616+1029834853+1029283082+1028506199+1027289436
2966+1025619654+1023684295+1021665140+1019525706+1017104969+1014363863
2958+1011335584+1007927670+1004032631+999740274+995224553+990508112+985438453
2948+979816673+973517042+966530055+958908758+950738206+942176207+933393149
2938+924454170+915404977+906435806+897797208+889667122+882285194+876038818
2928+871216845+867829617+865786001+865046158+865495194+866906107+869183642
2918+872468133+876843936+882054281+887582620+892981315+898118068+903111478
2908+907988314+912509067+916475253+920046148+923520457+926974009+930376332
2898+933890268+937758679+941949488+946112340+949905691+953284812+956459438
2888+959636090+962865160+966084165+969195542+972129401+974905102+977552907
2878+979920667+981710867+982793933+983350247+983638398+983712411+983367230
2868+982282906+980194561+976949417+972447185+966607212+959440262+951154813
2859+942178653+933058662+924345423+916603219+910470762+906583690+905398028
2849+907081228+911469332+918079479+926203905+934973474+943403593+950761619
2839+957094447+963065251+969021938+974510790+978895959+982128872+984666602
2829+986888434+988841335+990426901+991647718+992686124+993798963+995104904
2819+996463681+997638930+998594518+999526974+1000554128+1001536554+1002334544
2809+1003062855+1003870349+1004611659+1005010793+1005064328+1005020159
2800+1005017223+1004992483+1004898552+1004806089+1004807767+1004966135
2792+1005330185+1005909912+1006646330+1007434675+1008148448+1008691414
2783+1009099914+1009547481+1010152368+1010794855+1011228864+1011387162
2775+1011484937+1011775953+1012311720+1012984120+1013652745+1014152450
2766+1014339822+1014251273+1014087943+1013995480+1013976330+1014029166
2758+1014235058+1014634892+1015080572+1015332591+1015322877+1015203367
2749+1015116914+1015109926+1015246348+1015532822+1015783024+1015846553
2741+1015863186+1016028333+1016271756+1016382180+1016296287+1016139037
2732+1016080331+1016185164+1016371557+1016523355+1016613372+1016702061
2724+1016902502+1017315963+1017893244+1018427544+1018774751+1019009228
2715+1019304787+1019706368+1020041484+1020095858+1019924980+1019862919
2707+1020114938+1020501981+1020716470+1020674257+1020528958+1020485907
2698+1020652032+1020935571+1021046554+1020744915+1020156871+1019719227
2690+1019712868+1019972364+1020147156+1020094670+1019901777+1019695326
2681+1019581057+1019634662+1019797713+1019842302+1019550656+1018942205
2673+1018276514+1017812104+1017573853+1017381729+1017081277+1016686965
2664+1016310265+1016021624+1015801265+1015573707+1015311694+1015146338
2656+1015333360+1015996534+1016929269+1017747247+1018239893+1018507846
2647+1018777267+1019156204+1019565053+1019838178+1019875638+1019718319
2639+1019483563+1019251532+1019086385+1019117905+1019452253+1019993681
2630+1020492896+1020768537+1020794396+1020641479+1020471160+1020502471
2622+1020855828+1021408229+1021838673+1021906675+1021719303+1021595111
2614+1021642286+1021696869+1021685757+1021739711+1021928480+1022205170
2605+1022571387+1022972338+1023109460+1022715567+1021951544+1021234415
2597+1020778880+1020618835+1020910621+1021743695+1022670699+1022909299
2588+1022197622+1021150479+1020570193+1020634980+1020972053+1021335964
2580+1021830357+1022485983+1023027201+1023194794+1023052082+1022894622
2571+1022980795+1023305778+1023608675+1023717492+1023798214+1024050652
2563+1024336357+1024361517+1024075952+1023697853+1023500068+1023643969
2554+1024057850+1024487247+1024829422+1025323535+1026168420+1027054400
2546+1027404193+1027079560+1026555185+1026348244+1026531143+1026843266
2537+1027034062+1027041610+1027001564+1027122192+1027484914+1027994613
2529+1028534993+1029011424+1029203339+1028845508+1028027251+1027276087
2520+1027036928+1027241562+1027526219+1027688081+1027788022+1028006075
2512+1028502774+1029234998+1029862739+1030041724+1029824090+1029520634
2503+1029209629+1028722993+1028137955+1027888242+1028253760+1028954675
2495+1029344863+1028947196+1027889570+1026893586+1026708940+1027486103
2486+1028705381+1029652304+1029927386+1029630289+1029163782+1028857599
2478+1028769679+1028747804+1028607677+1028349508+1028253062+1028569518
2469+1029107381+1029439982+1029565013+1029913758+1030571131+1030977255
2461+1030723279+1030220360+1030168432+1030649826+1031122483+1031084604
2452+1030472518+1029605129+1028945869+1028779743+1029029176+1029452632
2444+1029937520+1030470631+1030948530+1031211102+1031196845+1030940144
2435+1030495022+1029990705+1029649508+1029569835+1029589823+1029518747
2427+1029372889+1029301532+1029463534+1029994409+1030849358+1031703678
2418+1032210861+1032319677+1032207436+1032040472+1031920054+1031911947
2410+1032002383+1032109452+1032224769+1032415914+1032589168+1032455681
2401+1031953111+1031481781+1031465218+1031916350+1032622575+1033381287
2393+1033906082+1033964439+1033704523+1033431887+1033154918+1032752778
2384+1032365874+1032215124+1032293819+1032552896+1033100474+1033914958
2376+1034612377+1034837699+1034768998+1034879352+1035153037+1034956440
2367+1034015737+1033022758+1032671917+1032714129+1032657520+1032586583
2359+1032665277+1032788841+1033025763+1033470465+1033831860+1033905802
2350+1033907340+1033992534+1034027968+1033915657+1033809566+1033795518
2342+1033703824+1033574739+1033760224+1034353510+1034955741+1035120049
2333+1034779971+1034252101+1033933688+1033939139+1033980234+1033674051
2325+1032979078+1032345956+1032407108+1033363675+1034720635+1035794126
2316+1036405303+1036879498+1037430711+1037831173+1037784767+1037376477
2308+1036985519+1036893755+1037081896+1037362919+1037660924+1038078230
2299+1038675988+1039302750+1039709712+1039737318+1039437566+1039118034
2291+1039155984+1039645624+1040333959+1040921373+1041274172+1041418422
2282+1041531502+1041776392+1041950415+1041635077+1040969177+1040781177
2274+1041501450+1042388128+1042355001+1041245378+1039887370+1039206094
2265+1039579789+1040792778+1042305240+1043532766+1043979635+1043453512
2257+1042400708+1041701681+1041833771+1042529653+1043351684+1044046099
2248+1044264851+1043658286+1042527487+1041868855+1042350039+1043479790
2240+1044197408+1044141008+1043785344+1043531298+1043425137+1043621804
2231+1044250384+1044940675+1045227848+1045181791+1045118821+1045168931
2223+1045572119+1046781963+1048729203+1050385776+1050587056+1049233381
2214+1047438638+1046405193+1046224251+1046000817+1045111063+1043901569
2206+1043039002+1042777688+1043167458+1044237384+1045478818+1045834342
2197+1044761899+1042918794+1041515428+1041210014+1041586574+1041570849
2189+1040577102+1039161785+1038277413+1038347232+1039412336+1041435195
2180+1043877947+1045495521+1045079054+1042641755+1040015825+1039696853
2172+1042434465+1046291834+1048617591+1048768061+1048464744+1049702404
2163+1052963133+1057473542+1062005967+1064673061+1063663029+1059543367
2155+1055081880+1052478944+1052152214+1053733866+1056634248+1059447620
2146+1060333599+1058836862+1056632851+1055816690+1056779897+1058142517
2138+1058555070+1058006514+1057323980+1057035200+1057047221+1056986767
2129+1056590638+1055945565+1055380095+1055081321+1054977955+1055011152
2121+1055303287+1056006298+1057067489+1058141399+1058720218+1058409842
2112+1057282117+1056045925+1055581165+1056028383+1056604406+1056591966
2104+1056127625+1055765951+1055770633+1056056199+1056410535+1056644802
2095+1056752640+1056870542+1057012766+1057033663+1056913594+1056925265
2087+1057395337+1058321432+1059301832+1059901896+1059984645+1059655119
2078+1059100762+1058571005+1058309831+1058446184+1058940018+1059433782
2070+1059338314+1058577784+1058042856+1058556888+1059640932+1060233728
2061+1060348136+1060903192+1062094655+1062982662+1062788581+1061936847
2053+1061553926+1062205709+1063361948+1064146099+1064400005+1064422440
2044+1064035046+1063070582+1062333325+1062740777+1063886253+1064588635
2036+1064478840+1064253379+1064642100+1065623058+1066497366+1066513441
2027+1065563723+1064408252+1064184678+1065678480+1068769659+1072139763
2019+1073741823+1072489417+1069713087+1067813860+1067342740+1066856524
2010+1065605726+1064591361+1064566550+1064867561+1064990355+1065410247
2002+1066251777+1066900205+1067169906+1067472803+1067878018+1068119204
1993+1068133042+1067673943+1066093619+1063379909+1060757754+1059793080
1985+1061053942+1063397102+1064728482+1064100252+1062797247+1062560813
1976+1063562249+1065218193+1067365874+1069455896+1070387513+1069785282
1968+1068144714+1065769615+1062706112+1059475226+1056969225+1055840941
1959+1056205411+1057527566+1058847974+1059520024+1059616331+1059329997
1951+1058427803+1056793455+1055081460+1054265929+1054647731+1055545522
1942+1056025937+1056013217+1056230292+1056972789+1057633378+1057521136
1934+1056711895+1055888815+1055632184+1055949269+1056347495+1056375800
1925+1056041941+1055633162+1055291266+1054880321+1054196669+1053218087
1917+1052155219+1051217103+1050480056+1050054713+1050109087+1050660299
1908+1051450461+1051988884+1051836387+1051077395+1050321059+1050040526
1900+1050250681+1050878911+1051826393+1052642553+1052825732+1052465875
1891+1052106856+1052147322+1052538699+1052952929+1053278331+1053817523
1883+1054795196+1055804110+1056159005+1055763714+1055245350+1055237662
1874+1055816830+1056628378+1057330899+1057870930+1058474000+1059278069
1866+1059979333+1060164398+1059850388+1059457124+1059240050+1059054775
1857+1058829524+1058778994+1058989709+1059257243+1059412256+1059477182
1849+1059517299+1059514713+1059329298+1058866984+1058417809+1058341700
1840+1058514046+1058654941+1058787940+1059058898+1059344184+1059441889
1832+1059450485+1059673360+1060222406+1060920664+1061601590+1062211929
1823+1062714499+1063063243+1063263055+1063427993+1063713908+1064139740
1815+1064561308+1064869098+1065121886+1065426251+1065701264+1065761857
1806+1065670373+1065753680+1066175738+1066634977+1066709129+1066500092
1798+1066507081+1066920543+1067503554+1067942805+1068047219+1067836574
1789+1067569879+1067521865+1067725102+1067952380+1068020801+1068015210
1781+1068051552+1068069653+1067983550+1067833988+1067732370+1067772766
1772+1067995781+1068391141+1068907549+1069415081+1069774729+1070028215
1764+1070363961+1070864364+1071363090+1071632441+1071639150+1071554725
1755+1071526909+1071365886+1070664971+1069371051+1068105925+1067331908
1747+1066672088+1065672050+1064384210+1063051712+1061617036+1059908955
1738+1058126373+1056517814+1054972574+1053518958+1052718383+1052640317
1730+1052708948+1052533457+1052085540+1051501899+1050941601+1050531774
1721+1050282970+1050093082+1049896485+1049827016+1050076448+1050541558
1713+1050972981+1051198582+1051129043+1050724946+1050067712+1049499936
1704+1049388324+1049665992+1049921296+1049836241+1049586738+1049463944
1696+1049485959+1049630139+1049772852+1049615532+1049018403+1048341670
1687+1048097549+1048297640+1048422601+1048168835+1047984329+1048222580
1679+1048866325+1049722462+1050481314+1050890792+1050980669+1050858783
1670+1050493335+1049973712+1049614484+1049489243+1049393705+1049198297
1662+1049041396+1049051670+1049095770+1048998135+1048478303+1046556502
1653+1042278962+1038240581+1036667596+1036652569+1037707540+1039693498
1645+1041467065+1041671909+1039459091+1034310458+1025642018+1011409946
1636+989791123+967873037+956080431+953355958+953919961+953288446+949069193
1626+942149090+936001746+934926229+941212581+952700402+966379445+980933006
1616+993959847+1001871461+1004550995+1004134878+1002468381+1001348484
1608+1002342232+1005925847+1011413091+1017569240+1023067108+1026658340
1599+1027421106+1025014767+1019427442+1010400753+997276347+979325704+956337622
1589+929513835+901794215+876834571+857783531+846803591+844628024+849943272
1579+860313293+874679832+893335861+913122061+928538818+938819800+945048354
1570+946522727+942651939+934651706+924194044+913779505+906090905+902061959
1560+902120176+906974578+913354511+917875054+919524219+917047642+909405029
1550+897445179+884111037+871657843+859989079+848897807+839530689+832914113
1540+830460879+833424860+840077918+849101882+860122497+870675207+877058565
1530+878352694+874889218+866877942+856370101+845970797+835534801+824457995
1520+814822505+807517804+800325484+791688285+781851096+771045738+759522693
1510+748135511+736877834+725745187+720189801+723531321+731529039+741189619
1500+751711438+762879029+774522773+785931340+796105882+805071978+813783329
1490+823056726+832616876+841488622+849381297+856714513+864137884+872093459
1480+880339981+888372083+896174951+903995081+911887547+919581947+925996894
1470+930066236+932142001+932824954+931899138+929241339+926177137+924148407
1460+922868535+920002817+911011701+894607207+877155081+862159544+849470405
1451+840014599+835506286+836515619+841829540+849479491+857825394+865607924
1441+871985761+876760140+880070979+882196784+883828197+885577023+887284615
1431+887904108+885729171+879205337+867004441+848543820+826844696+808255829
1421+797641967+797463261+807980677+824938480+843477236+861693945+878866726
1411+894332684+907686325+919017386+928969472+938127063+946247645+952865479
1401+958155148+962517393+966061801+968600579+969646743+968660473+965609690
1391+960506205+952368990+939594028+922278814+903441632+886021026+870988588
1381+858951721+850990276+847684538+848529633+852498754+858487240+865455846
1371+872956934+881188220+890113571+899021030+907294039+914947066+921774636
1361+926357870+926580815+920675286+907433887+886843407+861293832+835278169
1351+813267900+798217570+791382452+792436024+799825640+811432901+825442867
1341+841030152+857897869+874956661+890380895+903222042+913802777+922779986
1332+930485359+936788554+941210344+943093357+941565659+935532304+924261906
1322+908304631+889989029+873200077+862018998+858695788+862874017+872122183
1312+882632331+890604679+894281875+894960355+895971225+900211375+908118587
1302+917640088+925785201+930145629+929425356+923434004+913196143+900973162
1292+889790196+882442863+880309858+882642745+886995415+890671912+892164805
1282+891619463+890217006+889060627+888392141+887545090+885492598+881703021
1272+876900686+873026753+872017420+874179219+877552259+878811444+875006142
1262+864873324+849108591+830017714+810966324+795701925+787581693+788618003
1252+798577567+814929365+833970621+852395179+868151035+880200692+887937026
1242+891049661+889797045+885233730+879201423+873951521+871316087+871899867
1232+875052618+879614815+884595785+889284131+893172042+896066833+898143297
1222+899721944+901053045+902323133+903742713+905542069+907902281+910896944
1213+914453442+918338766+922244358+925964396+929456527+932708589+935670684
1203+938339105+940739085+942800872+944398669+945479218+946011910+945890583
1193+945025011+943570906+942077733+941302737+941640999+942699883+943633666
1183+943907770+943612700+943207415+943221253+944099055+946014915+948734705
1173+951754947+954597322+956895613+958268298+958338676+956980528+954411418
1163+950907686+946506303+941151638+935130444+929139302+923715516+918635444
1153+913088794+906558251+899415552+892511943+886378787+881290118+878158753
1143+878689139+884033251+893439995+904541262+914757877+922275459+926283718
1133+927128253+926340537+925961670+927373004+930699917+935257571+940241617
1123+944853504+948134781+949050603+946666488+940202968+929315072+914766124
1113+898873984+885011344+876280074+874235689+878492542+887282029+898350937
1103+909652295+919710402+927791567+933902289+938486920+941925166+944292577
1094+945616270+946192782+946526920+947052903+947957613+949123007+950129894
1084+950318454+948916626+945417367+940240079+934957189+931414669+930455726
1074+931601412+933745249+935789425+936754448+935876716+933000934+928893573
1064+925063810+923183104+924402103+928776439+935113181+941582712+946832474
1054+950628411+953493360+955998521+958503054+961186153+963943193+966370988
1044+968127921+969240620+969915535+970194252+969906799+968767473+966350441
1034+962129651+955785151+947622566+938819241+931271467+926952553+927020764
1024+931219470+938015870+945436027+952035760+957327526+961507501+964958327
1014+967947818+970516159+972522944+973917295+974929703+975813027+976441816
1004+976369551+975264190+973217289+970813676+969015928+968740566+970276790
994+973068077+976089227+978504651+980095389+981147424+981987696+982694132
984+983193696+983435861+983444527+983336409+983309712+983501766+983815217
975+983950591+983707868+983269596+983051822+983222630+983539855+983757908
965+983999514+984568548+985533362+986669543+987752050+988714767+989553781
955+990291876+991034234+991867308+992735815+993585942+994514414+995626064
945+996881825+998121861+998967235+998570057+995672820+989140110+978693002
935+965462015+951815820+940180464+931683881+925940704+922008274+919218316
925+917182806+915630368+914653952+914831190+916673318+919880791+923215952
915+925135865+924705141+922161540+918786823+916209676+915638545+917484446
905+921508011+927221485+934091198+941390518+948019814+952574323+953709526
895+950754839+944377283+936834331+931362882+930757505+935869377+945092734
885+955296559+963413087+967407368+966452269+961207748+954244035+949271241
875+948879655+952854647+958862073+964503142+968513428+970580527+970919697
866+970201800+969327142+968930733+969255995+970408461+972322364+974535181
856+976403796+977480991+977454783+976013817+973144884+969502004+966338840
846+964963499+965986950+968975322+972916278+976980518+980839075+984478811
836+987836755+990555916+992176775+992604844+992215214+991475092+990689892
826+990152169+990315988+991644223+994265121+997791287+1001498884+1004804622
816+1007623444+1010103935+1012008333+1012727279+1012037756+1010408510
807+1008404311+1006189257+1003805213+1001718824+1000873800+1002007605
799+1004838727+1008104418+1010434509+1011077206+1010090097+1008227982
790+1006348883+1004507455+1001818276+997383556+991087839+983374149+974574668
781+964681987+953562130+941146396+927547446+913282456+899394865+887123940
771+877297724+870036703+865079705+862359006+862128374+864378931+868130069
761+871466557+872401808+869668949+862792876+851831876+837283068+819913131
751+800376713+779096361+756572480+734042867+714694939+704131396+707325451
741+723094866+742514640+754814778+754758238+743670110+725360310+703663701
731+683396177+670485421+668868894+677543135+691740892+707127456+722371937
721+738087747+754579602+770942512+785455887+796254256+802069138+803004110
711+800852865+798772487+800338554+807854388+820791842+836014238+849865975
701+860099993+866258379+869289104+871117882+873828028+878522524+884823343
691+891566418+897872688+903387678+907836166+910912249+912359435+911637485
681+907785217+899962921+888104060+873133893+856612335+840415900+826566538
671+816255224+809435202+806542157+809210160+816673508+826128546+835397959
662+842703708+847459007+850892501+854468009+858598923+862837325+866143971
652+866881646+863226815+854306007+841361425+827541556+816332241+810087473
642+809340153+812993796+819279100+826710998+834330199+841486246+847775603
632+853066880+857376359+860685031+862803848+863523702+863088016+862289048
622+861915912+862352087+863654115+865600306+867684388+869407355+870522850
612+870961960+870952595+871253257+872578277+874522232+875730609+875497110
602+874543199+873947887+874047199+874579401+874948414+873844521+869527075
592+861675774+852978261+847621429+847712564+851862697+857065354+861342684
582+864562179+867296366+869616672+870907168+870328629+867454874+862736336
572+857435694+853172062+851290937+852134913+854868402+858244028+861405654
562+863903757+865404268+865818499+865537057+865088721+864621584+864081484
552+863755383+864175485+865502252+867354653+869167986+870373847+870558702
543+870125252+870474207+872588900+875558193+877492504+877694971+876736797
533+874840785+871722699+867418112+861589951+852608969+839099336+822231200
523+805145012+791276710+784069155+785837060+795190619+807017610+816516398
513+822604406+827537083+834087545+842866129+852020645+859266220+863641185
503+865410908+865411607+864535971+863179500+861609100+860769946+861714213
493+864283533+867223961+869605770+871530645+873491933+875554699+877389208
483+879052420+881110364+883553884+885347369+885535160+884280587+882441605
473+880657206+879171091+878095713+877444840+877074499+877049759+878010519
463+880367377+883111908+884428472+883553395+881378178+879285080+877720271
453+876178316+874002540+870794996+866075620+858989181+849315951+838918045
443+831693995+831508581+839024066+851065546+863542293+873973466+881739363
433+886456503+886750665+881693096+872861956+863277694+854460531+846318843
424+839307604+834462987+831846982+831014467+832031768+834158831+835603012
414+835186126+833032924+830521472+829529401+831431144+836468864+843603106
404+851141165+857742855+862743115+865996785+868369787+870802894+871172046
394+867087958+861326121+859837491+864921337+872855945+878613379+880402182
384+879548770+878269107+878141421+879727266+882818724+886870594+890003147
374+888491104
##END=
