##TITLE=JB-255
##JCAMP-DX=5.0
##DATA TYPE=LINK
##BLOCKS=1


$$ === CHEMSPECTRA SPECTRUM ORIG ===
##TITLE=JB-255
##JCAMP-DX=5.00
##DATA TYPE=INFRARED SPECTRUM
##DATA CLASS=XYDATA
##$CSCATEGORY=SPECTRUM
##ORIGIN=Rieke
##OWNER=
##XUNITS=1/CM
##YUNITS=TRANSMITTANCE
##XFACTOR=1
##YFACTOR=8.7030311e-010
##FIRSTX=3997.453
##LASTX=373.96442
##MAXX=3997.453
##MAXY=0.9344808478939695
##MINX=373.96442
##MINY=0.6223877088368366
##NPOINTS=2559
##XYDATA= (X++(Y..Y))
2559A034920113A035379457A035941600A036472719A036715643A036483608A035882017
2552A035316860A035127698A035218307A035179064A034770263A034155933A033663373
2545A033496812A033656661A033959512A034177027A034229488A034135524A033877190
2538A033534206A033360180A033466952A033661455A033782472A033900202A034055187
2531A034176753A034346327A034709241A035118658A035208924A034799987A034097308
2524A033609063A033716656A034195930A034419061A034144016A033869519A034035875
2517A034420773A034635070A034650959A034714378A034957918A035147286A034968465
2510A034537407A034221407A034152920A034231406A034473988A034984149A035651352
2503A036208358A036451625A036309788A035860238A035333297A034970315A034842312
2496A034838956A034831970A034817383A034869159A034975725A035127356A035395415
2489A035554236A035189474A034347081A033555506A033381411A033919995A034542612
2482A034712118A034554803A034484603A034789440A035331448A035660323A035316654
2475A034431731A033710081A033581599A033951225A034430156A034756224A034922442
2468A035003805A035058252A035026474A034795809A034539598A034707666A035373977
2461A036118366A036474431A036249314A035567249A034856283A034595758A034669108
2454A034773551A034714446A034383653A033708574A032673732A031605126A031215297
2447A031936125A033289775A034443990A035167010A035531567A035521157A035204609
2440A034859502A034741567A034756771A034592265A034317357A034441387A035062772
2433A035535951A035728194A035919616A035990980A035821816A035583207A035360075
2426A035183995A035118179A034956343A034420842A033869519A034000467A034916758
2419A035968241A036833441A037418527A037452497A037016233A036549904A036252258
2412A035992007A035634641A035199266A034747183A034336053A034087788A034185519
2405A034725541A035534512A036231712A036533467A036434024A036276229A036555520
2398A037320111A037922319A037813493A037095405A036308897A035982008A036254039
2391A036786596A037038834A036881656A036567848A036169731A035499378A034490562
2384A033657004A033425243A033601734A034037313A034809849A035743330A036326293
2377A036305746A035809420A035247003A034973054A034869912A034863269A035205568
2370A035804215A036225822A036115832A035491023A034772318A034430635A034683696
2363A035394387A036018991A036008581A035348775A034518093A034090322A034460838
2356A035455684A036275270A036421696A036110969A035932834A036340128A037224572
2349A038032789A038398511A038284754A037863557A037548311A037702065A038144766
2342A038128329A037354286A036723040A036672839A036731738A036576682A036284447
2335A036009197A035848321A036022895A036606817A036773926A036043304A035329530
2328A035465066A036212262A036609282A036442311A036176717A036289583A036909256
2321A037663301A038079017A037947865A037230941A036161513A035306929A035141122
2314A035759904A036609282A036797965A036475321A036271298A036340607A036414642
2307A036141926A035556428A035060786A034842997A034663834A034313865A034061010
2300A034470769A035576974A036101655A035387469A034478508A034148810A034513916
2293A035382882A036351291A036998906A037368395A037760553A038102098A037955399
2286A037161288A036127201A035417536A035182830A035135780A035160093A035404250
2279A035813050A035982693A035692033A035186940A034806836A034680340A034724719
2272A034784851A034768140A034666437A034500561A034397282A034657328A035426234
2265A036301364A036492238A035752713A034848955A034613907A034996271A035452602
2258A035799558A036238150A036832962A037169850A036728793A035653475A034450017
2251A033498387A033000759A032924259A033059384A033267380A033631388A034283525
2244A035024282A035390278A035177420A034549872A033808840A033201837A032776737
2237A032443821A032260960A032452861A032990691A033425996A033461746A033273475
2230A033038427A032750986A032554496A032647296A032854813A032838376A032610656
2223A032487995A032691471A033142801A033527563A033588585A033423257A033379699
2216A033693096A034279142A034781084A034936482A034914361A035038596A035259673
2209A035233648A034942851A034675888A034478850A034144085A033653648A033239779
2202A032991308A032733727A032341912A031930578A031701899A031825381A032448341
2195A033465924A034291949A034368175A033850275A033313951A032989253A032658802
2188A032218703A031889896A031803945A031821957A031895718A032220484A032835020
2181A033405998A033647347A033680563A033711382A033622486A033225123A032734207
2174A032595999A032888508A033254915A033366685A033150746A032699210A032274931
2167A032241030A032688594A033271831A033583859A033496812A033098490A032575522
2160A032163844A032029131A032172748A032465394A032757835A033033016A033436406
2153A033987523A034358244A034242775A033849042A033640635A033770213A034034437
2146A034181890A034074091A033702137A033199509A032757629A032448889A032203636
2139A031986463A031929139A032202403A032695237A032940216A032592781A031950165
2132A031713884A032220279A033114996A033792607A033927802A033562491A032937203
2125A032367184A032136313A032256097A032355472A032066662A031466440A030863752
2118A030303184A029622695A028865500A028318835A028219734A028557513A029098083
2111A029594066A030043892A030640141A031384187A031939481A031993312A031608688
2104A031108799A030784375A030815880A031237350A031830244A032267192A032431014
2097A032385401A032092892A031517463A030958264A030886421A031378913A032000298
2090A032344857A032485324A032717564A033042125A033217658A033292583A033656730
2083A034447004A035306107A035867360A036108983A036112476A035822090A035208513
2076A034436799A033728299A033192592A032885290A032889878A033222726A033748160
2069A034256883A034558638A034530353A034206956A033843837A033745489A033960470
2062A034215311A034221201A034036697A034027109A034411322A034984354A035376786
2055A035455958A035367541A035294944A035330694A035492393A035674363A035636010
2048A035245702A034699379A034312426A034199696A034322288A034649520A035069895
2041A035326859A035266453A035058732A035003805A035129821A035123794A034769579
2034A034310303A034156755A034391461A034831423A035370759A035940436A036340675
2027A036442516A036395738A036404506A036458746A036433887A036318417A036188428
2020A036046454A035830240A035578550A035459313A035606492A035976529A036364578
2013A036550726A036493265A036345607A036257121A036266572A036371837A036535042
2006A036651744A036678249A036699480A036752352A036727697A036528467A036209112
1999A035939683A035893043A036108435A036449913A036785158A037131292A037532833
1992A037890062A038016215A037817260A037433184A037220736A037475509A038050528
1985A038419537A038290712A038006216A038084771A038533431A038893194A038891071
1978A038698006A038523774A038314203A037951221A037514067A037194643A037079584
1971A037120745A037201012A037160947A036911585A036608050A036523879A036628322
1964A036554013A036183497A035982213A036382179A037074516A037364423A037075201
1957A036601817A036242670A036031661A036075356A036470733A036953705A037077187
1950A036748448A036358345A036374782A036837687A037310318A037384626A037141702
1943A036951513A036934254A036879533A036626610A036264038A035952010A035744494
1936A035638955A035697923A035994952A036467925A036937816A037256418A037361683
1929A037248268A036962129A036571888A036103573A035563756A035004010A034466796
1922A033890477A033195468A032463340A031888800A031543351A031312617A031074624
1915A030787320A030426049A030008347A029668308A029528183A029513732A029392578
1908A028959876A028150562A027064423A025921372A024932005A024190288A023666293
1901A023279477A023026348A023015048A023270779A023571849A023678209A023662183
1894A023795323A024146046A024524985A024788113A024998301A025311835A025831927
1887A026570904A027451102A028284455A028822422A028956520A028834818A028675996
1880A028577238A028593058A028804136A029159174A029449422A029538387A029476954
1873A029401961A029419288A029492157A029447368A029212251A028975628A028989873
1866A029295874A029688785A029906986A029918081A029983897A030298116A030686165
1859A030888065A030965319A031180984A031605948A032081866A032536416A033111092
1852A033844933A034402350A034394063A033889929A033269023A032703867A032135286
1845A031547734A030898475A029986773A028687639A027154621A025616055A024142279
1838A022697472A021247803A019766219A018266006A016864278A015722802A014900955
1831A014322375A013926930A013811597A014112393A014740558A015419814A016048116
1824A016796271A017742490A018656315A019244894A019419879A019225170A018682546
1817A017818784A016779012A015781975A014898421A013943846A012722924A011307910
1810A009929673A008676083A007422219A005989124A004318583A002598458A001236589
1803A000572195A000536308A000696773A000699580A000541650A000327490I99942249
1796I99179233I98091519I96989423I96121073I95545781I95316828I95562149I96281950
1788I97278165I98446557I99929442A001764352A003586318A004930311A005694971
1781A006114044A006395184A006569347A006634205A006652628A006615439A006321218
1774A005565051A004409123A003135809A002032137A001309186A001057358A001156185
1767A001386987A001742779A002470798A003728840A005331715A006930069A008323990
1760A009479986A010329159A010735562A010667760A010285533A009812491A009382665
1753A009032970A008770184A008564517A008370561A008320703A008786553A009972067
1746A011492688A012590950A012747100A011978879A010699949A009428894A008501372
1739A007926970A007549468A007332363A007425712A007969295A008937566A010221018
1732A011790128A013648118A015638426A017484362A019059362A020457872A021757691
1725A022869855A023684236A024228573A024635318A025061788A025653655A026461599
1718A027329674A027988316A028315137A028449098A028599633A028825024A029048430
1711A029220059A029377716A029551057A029688785A029724810A029705633A029796721
1704A030132651A030696232A031368092A032025090A032529841A032722427A032543264
1697A032142820A031811204A031803739A032207403A032887070A033547766A033907941
1690A033885271A033636389A033402574A033311486A033352578A033462705A033548657
1683A033515030A033364084A033189099A033059521A033017812A033107873A033275324
1676A033379767A033405245A033497428A033724053A033952663A033996974A033808908
1669A033520098A033289570A033117872A032905767A032675445A032566139A032592918
1662A032570796A032338145A031995229A031836682A032019200A032418549A032870359
1655A033340867A033767063A034002111A034032451A034016425A034046148A034069982
1648A034063338A034143879A034461112A034947440A035268508A035206664A034985793
1641A034946139A035061129A035087496A034990313A034921141A034975794A035165435
1634A035434110A035613341A035531910A035216869A034861146A034597402A034411322
1627A034270307A034234693A034351806A034492000A034450017A034239624A034119018
1620A034256678A034518162A034686641A034738554A034760675A034729719A034597128
1613A034483165A034535147A034679312A034769031A034856900A035081127A035401921
1606A035664022A035813391A035904206A035966598A035940984A035749083A035461846
1599A035355898A035664844A036298350A036926447A037296826A037384695A037337986
1592A037371203A037596252A037915197A038158943A038258797A038178941A037885199
1585A037578582A037671930A038282151A038994624A039354935A039315761A039060303
1578A038699102A038308656A038057445A038145656A038651161A039433422A040194109
1571A040663795A040750910A040557160A040284512A040077955A039957075A039945706
1564A040169522A040648659A041094578A041175668A040985958A041002121A041471738
1557A042049360A042203661A041822804A041253264A040933155A041091155A041571182
1550A041916426A041884579A041776917A041964778A042334883A042550481A042585204
1543A042647801A042812581A042997017A043160154A043347809A043597376A043869956
1536A044073020A044118838A043966523A043682574A043493207A043642989A044094183
1529A044459904A044373405A043894885A043427323A043242202A043265966A043350411
1522A043481359A043585597A043453142A043101392A042954418A043395887A044331285
1515A045361881A046180098A046684370A046937704A047133029A047403075A047601345
1508A047431497A046857094A046255229A046065861A046306526A046531095A046337893
1501A045814376A045376401A045300859A045548235A045868755A045953131A045670485
1494A045280792A045228674A045630420A046121405A046275295A046042096A045687949
1487A045417835A045214565A045045744A045049100A045347635A045773763A045988813
1480A045888274A045690688A045583095A045504129A045381948A045377496A045700551
1473A046280089A046752172A046776759A046354467A045860400A045745889A046168524
1466A046863327A047346778A047283633A046752446A046198042A046074970A046473566
1459A047109949A047687160A048157461A048546195A048727138A048589958A048281149
1452A048037403A047872486A047637438A047372255A047403211A047959739A048767614
1445A049247641A049137650A048661252A048114108A047605728A047219392A047092211
1438A047241856A047469507A047538474A047422045A047323766A047417525A047629836
1431A047720239A047556349A047276236A047162684A047326163A047593880A047763112
1424A047801259A047715445A047461974A047107758A046892160A047011944A047426977
1417A047901182A048172186A048100068A047731745A047260895A046951949A047093238
1410A047848789A048994718A049949703A050274675A049985590A049252298A048158078
1403A046907706A045903684A045477419A045700551A046283240A046655673A046456718
1396A045849510A045238193A044993420A045360854A046156059A046717723A046750186
1389A046740255A047108511A047518612A047304932A046356247A045444271A045529264
1382A046574585A047371981A046976673A045820677A045044922A045166967A045693017
1375A045963678A045963405A045994429A046096270A046174003A046294335A046567051
1368A046953935A047289454A047398897A047312397A047352052A047729210A048136025
1361A048064798A047436291A046636292A046075450A045899027A045997991A046162360
1354A046252763A046265296A046253995A046231258A046167839A046098667A046141677
1347A046341043A046606226A046893187A047251033A047576690A047607235A047329040
1340A047129400A047294522A047552514A047424374A046958387A046793470A047468891
1333A048877536A050351997A051133642A050897156A049956073A048892329A048064456
1326A047592921A047540323A047842968A048233414A048449217A048491816A048530511
1319A048572288A048476612A048346212A048491200A048914382A049374411A049912994
1312A050618413A051034473A050669367A049867039A049466869A049805469A050488766
1305A050893115A050721485A050245157A050084760A050766208A052381753A054345761
1298A055592845A055586271A055039879A055070973A055807005A056366477A056088487
1291A055202537A054248030A053394953A052631595A052177319A052229369A052640635
1284A053359135A054689156A056418048A057260578A056148893A053810739A052235396
1277A052685631A054733810A056915676A057795942A056801371A054707032A053102239
1270A052940404A053774989A054526705A054713675A054665734A054686622A054687170
1263A054952627A056373052A058887834A060748153A060935191A060548581A060678570
1256A060843692A060181147A058910983A057779300A056901294A056060887A055448817
1249A055296090A055425052A055717013A056329425A057161819A057887647A058497799
1242A058966252A058709630A057305231A055406012A054221046A054299190A055166238
1235A055854124A055605173A054400003A052964991A052099654A052037879A052555505
1228A053422348A054442671A055307938A055751051A055738107A055401287A054966530
1221A054719496A054796887A055062275A055272120A055278147A055146240A055146720
1214A055369372A055433750A054994541A054312888A053877309A053774647A053816492
1207A053922784A054117768A054401099A054688198A054813324A054740933A054694019
1200A054852978A055174868A055705849A056635769A057787860A058522729A058566081
1193A058519852A058966321A059482714A059246913A058303570A057394881A056818835
1186A056354766A056003084A056050409A056753704A058339046A060661722A062821946
1179A063926371A064034992A063682556A063163492A063069527A064403795A067085002
1172A069385145A069839900A068808962A067688374A067576535A068607952A069737991
1165A069612386A068132651A066488615A065650400A065635059A066023861A066427934
1158A066540665A066129331A064944228A063058090A061613009A062248639A065058122
1151A068058822A069128250A067848633A065602938A064216825A064334966A065160305
1144A065704025A065701560A065256324A064403110A063182873A061388303A058645732
1137A055602776A054265084A056116841A060243881A063900277A065053808A064118957
1130A062795852A061998729A061658827A061683757A062067970A062493413A062650522
1123A062618607A062660111A063041310A063678516A063819394A062857970A061331595
1116A060253675A059803098A059519286A059279170A059279307A059465524A059701668
1109A060303191A061619721A063068363A063653518A063201571A062281787A061426245
1102A060888620A060788629A061011692A061211058A061240233A061314063A061614379
1095A062002291A062196521A062079202A061638624A060889031A060170258A060050679
1088A060639943A061490417A062142690A062544093A062904268A063215542A063130344
1081A062469922A061719713A061560274A061922161A062176385A062108378A061973252
1074A061868604A061758202A061765051A061865590A061674648A061011623A060276824
1067A060026982A060422769A061109286A061667799A062043246A062412803A062830438
1060A063204036A063511886A063813915A064034992A063953081A063625643A063386418
1053A063276701A063078431A062699970A062278226A062015988A062056122A062398147
1046A062866874A063288207A063648518A063978627A064212853A064286545A064274081
1039A064330172A064468584A064582889A064749039A065188796A065914897A066535666
1032A066640794A066281099A065881887A065846136A066127345A066358010A066453823
1025A066537789A066565937A066420744A066183162A066107347A066387870A066899470
1018A067280670A067356417A067303064A067372785A067605573A067893425A068134431
1011A068241477A068178880A068023962A067956639A068098339A068359001A068555080
1004A068579051A068428584A068295993A068508440A069041339A069577115A069922770
997A070064538A070051183A069986052A070030088A070212265A070393825A070496761
990A070525252A070483269A070465874A070617641A070923848A071303335A071634608
983A071789184A071843220A072005946A072262225A072431320A072534051A072632741
976A072692051A072801904A073135917A073608204A073741822A073213170A072264417
969A071221219A070123643A068871012A067584616A066560116A065784498A064968061
962A063937260A062780237A061891273A061400220A060940259A060167518A058934953
955A057053061A054325352A050982696A047288564A042463228A034233940A020546152
948A003950807I88214566I73217164I57797540I41755229I25087904I06896396
941H87441230H70054241H55854579H40781774H22202012H05688098G95017514
934G87403242G81818314G78351148G75594263G72273386G68620963G65450415
927G62279183G57454189G51147064G45337498G40188217G35522662G31976256
920G30773621G32913710G38478091G48434148G65333918G87345507H06924155
913H22244200H37003265H53792087H70598578H83632587H92723444H99507035
906I05253456I12165871I22684345I31616449I35621924I38718848I44090780
899I51378643I57204235I61086365I64323071I67404858I70355083I73609596
892I78035926I82858180I86172208I88274766I90154055I92199563I94298491
885I96248802I98176169A000382554A002679136A004529935A005978508A007592135
878A009607920A011419955A012745388A013919191A015162987A016424659A017420737
871A017670510A016486914A012773331A004927024I91405933I71571416I46072800
864I17411650H90719576H72248983H65410465H69121445H79519107H92043982
857I02946806I10022290I12679252I11983558I10208507I09688004I12794173
850I22170622I35781089I46854172I54362494I61175193I68563047I74683955
843I77892719I78738536I78194884I77077104I76317581I77759237I82799349
836I87722142I91302175I94748658I98018512A000896619A003500435A005720517
829A007449545A008980098A010544345A012054626A013896453A016467258A018342027
822A019073539A019507954A020260765A021374984A022347777A022987105A023558836
815A024226929A024817631A025215405A025726936A026660143A027824495A029024596
808A030304006A031353230A031744772A031591771A031317411A031228652A031564856
801A032784750A034454332A035331516A035626422A035904412A036472445A037369491
794A038322833A038907714A039064755A039119613A039404041A040089803A040968357
787A041575770A041783424A041715964A041533171A041387020A041275659A041018558
780A040533394A040016796A039788665A039840715A039435545A037870338A035000996
773A030180318A021827822A009645999I97543347I89420215I85460352I85264547
766I89757309I96718419A000636710A001174746I99603923I96097240I90533885
759I83570721I77096829I72760355I70658961I70019085I70046206I70169278
752I69917929I68761934I66431793I62913809I57623719I49509353I38671043
745I27255251I17317138I09936407I06358908I07702901I14719349I28246124
738I45721119I60825976I71817354I80642412I88472831I95398122A001131119
731A005541080A009029888A012164548A014982729A017265751A019181064A021029261
724A022803559A024302402A025485998A026432355A027158936A027699505A028136111
717A028369927A027923048A026347225A023669306A020088725A015926483A011965113
710A009346641A009025916A011291473A015194012A018757471A020938720A022233608
703A023382550A024684561A026215798A028124537A030428584A032654556A034306879
696A035504104A036642019A037897664A039140844A040161989A040872612A041270728
689A041312574A040855901A039781474A038178941A036270819A034154769A031827093
682A029477571A027427474A025699130A024028590A022199365A020193237A018057874
675A015709515A012999887A009944809A006775014A003785136A001152967I98906380
668I97142012I96261745I96828135I99164509A003070677A007845401A012749292
661A017404711A021607498A025042612A027348782A028197887A027190097A023876959
654A017910832A009095019I97509583I83881173I69859647I57700973I49206365
647I44511703I41889396I39003549I34382648I27660353I18882482I08024860
640H95121730H80766602H66547695H54897402H48250443H47951291H53454239
633H62408601H71774777H79013671H82376052H80462176H71911615H56003196
626H33987841H09597828G87772045G72727457G66627710G69178723G78109251
619G90041642H01400523H09492700H13504065H14707797H15547313H18120104
612H23152203H30046127H37542739H44242639H48763686H49804280H46367866
605H38147892H25815535H10911824G95310023G80547191G67473733G56561253
598G48565849G44693101G45943336G52371410G63026515G76404125G90873695
591H04936656H17408865H27502512H34816126H39392442H41864077H43428394
584H45459314H48961888H54272661H61134670H68973239H77163010H85184987
577H92678722H99471627I05628971I11424497I17143318I22858576I28425492
570I33675243I38537014I42904582I46456466I48748597I49487231I48602787
563I46133685I42235051I37326092I32104831I27380309I23886433I22203154
556I22755366I25746066I30964519I37666268I44733191I51064698I55968041
549I59344529I61605909I63384728I65178066I67123925I69086974I70943526
542I72701113I74359394I75824816I77040669I78097359I79111311I80009659
535I80462770I80016713I78292958I75168639I70957976I66481994I62850253
528I61032945I61483385I63955980I67583679I71263361I74172698I76116982
521I77520285I79055153I81116892I83606608I86220286I88801570I91301490
514I93531982I95120543I95697617I95099175I93430621I91006584I88279354
507I85746491I83707832I82043319I80379079I78434247I75974597I72580918
500I68002342I62869156I58675820I56856731I57914105I61189301I65104305
493I67669288I67166866I62856075I55493150I47242768I40611219I37025090
486I36347067I37561893I39515080I41022827I40945231I38898011I36102773
479I35139363I38299843I45877681I56026940I66223523I74815040I81423578
472I86324181I89676083I91208211I90385611I86730036I80091501I70901543
465I60328280I50034581I41546001I35755680I32858396I32287966I32434666
458I30872609I25608270I16382355I04600636H92019669H79809904H69009058
451H61467998H59624253H64881812H76221379H90515211I04232722I15075894
444I22532576I27390856I30875896I34100617I37949736I42978685I49187394
437I56030912I62806901I69024445I74441031I78925438I82388631I84750824
430I85848469I85376181I82981525I78363774I71282263I61632824I49690707
423I36387611I23482427I13396724I08409621I09457407I15455244I23763635
416I31520156I37018036I40291178I42491604I44581697I46563786I47861550
409I48129541I47421383I45730844I42884720I39016973I34469764I28593697
402I19162320I04265528H85398051H68142489H58965201H60938797H72309799
395H88600102I05560964I20510971I32196673I40494790I46236074I50691168
388I54798827I58735952I62144424I64744678I66738273I68658038I70889215
381I73326333I75352528I76022812I74305016I69401399I61181767I50457079
374I38716382I27539130I18281233I12090193I09818061I11770837I17541228
367I25987141I35422626I44121874I50768696I54496729I54885326I52277812
360I47960857I43776561I41466350I42103624I45642975I50863551I56078031
353I60190826I63108656I65272852I67044753I68560992I69956967I71562376
346I73835810I77069434I81155861I85632597I89865724I93253787I95517427
339I96866351I97713470I98266025I98593394I98948637I99697408A000927712
332A002326701A003485436A004226879A004584656A004547193A003943136A002536751
325A000149012I96757936I92577133I87981024I83354301I79096519I75652776
318I73317567I71962821I71024204I69826978I68017614I65661448I62855458
311I59336653I54509605I47776078I39057449I29329386I20450907I14059749
304I10572448I09157091I08402772I07117062I04941086I02435823I00661250
297I00868767I04437157I12446601I24778273I39548502I53554825I63404863
290I66574452I62176887I51477607I37579495I23784044I11828571I01809781
283H93405851H86414812H80151724H73120688H63722049H51335724H37029838
276H23548333H14408097H12462306H18779910H32295522H50141649H68620393
269H84589285H96375251I03406972I04930538H99197541H84102067H58888700
262H25549736G88776068G54670868G29075138G15792931G15139014G23831756
255G36735434G49360232G59290742G66256715G71787401G78471617G88519926
248H02613431H19984943H38973163H57273977H72513069H83270974H89479889
241H91925979H91587104H89304151H85993341H83170161H82946071H87028526
234H95442661I06287613I16869848I24969010I29177687I28603901I22783104
227I12213333H98913867H86024298H76400747H71280299H70024791H70927316
220H72247750H72773321H71853674H69269651H65340745H61348214H59640142
213H62449557H69795291H79507259H89734936H99472381I06808801I11128838
206I14764756I19754734I26353480I33353079I39449949I44121120I47281189
199I49026586I49817134I50459613I51586228I52941590I53168488I50598711
192I44495540I35284624I23587554I10133650H97322567H89470712H89976353
185H98382407I10823659I23271897I33790987I42211491I48847355I53743438
178I56711127I57668167I56720784I54130527I50446532I46475848I42848422
171I39712803I37055910I35116420I34269096I34731659I36613414I39918196
164I44116052I48040781I50622887I51471991I50465503I47122436I40800243
157I31314078I19154582I05594454H92945891H83953655H80339379H81975127
150H86855116H92056584H95816190H98703201I02551361I08652477I17053462
143I26734953I36116539I43788683I48909747I51403915I52149261I52358079
136I52455605I52080226I51159826I50280108I49746319I48846602I46593783
129I43035187I39334480I36577047I34973967I34221497I34062607I34318544
122I34777203I35291953I35911214I36919141I38744051I41667908I45585925
115I50124094I54921556I59632381I63656896I66216400I66873946I65665832
108I62744988I58390023I53298477I48382943I44410753I42046163I41874876
101I43884360I47363511I51639031I56285821I60773036I64583459I67582173
94I69858209I71413622I72291080I72778367I73224219I73779308I74496711
87I75372526I76253888I77235858I79007896I81769027I84156834I84752536
80I84169436I84197653I84983407I84900880I83045766I79909873I76444624
73I73672536I72381415I72435999I72717482I72237112I70515206I66865591
66I61091981I54881148I50957995I50437834I51574859I51599103I49415868
59I45831863I41542165I37017762I33436086I31262027I28980239I25132352
52I20420226I16668838I14503067I13041344I11075418I07847546I03304515
45H98036478H92441208H86051830H78725751H71980170H68063044H68023800
38H71553769H77702826H84837345H91701067H99082551I08304425I16923337
31I22166034I25904272I29904337I34013159I37299245I38850412I37942751
24I34922190I31584191I29367397I28038950I26647838I24845939I24234074
17I27809449I34080140I38060001I38073835I36325014I34214032I29284938
10I18562236I05143945H98233652I00643375I05622260I08143754I07693656
3I02574784H86679104H62481198
$$ === CHEMSPECTRA ===
##$OBSERVEDINTEGRALS= (X Y Z)
##$OBSERVEDMULTIPLETS=
##$OBSERVEDMULTIPLETSPEAKS=
##END=


$$ === CHEMSPECTRA PEAK TABLE EDIT ===
##TITLE=JB-255
##JCAMP-DX=5.00
##DATA TYPE=INFRAREDPEAKTABLE
##DATA CLASS=PEAKTABLE
##$CSCATEGORY=EDIT_PEAK
##$CSTHRESHOLD=0.93
##MAXX=3997.453
##MAXY=0.9344808478939695
##MINX=373.96442
##MINY=0.6223877088368366
##$CSSOLVENTNAME=
##$CSSOLVENTVALUE=0
##$CSSOLVENTX=0
##NPOINTS=0
##PEAKTABLE= (XY..XY)
##END=


$$ === CHEMSPECTRA PEAK TABLE AUTO ===
##TITLE=JB-255
##JCAMP-DX=5.00
##DATA TYPE=INFRAREDPEAKTABLE
##DATA CLASS=PEAKTABLE
##$CSCATEGORY=AUTO_PEAK
##$CSTHRESHOLD=0.93
##MAXX=3997.453
##MAXY=0.9344808478939695
##MINX=373.96442
##MINY=0.6223877088368366
##NPOINTS=40
##PEAKTABLE= (XY..XY)
2909.556506864738, 0.866227330843735
1675.757228842846, 0.6359945550622613
1592.1818472087566, 0.7531694191160462
1579.4330601798279, 0.7917042990108925
1561.0181455824859, 0.8496922270919769
1459.0278493510555, 0.8574787994268411
1442.0294666458167, 0.8442106264348543
1423.6145520484752, 0.7888069764086039
1317.3746601407347, 0.86704969591783
1272.045639593432, 0.737974645685815
1253.6307249960905, 0.6671984802251781
1218.2174276935102, 0.6481087217958441
1161.556152009382, 0.802596272978009
1120.476727138389, 0.836389960845959
1076.56423848319, 0.8327553888137333
1060.9823876700543, 0.8149057644494784
1051.066664425332, 0.813854695902319
1024.1525584753713, 0.8113731162253742
1009.9872395543389, 0.7481336608173268
967.4912827912431, 0.7905917183102213
936.3275811649723, 0.7475600858120751
896.6646881860825, 0.7918174880224697
879.6663054808441, 0.8193610923653485
794.6743919546516, 0.7838482869314874
760.6776265441749, 0.7070884716695717
736.5965843784202, 0.6223877088368366
706.8494146442531, 0.7684307115535808
687.0179681548084, 0.757185282254703
675.6857130179824, 0.7481474890634416
637.4393519311961, 0.7741091269075143
610.525245981235, 0.8130972998256886
587.8607357075839, 0.7661620993991687
548.197842728694, 0.8129175918068078
517.0341411024233, 0.8197166338136643
485.870439476153, 0.8565257209177459
474.5381843393275, 0.8462665695807007
461.7893973103983, 0.8271690027918637
427.7926318999216, 0.755443812694018
398.0454621657541, 0.8043637889701701
383.88014324472215, 0.7817355408422577
##END=

##END=

