##TITLE=X8196
##JCAMP-DX=4.24
##DATA TYPE=INFRARED SPECTRUM
##DATE=31/10/2018
##SAMPLING PROCEDURE=Diamant-ATR
##ORIGIN=ComPlat
##XUNITS=1/CM
##YUNITS=TRANSMITTANCE
##RESOLUTION=4
##FIRSTX=3997.453
##LASTX=373.96442
##DELTAX=-1.4165319
##MAXY=0.82173288
##MINY=0.3334851
##XFACTOR=1
##YFACTOR=7.6529838e-010
##NPOINTS=2559
##FIRSTY=0.6878373
##XYDATA=(X++(Y..Y))
3997+898783167+899528830+899931647+899721282+899187931+898576307+897908917
3988+897439587+897690296+898796252+900193494+901160582+901417366+901134958
3978+900709555+900597479+901030282+901756630+902255634+902244652+901841056
3968+901291661+900743434+900285631+900032897+900073475+900414062+900993131
3958+901619787+901889267+901440108+900489999+899910229+900469749+901945888
3948+903238688+903723128+904011844+904883992+905949603+906045556+904927451
3938+903475300+902427680+901962867+902322536+903704981+905185326+905255655
3928+903979367+902956592+903196241+903937777+903957014+903329579+902956124
3918+903164309+903400687+903071081+902266616+901554676+901353969+901534348
3908+901733732+902190990+903892526+907319898+911077498+913122971+912987063
3898+911399783+909077588+906725018+905368276+905859257+907419200+907871162
3888+906850178+906100387+906575636+907029390+906523687+906127335+906392998
3878+906209970+905424274+905266325+905974526+906478904+906702276+907666560
3869+908899311+909228294+909238886+909816397+910101531+908939811+906967783
3859+905389148+904764673+905818524+909924656+915684426+917433393+914601758
3849+910786289+907978876+906532411+906196496+906574624+907344509+908541355
3839+910258079+911731803+911821059+910671877+909293249+908172807+907175267
3829+906429915+906402266+906898544+907273089+908097961+910696567+913756169
3819+914174329+912743986+912105492+912058216+910702408+908052243+905488451
3809+904368243+905585183+908149987+909554006+909442320+909668340+910871962
3799+911833442+912414380+913016347+912825843+911269249+909363111+908247966
3789+907986430+908192979+908717218+909195660+909027508+908392051+908198120
3779+908702498+909035453+908615345+907944529+907769990+908518068+910006123
3769+911178903+911257177+910959893+911036843+911023914+910645163+910811056
3759+912088824+913180371+912671943+911263486+910766662+912692115+916788980
3750+919587592+918678450+916066292+914645840+914856984+914106414+911297132
3740+907988300+906149298+907271064+910786523+913124918+912112112+909797316
3730+908562073+908843858+910007292+911122126+911381480+910733640+909758296
3720+908872441+908166810+907715082+907678554+908437146+910501155+913353664
3710+914961972+914464448+912880128+911194792+910059552+909863751+910067885
3700+909712500+909100408+909147216+909819902+910581765+911667159+914020352
3690+917696486+920278970+919248562+915640577+911929473+909565922+908907177
3680+909634694+911479069+914921317+919776461+922563859+920993713+917915808
3670+916370975+916373467+916100250+915060340+913721589+912234702+910623901
3660+909141765+908446025+909522930+912277071+914523640+914925367+915081602
3650+917481759+921604559+922949385+920507015+917368672+915259879+914044185
3640+913216120+912755980+912817431+913124762+913088001+912365158+911369486
3631+911339345+913195715+915098192+914410163+911921218+909678542+909091685
3621+910837615+914149484+916612260+916971618+916376505+916015667+915958578
3611+916072211+916699101+917733014+917968925+916575343+914279707+912421935
3601+911655788+911662564+911968104+912411031+912637207+912065303+910781071
3591+909871228+910656612+913352807+915913328+916232030+914988609+913669718
3581+912715403+912026439+911518323+910970096+910259948+909793577+910027152
3571+911006624+912950769+916325491+920025068+921004929+918496123+914975991
3561+912732927+912185401+912469289+912866887+913289020+913665200+913689656
3551+913341747+913151554+913624856+914576212+915103098+914526911+913348991
3541+912671865+912933401+913526021+913509588+912633469+911574088+911192689
3531+911816308+913060975+914104078+914398792+914222228+914202290+914457283
3521+914520836+913993171+913041037+912308224+912282445+912684405+912806605
3512+912485566+912211881+912233923+912285482+912314377+912622876+913128968
3502+913189484+912457528+911356479+910554428+910350994+910550378+910808097
3492+911024225+911356246+911985862+912960504+914129079+915166262+915744163
3482+915712153+915117896+914168099+913263707+912937061+913456471+914371844
3472+914810176+914448092+913776964+913211136+912527157+911547919+910705913
3462+910434175+910584647+910860435+911293783+911975347+912699436+913137769
3452+913285437+913603906+914487580+915542209+915825163+915059639+914034371
3442+913599856+913827044+914129702+913893012+912999680+911876201+911062389
3432+910800308+910987620+911348925+911665212+911893802+911980643+911730090
3422+911127188+910560814+910390871+910586906+911007948+911571128+912039524
3412+912155493+912056814+912139839+912550600+913150775+913859521+914653473
3403+915289553+915395476+914853402+913842698+912602003+911414737+910634649
3393+910391884+910446558+910568525+910813860+911254763+911742162+912101130
3383+912425362+913020319+913945350+914722089+914824195+914410163+914092473
3373+914100495+914164983+914077208+913928761+913914040+914068563+914148783
3363+913961316+913875098+914484620+915630296+916400493+916310070+915824150
3353+915499295+915309258+915074749+914923264+915033704+915336284+915629595
3343+915762310+915754522+915809041+915920337+915575310+914408216+912991035
3333+912319595+912713845+913733583+914838370+915735362+916395353+916973721
3323+917512134+917689554+917103476+915861612+914699970+914359694+914959090
3313+916075950+917150206+917600377+917032679+915793230+914944760+915285815
3303+916596138+917958177+918639742+918596282+918215662+917779277+917341256
3293+916937193+916570281+916075093+915264786+914151431+912866965+911479536
3284+910066250+908997679+908923221+910138604+912037343+913602815+914427297
3274+914866564+915367282+916095654+917019828+917901166+918348299+918246115
3264+918064878+918447445+919414767+920191428+920022809+919021919+917923674
3254+917122246+916337641+915246639+914090604+913446580+913539729+914002984
3244+914409462+914904182+915932954+917293981+917986449+917403330+916262093
3234+915781937+916249086+916896538+916940464+916336550+915707168+915801953
3224+916833919+918157015+918850029+918770743+918687407+919172158+919866028
3214+920206148+920361138+920876731+921718114+922291731+922328648+922206915
3204+922292744+922409258+922264861+922106055+922445786+923268944+923967487
3194+924043892+923554078+922943700+922599919+922454198+922141181+921657910
3184+921492250+921909631+922578189+923089733+923414276+923672384+923790924
3174+923609688+923180234+922770407+922626166+922885365+923577366+924453407
3165+925017366+925041433+924811752+924635890+924415945+923837966+922727883
3155+921333444+920409582+920645727+921856436+923183895+924083691+924570311
3145+924653024+924191015+923293166+922416969+922079185+922569077+923706264
3135+924807157+925175783+924752794+924104719+923782123+923899183+924212122
3125+924351534+924054718+923425959+922942609+923004761+923505634+924018112
3115+924301065+924335568+923983610+923107568+922059481+921550118+921861577
3105+922544855+923011381+923112786+923066757+923076025+923138644+923110060
3095+922867218+922403106+921745374+920880002+919888537+919072933+918748546
3085+918944191+919434238+919931529+920110974+919636426+918312472+916087710
3075+913018294+909425263+905824054+902445905+899166591+896023652+893348486
3065+891392035+890292778+890274475+891377627+893062651+894280916+893971560
3055+891877410+889218054+888072923+889615341+893136096+896867839+899482100
3046+900700209+900744681+899641685+897373541+894543308+892359902+891783715
3036+892948162+895399099+898508002+901573213+903868304+904938822+904913899
3026+904380081+903844082+903437682+903214310+903298503+903471795+903141878
3016+902187096+901386680+901560440+902625817+903844160+904631413+904824955
3006+904524478+904035833+903795249+904089807+904856888+905826001+906860692
2996+908073739+909512649+910913552+912010161+912878570+913673456+914304396
2986+914617335+914568268+914071912+912955364+911016048+907955199+903566113
2976+898109469+892171812+886259701+880893558+876710087+873955790+872164610
2966+870662925+869231335+868228654+868176628+869117780+870373741+871079761
2956+870895642+870139543+869417946+869132890+869140211+868884828+867904578
2946+866112541+863753039+861395095+859818252+859459829+859918723+860314374
2936+860275666+860412742+861692379+864474714+868284887+872390474+876384141
2927+880206386+883757282+886716803+888910334+890640375+892297361+893788844
2917+894740433+895145352+895480410+896224048+897436861+898796563+899980637
2907+900939157+901722594+902233515+902386168+902314281+902191769+902056484
2897+901962945+901999706+901946511+901170941+899084345+895659388+891575063
2887+888029074+886228236+886675680+888881516+891874061+894862010+897319645
2877+898825458+899249927+899000153+898776080+899017287+899631482+900183291
2867+900254867+899700254+898778105+898114687+898313058+899481555+901283328
2857+903384254+905585261+907658772+909362644+910527636+911049070+911036921
2847+910922119+911070878+911356246+911337242+910706769+909440373+907670610
2837+905526225+903151769+900978022+899756174+900003612+901525859+903699918
2827+906037301+908281845+910178948+911474708+912179248+912614698+913048513
2817+913452577+913781482+914174174+914649812+914976537+915107849+915380055
2808+916037319+916898329+917677327+918312161+918795977+918992323+918881416
2798+918758904+918924097+919351369+919874440+920446421+921038886+921558763
2788+921993591+922406377+922754208+922915272+922864881+922683800+922466737
2778+922323119+922368525+922598906+922836531+922948373+923065589+923383045
2768+923831034+924228166+924622494+925137853+925639194+925869575+925794573
2758+925616374+925577198+925778217+926052214+926106966+925921602+925824714
2748+926049799+926431432+926699198+926838610+926942975+926936666+926775213
2738+926750523+927190102+927925718+928448476+928537264+928358209+928032575
2728+927557949+927091267+926849826+926747953+926541949+926297315+926335790
2718+926739308+927216816+927434580+927310121+927032464+926873424+926949907
2708+927186441+927473912+927727347+927841136+927772831+927601953+927348752
2698+926876384+926164133+925541060+925397986+925732655+926215537+926634242
2689+926961278+927025532+926566249+925722686+925081154+925060281+925517850
2679+926064831+926499503+926815323+927020003+927132935+927227642+927341197
2669+927430608+927469940+927484037+927486685+927516670+927668466+927952666
2659+928234684+928426279+928614759+928916171+929324051+929744080+930085446
2649+930327043+930557425+930910240+931422640+931992986+932475011+932787405
2639+932923235+932861628+932510449+931856844+931198022+931000274+931367654
2629+931881456+932193538+932481164+932961632+933308061+933084455+932533658
2619+932345256+932739350+933322391+933789852+934224991+934674617+934968084
2609+935108977+935432508+936160335+937070412+937751120+937984227+937797227
2599+937353443+936955144+937001173+937656646+938560259+939144546+939277806
2589+939308259+939475943+939635995+939638488+939672757+940043875+940708694
2580+941270395+941541354+941823996+942336474+942747469+942785476+942838048
2570+943284324+943775540+943960671+944295339+945199185+946044540+945973743
2560+945187191+944453132+943907865+943276224+942706657+942516308+942576824
2550+942602448+942624334+942783918+943098415+943636439+944452354+945302693
2540+945852556+946040957+945927480+945511968+945043650+945060084+945793831
2530+946885923+947816795+948293135+948248663+947767260+946888026+945453010
2520+943543445+941950869+941536369+942152433+942883922+943301848+943813625
2510+944828378+946158095+947251122+947683223+947468263+947000179+946544712
2500+945896093+944821758+943605051+942684305+941979297+941069999+939870660
2490+938736433+938105259+938331201+939586071+941646809+943942991+945862992
2480+946886001+946713409+945684559+944769887+944675414+945124416+945369050
2470+945202846+945117329+945547561+946279984+946753909+946799939+946731557
2461+946697443+946468542+946069463+946006610+946518543+947200030+947713520
2451+948233164+948850396+949243166+949309913+949435462+949758292+949814602
2441+949234287+948267199+947394039+946859131+946731323+947024557+947603236
2431+948191885+948575854+948716513+948736062+948853278+949200797+949631574
2421+949896381+950034236+950238059+950356287+950015855+949264272+948573751
2411+948260579+948337139+948767761+949478843+950319759+951173214+951867629
2401+952090222+951745819+951208184+950924062+951027493+951509907+952389765
2391+953482402+954265606+954139511+952735415+950059704+946524696+942716782
2381+938848898+934486994+929115165+922949697+916835866+911305154+906092053
2371+900678245+894975876+889233164+883524019+877906544+873192447+870714484
2361+870798910+872319210+874350975+877241257+881590388+887446734+894442292
2351+901360822+906211372+907595374+905499432+901159881+896579123+893445686
2342+892189180+892278513+893021684+894079196+895384301+896750701+898021148
2332+899445572+901176626+902582981+902987044+902848177+903326386+904932280
2322+907342484+910399049+914277760+918578291+922319069+924961134+926777549
2312+928272926+929781698+931598269+934000451+936917370+939787168+942011619
2302+943515251+944666847+945795155+946987795+948143675+949023455+949536634
2292+950097789+951289106+953079819+954811963+956014106+956780564+957281282
2282+957423109+957229722+957130108+957493672+958076791+958286689+957931381
2272+957432611+957285955+957538611+957901629+958209739+958586075+959108678
2262+959464142+959186017+958344634+957633863+957522878+957818683+958312624
2252+959010622+959519751+959458690+959594208+960998305+963032406+963868181
2242+963075943+962070303+961914612+962104260+961763439+961008819+960655303
2232+961157967+962225993+963144170+963444725+963651741+964922811+967356926
2223+969429190+969735898+968331257+966032661+963704313+962456297+963228129
2213+965686621+968134911+969128012+969197251+970132095+972133719+973046132
2203+971289610+967942693+965087848+963765608+964012501+965342763+966761968
2193+967200223+966247933+964484323+963013558+962442745+962594152+963393088
2183+965022892+966959716+968374716+969464783+970698391+971234312+969973367
2173+967793544+966972256+968458520+970966235+972787557+973554638+974009014
2163+975299010+978607609+983352547+985719058+982634065+976682857+972941300
2153+973573174+977236535+981252867+983574439+983666031+982114344+979800872
2143+977681877+976407069+975505793+974034171+972564029+973154080+976589941
2133+980861265+983183149+982587958+980105321+977332800+975207652+973770377
2123+972904227+972929540+973949044+975031089+975045419+974176076+973607443
2113+973816095+974117429+973948343+973747947+974188148+975005231+975204225
2104+974529592+974049592+974694863+975850508+976307922+976153322+976567354
2094+977954783+979459194+980274953+980404553+980171134+979832026+979589261
2084+979305139+978488679+977246816+976698433+977615675+979238470+980275966
2074+980544822+980751760+981198426+981624453+982103908+983260955+985268810
2064+987010300+986906870+984637480+981493296+979204669+978917899+980744595
2054+983241484+983835896+981251621+977442695+975921928+978021764+982168396
2044+986879299+992233058+997770468+1001079145+1000068441+995802880+991728057
2034+990168971+990487362+990963312+991205143+991613567+991942940+992024718
2024+992598335+993771582+994010531+992349417+990351610+990365551+992869216
2014+996256322+997955132+995973213+991250004+987868584+988807322+992355726
2004+994544272+993960374+992431040+992153850+993330680+994238342+993453581
1994+991740441+991192214+992732374+995188763+996835313+996710387+994480251
1985+990349663+985359000+981362294+980669515+985010857+993290648+1000834043
1975+1003560924+1002031435+999034918+995416263+990710033+986034100+983443983
1965+982841237+982256483+980981752+980405799+981777962+984336847+985914625
1955+984783903+981219377+977745353+977293702+980511020+985129319+988424521
1945+989834770+990487673+990958639+990948748+990859181+991741531+993644320
1935+995338612+995889332+995607079+995340014+995598278+996310218+996971922
1925+997170994+996962576+996469880+995383474+993339870+990607537+987983853
1915+985882459+984145798+982986413+983220767+985004860+987092546+988391810
1905+989255234+990196698+990651075+990008218+988839722+988254189+988739407
1895+990009542+991530699+993053724+994483522+995311820+995097794+994575815
1885+994820760+995604743+995846106+995391262+995174744+995791509+997001206
1875+998466364+1000231531+1002587294+1005746978+1009234242+1011498881
1867+1011419128+1009984033+1008888359+1008781424+1009267810+1009732623
1858+1009987538+1010253591+1010735538+1011294123+1011559631+1011379874
1850+1010990687+1010760461+1011019426+1011897726+1012781244+1012551953
1841+1011333066+1010454220+1010658199+1011313594+1011163356+1009935044
1833+1008631652+1008107102+1008021819+1007572038+1006864149+1006329396
1824+1005661539+1004481204+1003252113+1002828346+1003745042+1005927280
1816+1008707823+1011473569+1014203721+1016928499+1019072807+1020107498
1807+1020420126+1020769436+1021492357+1022485303+1023371858+1023632381
1799+1023032128+1021886996+1020749654+1020059522+1019784746+1019016575
1790+1016967208+1014571490+1013374722+1013848024+1015194953+1016402080
1782+1017246812+1017782811+1017814899+1017569486+1017951119+1019805853
1773+1023069123+1026134255+1027249011+1026879373+1026269150+1025674505
1765+1025227371+1025622789+1027098383+1028622733+1029340046+1029560926
1756+1029573465+1029444800+1029810311+1031420956+1033865663+1035368049
1748+1034983223+1033721499+1032774194+1032588284+1033237838+1034544657
1740+1035787922+1036413878+1037088277+1038812944+1040735282+1040375691
1731+1037908787+1035213371+1033105279+1031735219+1031209267+1031426564
1723+1032013343+1033028486+1035433394+1040112053+1045369859+1047700076
1714+1047202941+1046375032+1046629635+1048119015+1050610530+1053857366
1706+1057073360+1059254273+1060700349+1062556329+1064500007+1064587627
1697+1062546438+1059548598+1056722336+1055131629+1055431795+1057402031
1689+1059909902+1062399237+1065904493+1070725913+1073741823+1073452951
1680+1071976811+1070916185+1070657687+1070743515+1070126673+1068076060
1672+1064284346+1057995197+1049289225+1040750002+1034478456+1030151054
1663+1025781050+1018836584+1008256406+994833378+979880470+961625973+925304214
1653+847201714+755945042+690232671+632084217+560562542+487482171+444870056
1643+435758268+447228039+470644310+501210973+539667616+589337596+639818663
1633+675249622+698790040+720007018+743443461+767990455+790736455+811791901
1623+832052694+848857143+860190305+869231647+880954464+895859161+907408452
1613+910877414+905691651+890108816+861514803+820770546+774011214+729375629
1604+693073497+667583948+651860999+644141547+644988187+656540982+678768196
1594+707049114+733935281+752591582+758299403+749328624+728913698+705922363
1584+691154119+690459937+700296476+710310280+708681410+688094750+659274172
1574+643155883+644547869+660133858+686028872+713270269+735378242+753626274
1564+769089089+781151481+792410809+809717533+831739366+844124510+848182042
1554+851013211+854581708+858350914+861374067+863179500+864501974+866922926
1544+871446128+877950470+886634324+896355751+902358753+904389661+906162772
1534+910044209+915234333+919194433+921828476+924775536+928636411+932483734
1524+935721302+939153814+943148416+946559744+949007956+951127029+952644758
1514+953139556+953404051+954482046+956848090+961239045+968208667+974120622
1504+975971307+975939374+974931007+971033215+961095894+944725883+928418880
1494+919645149+919130256+923820832+928740309+926175738+913073436+896502874
1485+885919347+886935814+899301253+917140081+933991416+947386407+956815067
1475+959326910+947394663+914253849+864858060+810296991+759378411+723442100
1465+715032243+730771314+752502716+768717115+776197891+773635735+766407459
1455+766147637+776481545+793173529+804941051+795535445+758815308+711842574
1445+678438200+667107219+673926214+692361246+718543730+752373039+790454514
1435+821100619+837692911+841012491+829051115+801627079+770812355+753359443
1425+756610484+774799091+795783974+812982828+826892399+837920878+845340204
1415+850913675+857066292+864614828+872941115+880992549+888310236+895229545
1405+901859982+907480417+911805482+915637072+919529568+923012238+925645347
1395+927859283+930024229+931885973+933364682+934722905+935782441+935874500
1385+935251661+935455795+937681725+941871739+947067004+952221769+956739831
1375+960061280+960878285+957517037+948703818+933348405+912333770+891455044
1366+878807664+878825110+889154968+901683107+910191566+915359337+920617221
1356+927827739+936448195+944700103+951291520+956003436+958568084+957331439
1346+950170299+937600959+924024187+914916566+912918914+916147370+920581083
1336+923988205+926282128+927842226+929037904+930610308+933487739+937509290
1326+939902904+935464129+919606129+892684757+862180557+840056852+835094695
1316+846382840+865146543+881534000+889728273+889154734+882138771+871235996
1306+858129333+842189789+818948679+782942740+735304797+687719036+655831613
1296+647482740+657720383+674889252+689987959+700466965+708275478+716658309
1286+728140074+743620414+762182397+781484514+798534220+810393646+814677977
1276+810490378+799674756+786723394+776717301+773083146+776897525+787462827
1266+803017234+821237384+839659876+855805347+867156578+871984853+870960754
1256+867477695+865535730+866808202+868944332+865486508+847729847+810129463
1247+757422038+705591745+672177947+664013114+674704744+692513431+708893333
1237+721442735+732227826+744300499+758770525+774201174+788025462+797928125
1227+802116114+799326069+789681280+775971637+763497706+757485435+759908646
1217+768757614+780277621+791558445+801341945+809524380+816568538+823101620
1207+829598952+836251664+843041452+849860369+856509498+862621927+867748888
1197+871626975+874301129+875909593+876185848+874031572+868204822+859363564
1187+850764371+845181398+841291239+834922103+823744242+808932616+792522651
1177+775737284+761033294+753692475+758686176+775689229+798634301+820467109
1167+837652489+850454703+860263672+867436260+871410535+872195140+871052501
1157+869344890+866859528+861655462+852081782+839425834+828185900+822699036
1147+823507941+827887292+833540516+840480075+849448361+859822458+869000253
1137+872717899+867033365+852775808+837873914+832115313+838636634+852232721
1128+865650687+875307626+881394353+885396978+888515461+891216017+893439844
1118+895121987+896488154+897976131+899878608+901935530+903562531+904690060
1108+905995788+908125376+911042996+914203302+917067260+919394050+921175729
1098+922395707+922942609+922789411+922218364+921815703+922134717+923378294
1088+925511853+928476437+931970244+935011855+935518102+930090587+915596962
1078+893205725+870289626+855041147+848320287+843571065+835938258+828584121
1068+828341434+837774923+853564307+870765109+886274966+898943375+908623056
1058+915732714+920822212+924050123+925107478+923220111+916908220+904919974
1048+889042659+875550313+871704314+879854505+895394192+909993039+916306331
1038+911336930+897347995+878748705+856585201+827557686+790614021+753260919
1028+728493747+724917616+740688775+766528024+793222752+816116498+834395762
1018+848694910+859909065+868864968+876253374+882840819+889392125+896193051
1009+902485626+905629577+901794949+890529624+878574634+875221097+883000949
999+895929646+906844337+913309192+916676359+918898161+921173236+923777139
989+926150815+927447509+927255135+925847845+923538268+918996918+907779181
979+884054099+846521941+803379863+769314486+755607803+763034295+783854452
969+808807067+831892330+850897319+865831768+877415406+886348800+893200351
959+898466568+902565457+905795392+908346723+910368207+911977684+912947965
949+911937495+906219783+893631829+876154539+860901387+855682757+862887902
939+878131629+894566595+907767031+916935012+923031709+926847878+928468415
929+927553977+923800582+917443363+909319886+900107510+889771343+878606333
919+869020269+865236499+870110025+882374448+897581181+911467464+922092815
909+929547968+934738404+938552860+941564953+944003741+945696164+945925144
899+943653184+938593126+932449933+928519351+929181600+933882145+940112724
890+945946562+950929359+955154498+958574393+961098697+962723985+963542236
880+963580321+962121317+957160483+946414724+929672115+910227782+893816726
870+885663497+887664654+897742167+911742707+925961323+938157286+946861156
860+950161265+945651459+932759989+915330832+899955714+890777451+887335204
850+887283021+888584077+888845534+885406246+877533400+867746629+860550831
840+859849717+866909997+880009417+895726135+910704511+922911222+932099999
830+939316047+945613685+951008878+954783224+956749956+957575217+957578098
820+955929835+951319870+942989455+931516724+919402384+910571251+908014079
810+909747392+905957937+884854748+848370522+819122906+821548453+856076773
800+900379715+934083709+953513089+965024061+974036741+982196901+989282961
790+994845917+998938030+1002067962+1004759640+1007288695+1009572026+1011300120
781+1012226086+1011973819+1009700535+1004443742+995364236+981009946+958093692
771+920347742+860206349+778091489+693804907+641456957+643218074+687408201
761+735854737+751653311+719488621+647945683+562611597+495096129+468230990
751+485877834+535734231+600030395+664176437+719365953+759345466+776039864
741+763393652+728805205+693769703+675079367+669469836+663765053+655726547
731+656572370+675449239+709528946+748976977+785589089+815897098+839713227
721+857632899+869289359+872896332+866191204+849073427+826932899+810495362
711+809571734+826011451+853103311+881218958+902638746+910422103+895376980
701+848638288+769200542+668025084+564791576+481933507+438532502+442345596
691+484578804+545203313+605775989+657447632+699118712+732346288+758819592
681+779783835+794844924+800113945+790477724+768020752+745874149+737168877
671+742866183+757552572+780235407+808578009+832241952+847356392+857881428
662+867643121+877962932+888250421+897353447+904880798+911564508+918049925
652+923802607+927462618+926825915+916752296+888551210+837012749+771513468
642+715813655+691395482+701518401+732968349+770090446+803922949+831639440
632+853218657+869849191+883260381+894836697+905093111+912282912+909220505
622+886275278+845911407+810954334+806726001+834334078+871982906+901368533
612+920132859+932062459+938680045+940448717+938510257+933075265+920071487
602+889339709+831629315+753440442+681156281+643190075+648488302+683684168
592+727863040+768049959+802164324+831999811+857818731+878741929+894985456
582+908130283+919566797+929662691+938400908+945909489+952249106+956439665
572+954341777+938424351+904781340+863336203+835356931+835787708+860923273
562+893387896+914433294+910212750+872242260+801615163+715690910+643542462
552+608416185+614007024+646703781+688925307+729765907+764980309+792334716
543+810154230+817142233+810170196+783454283+732858299+662918763+589898207
533+535615535+514837591+527147031+561308634+605117517+649245259+687531180
523+718678002+744893587+767816851+787384397+803844598+818680601+833000155
513+846399585+857870368+866971915+873656949+877893693+879480194+875555454
503+858648276+823822671+779558049+743457091+728830128+738910601+767278204
493+802199606+833306629+856388777+873201638+886871871+898110949+905712056
483+909745756+912717895+916773948+921188657+923731654+923730875+921986114
473+917656376+906785145+884370776+847854695+801723032+760137392+738645172
463+741489425+760258580+783103181+802082001+812071816+809837007+797403108
453+780753960+766367271+759761912+764182619+779910942+803466548+827813302
443+845285062+850589832+842644009+824312485+801288361+782771862+778418214
433+790096948+810850670+832780210+852398303+869117001+881408918+886214606
424+882270706+871225248+853443587+829192397+808836118+804600931+814013002
414+827992669+837445940+834872335+818405281+794892044+777959709+779110215
404+798445121+825493521+848652697+863253801+873662946+885460376+894964817
394+897620824+896909663+897859539+898790566+893999754+883487647+875414951
384+875147808+875923768+869695914+857400571+842800011+825342737+805003437
374+792560736
##END=
