##TITLE=F. Hundemer FHU 142
##JCAMP-DX=5.0
##DATA TYPE=LINK
##BLOCKS=1


$$ === CHEMSPECTRA SPECTRUM ORIG ===
##TITLE=F. Hundemer FHU 142
##JCAMP-DX=5.00
##DATA TYPE=INFRARED SPECTRUM
##DATA CLASS=XYDATA
##ORIGIN=Lara
##OWNER=
##XUNITS=1/CM
##YUNITS=TRANSMITTANCE
##XFACTOR=1
##YFACTOR=8.348765e-010
##FIRSTX=3997.453
##LASTX=373.96442
##MAXX=3997.453
##MAXY=0.8964418150898595
##MINX=373.96442
##MINY=0.38489159817831203
##NPOINTS=2559
##XYDATA= (X++(Y..Y))
2559A003740912A003684226A003978295A003996929A003482040A003035831A003429137
2552A004578570A005648900A006072905A005987733A005792329A005756561A005969527
2545A006258099A006271450A005878358A005338981A004994508A004994365A005278796
2538A005631979A005829525A005830953A005756418A005738927A005859439A006074975
2531A006160290A005945753A005626197A005574651A005858011A006204483A006395888
2524A006457358A006485487A006504192A006446935A006193917A005776480A005495761
2517A005542881A005636549A005383531A004930039A004885205A005476413A006151223
2510A006300436A005948180A005632193A005758132A006108245A006255529A006254958
2503A006526538A007133453A007566383A007433662A006909992A006414808A006126450
2496A005887568A005585217A005430507A005691736A006244035A006762493A007133739
2489A007273813A007042284A006519185A006033995A005946182A006296652A006670253
2482A006767705A006743074A006802545A006844167A006735150A006625061A006653262
2475A006722727A006732437A006585224A006013149A004995508A004323482A004993152
2468A006749143A008303448A009054934A009196222A009022879A008740661A008486786
2461A008261826A008032510A008022443A008745373A010001896A010364217A009599809
2454A008577740A007841890A007575592A007734871A008040292A008163445A008077559
2447A008062210A008304233A008601944A008677192A008606299A008685688A008902652
2440A008887303A008497424A007987675A007547392A007196137A007151587A007556245
2433A007926705A007948908A007995100A008392975A008907864A009198721A009180016
2426A009004459A008954555A009054720A008965193A008641567A008520555A008901938
2419A009515707A010059582A010449104A010628516A010625517A010497437A010184163
2412A009636790A008979400A008441523A008243477A008518056A009173376A009900874
2405A010407482A010709262A011047523A011430834A011626381A011573407A011448254
2398A011255349A010780584A010158248A009808349A009761800A009709255A009677913
2391A010061010A010874823A011562841A011830423A011876900A012003266A012435482
2384A013095014A013483751A013299841A012866412A012811225A013037756A012953726
2377A012510588A011932587A011335310A011012398A011559842A012802658A013613758
2370A013365952A012479246A011824712A011956504A012624460A013137279A013102796
2363A012640880A012191245A012140413A012514300A013106508A013788886A014371955
2356A014382093A013733699A012947301A012451331A012348310A012582980A012933665
2349A013063315A012933165A012845280A013030331A013405289A013711852A013830722
2342A013940026A014208179A014292280A013825796A013068241A012613465A012768603
2335A013140348A012974216A012112927A011479667A011875115A012401427A011948151
2328A010538203A009179944A008591235A008186934A006955898A004393519A000916662
2321I97606865I95366756I94403802I94163920I93809809I93234307I93083596I94007711
2313I95927122I97881944I99202079I99911871A000265483A000509934A000644653
2306A000489444A000145256A000076862A000605958A001499874A002179468A002284416
2299A002050817A002130492A002556425A002815797A002810728A002894829A003402507
2292A004203827A004850579A005187484A005206832A004750556A004012207A003783177
2285A004645823A006297437A007860166A008714388A008739376A008091767A007163796
2278A006453503A006263597A006692242A007741296A009091274A010092708A010350296
2271A010066793A009850471A010115125A010480588A010352152A009797283A009437103
2264A009732600A010398915A010721327A010422260A009932787A009836121A010266551
2257A010862329A011079508A010666997A010015318A009562113A009254836A009022807
2250A009088204A009557901A010080072A010303247A010400200A010744601A011263702
2243A011558486A011465960A011089074A010591033A010208865A010103560A010122265
2236A010064222A010113555A010635941A011513508A012113355A011986346A011181814
2229A010022386A009004816A008686545A009190510A010014033A010628087A010990766
2222A011238358A011238144A010815923A010186662A009838405A010033095A010543343
2215A010813496A010475377A009809848A009422610A009433962A009358570A008922000
2208A008542544A008637497A009014811A009252980A009281537A009292317A009297886
2201A009070641A008481289A007753862A007318148A007421026A007954620A008608940
2194A009111050A009356643A009363068A009179730A008904723A008680262A008541830
2187A008384265A008202712A008180080A008392690A008624861A008583810A008116897
2180A007296444A006496053A006187848A006459143A006944190A007296873A007391255
2173A007134024A006535391A005913483A005635549A005706800A005861081A005867720
2166A005645259A005297858A004997935A004697512A004164703A003391156A002683790
2159A002304192A002253360A002380012A002481747A002383081A002095223A001846632
2152A001866622A002112858A002225231A001872262A001170893A000565478A000258201
2145A000072649I99912657I99910801A000055943A000107132I99967201I99797928
2138I99745739I99797356I99913513A000125123A000497511A001037031A001607749
2131A001981280A002065238A002060883A002289770A002778101A003087234A002783669
2124A002079517A001708129A002120711A003082951A004098022A004862787A005228678
2117A005152573A004900911A004977231A005626411A006577228A007324431A007524688
2110A007199706A006784982A006831531A007401321A007906144A007789987A007199064
2103A006708591A006599288A006722870A006923057A007227550A007616429A007898862
2096A007942626A007871090A007919280A008143384A008403898A008637854A008983327
2089A009479654A009833479A009727960A009247768A008753654A008463940A008403898
2082A008609011A009084563A009616300A009858681A009695404A009419183A009439174
2075A009786288A010019744A009708398A008929568A008206853A008012163A008422817
2068A009217354A010145111A010980270A011431905A011306396A010789436A010318026
2061A010182593A010419190A010896812A011279837A011175317A010603814A010048873
2054A009875744A010033095A010368787A010765305A010918658A010526423A009788287
2047A009257906A009151458A009220424A009307810A009593740A010230783A011037885
2040A011640230A011735970A011307895A010735748A010553910A010940290A011582902
2033A012064665A012166043A011858338A011322102A010940004A010992979A011357442
2026A011685709A011801580A011779662A011748035A011743393A011664433A011339522
2019A010789079A010358149A010352223A010619019A010748242A010583395A010267408
2012A009928789A009577605A009233632A008989681A008919501A008966407A008958054
2005A008792921A008578882A008522340A008664341A008770789A008590949A008213849
1998A007952549A007852385A007664192A007355701A007217198A007362055A007502200
1991A007324288A006860872A006426730A006269237A006343343A006417948A006302220
1984A005942825A005456780A005083750A004918902A004747344A004340473A003795456
1977A003394012A003289634A003441488A003665092A003667662A003204819A002330036
1970A001424126A000892745A000872683A001233577A001731760A002103933A002197887
1963A002093367A001956934A001765886A001334313A000607100I99807994I99287679
1956I99217857I99412760I99529489I99470018I99401123I99343509I99053295I98461515
1948I97940344I97853886I98071421I98181510I98023374I97725807I97330716I96707951
1940I95888284I95203122I94960099I95139867I95466064I95623914I95421443I94955530
1932I94560439I94401374I94272795I93964947I93523593I93054039I92672655I92668729
1924I93219386I93926466I94051761I93234450I91712486I89921583I88106407I86257818
1916I84309422I82379517I80768882I79694269I79126621I78912012I78901660I78920865
1908I78799639I78486579I77949487I76979108I75400387I73477834I71828434I70908030
1900I70690281I70746467I70584690I70060377I69491372I69272837I69437970I69687275
1892I69757169I69632945I69426261I69201943I69037095I69131406I69654077I70558346
1884I71693357I72990504I74415515I75861088I77177368I78253908I79065651I79639939
1876I79971490I80040170I79902737I79641867I79251059I78725604I78230206I78038586
1868I78305954I78935929I79614237I80015183I80099998I80201662I80711982I81693712
1860I82880413I83971232I84760771I85125234I85174353I85325850I85889500I86612501
1852I86913638I86550103I85860372I85351908I85186918I85130803I84903272I84434718
1844I83812025I83202825I82845216I82880984I83202397I83626687I84142719I84824525
1836I85598786I86240042I86579017I86660263I86666331I86711309I86818970I87089052
1828I87667623I88475796I89177807I89530633I89619161I89651645I89655358I89503218
1820I89159174I88711823I88176515I87490139I86759000I86248038I85985881I85655473
1812I85032637I84270013I83611124I83123721I82825011I82765825I82888337I83035193
1804I83130289I83177909I83122936I82854711I82363167I81828860I81479960I81293909
1796I80987988I80438545I79927440I79808856I80077723I80385785I80404919I80126913
1788I79812782I79662071I79645722I79663570I79667425I79646579I79710833I80079294
1780I80758387I81428984I81821221I81950156I81931736I81869624I81895541I82042897
1772I82159197I82116075I81966363I81782383I81520583I81158333I80873973I80956861
1764I81478460I82105509I82400007I82313906I82215169I82410359I82852141I83392303
1756I84092315I85038991I85961964I86404603I86338065I86258604I86568737I87207350
1748I87974472I88815486I89629585I90119343I90055446I89564260I89041732I88809132
1740I88885023I89056367I89111269I89001680I88840474I88768509I88825410I88977477
1732I89205365I89440249I89534917I89466094I89395343I89375281I89242775I88929501
1724I88581316I88291387I87985037I87594659I87147808I86730443I86465645I86419953
1716I86471999I86399749I86129453I85794333I85535389I85332061I85092465I84803107
1708I84468415I84020136I83479260I83082242I83022771I83182692I83310272I83346397
1700I83407581I83545299I83652603I83583137I83299277I82908827I82582774I82462976
1692I82624324I83049615I83593204I84018851I84177130I84170348I84259233I84569223
1684I85006150I85477989I86018222I86620925I87147951I87481073I87642778I87749797
1676I87939275I88311163I88866389I89510286I90115059I90557341I90784586I90881253
1668I90973850I91081726I91165684I91276486I91497521I91789591I92032185I92199103
1660I92407929I92795238I93340112I93814377I93999287I93971301I94042480I94376101
1652I94800463I95053981I95085394I95064333I95196982I95576652I96152368I96784199
1644I97304300I97575452I97581806I97478643I97467720I97605009I97788561I97915856
1636I97986749I98060070I98160164I98226631I98145100I97855742I97445587I97086979
1628I96855950I96697100I96624635I96808902I97314938I97897365I98254546I98388051
1620I98513704I98719674I98909866I99028807I99149819I99327017I99516495I99694122
1612I99913870A000158321A000255559A000080217I99759304I99582391I99727248
1605A000125266A000596605A001063875A001556132A002044177A002434413A002722271
1598A002987855A003285137A003671589A004214179A004836015A005346119A005719151
1591A006135517A006690886A007286806A007839177A008370915A008805343A008892158
1584A008553753A008181080A008296309A008909649A009446099A009357928A008689757
1577A008064923A008168300A009121187A010331876A011059517A011051521A010555266
1570A009972196A009669631A009823056A010229926A010508646A010576827A010705691
1563A011089288A011602321A011976851A012060310A011924019A011769453A011693134
1556A011588685A011358227A011117703A011067371A011203589A011290475A011207230
1549A011190096A011500871A012006693A012435053A012802729A013142776A013172404
1542A012756538A012287626A012158332A012276703A012387148A012442264A012514585
1535A012656373A012862414A013051107A013181971A013348532A013614543A013920107
1528A014273504A014787322A015411443A015883282A016024996A015914338A015744136
1521A015674527A015818742A016149650A016395101A016270162A015907841A015809675
1514A016241962A016931622A017491489A017866161A018158731A018301803A018225769
1507A018170368A018491853A019233344A020101345A020717469A020781795A020249272
1500A019462088A018876734A018688398A018879518A019360853A019841901A019920648
1493A019562753A019210427A019246266A019589311A019961057A020318880A020764946
1486A021118486A020966204A020222142A019286318A018529977A017964541A017508337
1479A017302225A017628278A018566601A019782716A020787862A021429975A021928229
1472A022430410A022829141A023047106A023227303A023529154A023870058A024004563
1465A023865917A023747974A024079740A025028772A026275015A027175571A027328709
1458A027006654A026779480A026749067A026506044A025821810A025015707A024612620
1451A024822160A025327696A025579286A025429360A025326911A025677665A026267518
1444A026634266A026722437A026742927A026635123A026200766A025640685A025447066
1437A025749559A026186058A026454855A026642405A026894138A027102178A027120098
1430A027066981A027128379A027193490A026994517A026549879A026191556A026153931
1423A026350120A026558803A026656041A026625626A026511469A026476986A026765915
1416A027406814A028083551A028525548A028780351A028854885A028556604A028029792
1409A027783771A027905139A028033505A028205277A028798270A029681906A030224781
1402A030042300A029314087A028598654A028428453A028819474A029256187A029326439
1395A029108832A028923566A028919853A028901577A028661909A028352062A028167224
1388A028048926A027919704A027854878A027935696A028141951A028335641A028299231
1381A027947690A027444866A026964460A026518109A026132728A025965666A026063904
1374A026217043A026259808A026324347A026599712A027050561A027617353A028464434
1367A029641997A030711755A031168316A031079146A030927292A031006681A031297824
1360A031689559A031996194A031942934A031452533A030869892A030709042A031157678
1353A031836558A032072227A031522427A030527703A029701325A029269824A029094767
1346A029266111A030207219A031932082A033556567A034050752A033435912A032762316
1339A032926449A034008843A035595276A037014576A037398387A036318134A034381089
1332A032747252A032140836A032428052A032941227A033172542A033153480A033073662
1325A032921666A032810649A033096437A033809157A034378876A034016412A032135482
1318A028847675A025291357A022849775A022034391A022680216A024663167A027625063
1311A030610520A032764029A034024122A034850001A035652461A036431863A036667319
1304A035847650A034315835A033245934A033629245A035401514A037462569A038498202
1297A038145590A037397102A037478062A038336995A038702815A037766420A036390098
1290A036270086A037920986A039892371A040341079A039068849A037333275A036006787
1283A035018917A034409646A034630466A035732565A037291725A039045932A040667775
1276A041293323A040384700A038800767A038129955A039048645A040839404A042279480
1269A042495017A041362575A039786638A039365917A040868176A043036035A044002487
1262A043888401A044400862A045823732A046943394A047515898A048071838A048372975
1255A047798330A046511822A045349323A044989287A045461911A046150143A046344547
1248A045850719A044917821A043929095A043355164A043371156A043433340A042954576
1241A042227434A041940718A042118702A042175817A041806856A041328020A041219431
1234A041629086A042276981A042630878A042200519A040918508A039333290A038318576
1227A038497845A039798703A041420831A042469529A042888608A043435481A044527300
1220A045656458A046116445A045729636A044875914A044342605A044802307A045902693
1213A046390667A045532376A043903108A042615529A042372577A043259711A044763255
1206A045964948A046214040A045670308A045006777A044650311A044431919A044043253
1199A043696638A043852062A044291059A044288131A043809297A043553209A043711131
1192A043884903A044205030A045245874A046800822A047810467A047701592A047209406
1185A047643835A049475217A051726393A053049597A053197453A052600034A051105699
1178A048492988A045824161A044849927A045993006A048013081A049860242A051805354
1171A054078233A055400367A054119356A050567964A047387033A047114310A049698321
1164A052801506A054493386A054897615A054981431A054868772A054129493A052914522
1157A051997902A052060086A053117921A054486532A055496677A056092240A056266654
1150A055556148A053916527A052417195A052211154A053242574A054550358A055372310
1143A055639464A055688582A055582420A054975005A053881045A052965354A052623808
1136A052497798A052272266A052153183A052226861A052128552A051556120A050558183
1129A049504846A049039004A049538258A050626578A051602740A052113060A052163463
1122A052036810A052236499A052953788A053835068A054629747A055372381A055723065
1115A055101943A053623529A051925795A050119971A047851089A045320409A043448047
1108A042901530A043406638A044352244A045556650A046967383A048162079A048766281
1101A049033293A049358132A049590589A049430525A049051998A048821326A048843743
1094A049061636A049351921A049395185A048875442A047940474A047079970A046556014
1087A046311563A046167134A045916544A045503105A045149064A045064535A045140855
1080A045192829A045302989A045643892A046179628A046758271A047221543A047356976
1073A047047272A046454350A045942317A045853289A046277080A047003865A047749925
1066A048376045A048813187A048933413A048742864A048519546A048490060A048551673
1059A048496843A048341848A048281163A048334923A048267813A048054061A047973601
1052A048159509A048471998A048836104A049391759A050189008A051000323A051545054
1045A051762518A051819062A051888742A052049662A052416481A053120420A053917527
1038A054203885A053917026A053662938A053915814A054581342A055123575A055153132
1031A054854208A054762539A055177977A055707143A055698006A055096517A054468255
1024A054349814A054721773A055246015A055695008A056029985A056329766A056714932
1017A057221326A057695450A057906917A057874290A057918768A058272023A058844669
1010A059412603A059847674A060101335A060113115A059861168A059446015A059074841
1003A058947332A059001663A058881936A058445294A057901634A057500260A057347193
996A057353618A057368254A057396382A057541740A057760489A057878645A057812107
989A057681242A057812892A058429374A059227551A059580663A059014228A057416801
982A054920818A052056372A050066140A050115402A052361223A055927821A059343707
975A061753235A063292261A064262140A064663300A064316685A062998264A060665557
968A057671533A054499668A051449601A048806119A046768980A044868275A041674207
961A035530379A027099822A018343711A009119331I98630075I86995955I75065123
954I64423299I56989037I53375890I52666026I53327985I53330341I51232090
947I47417257I42857933I38419907I34926701I33036205I33174137I35150948
940I37963490I41074670I45039072I49852413I53865934I56333646I58079642
933I59860906I62143424I65442368I69950717I74981879I79896455I85429299
926I92289344I98302594A001728119A003835936A005863794A008323795A011399635
919A014594132A017060201A018926852A021098282A023757756A026051910A027702739
912A029151739A030634365A031903382A032755748A033406712A034159413A035233669
905A036999227A039625860A041772801A042720191A043345954A044528157A046397092
898A048123027A049330789A050330867A051336443A052266984A052777589A052064369
891A049200853A044301983A037766420A029577386A020334158A012006836A006682890
884A004992438A006305290A009079280A011851413A014545870A017962828A021953574
877A024602125A024784749A022946370A019728885A015652967A011116703A006088326
870I99930220I91734475I81080300I68850331I57427963I49932730I48914732
863I54990522I66221984I79278403I91435765A001233648A007842889A010651362
856A009610375A005812248A001558559I99289464A000106990A003779250A009313093
849A014434853A017140947A017630848A016682745A014886773A013118002A012184677
842A012372656A013564567A015445498A018202067A022992847A029212352A032967857
835A033820151A032885469A030220783A025542162A019229489A012714701A007514480
828A004556724A004670097A008673908A017459790A029987755A040446312A046389953
821A050266684A054232086A058521471A062067151A064588337A066637612A068572800
814A070376911A071897304A072997904A073617099A073741823A073134551A071447097
807A068788980A065728774A062664928A059701603A056721858A052849268A046153213
800A036947252A028555890A021038811A012538217A001674502I87854460I71853350
793I56570957I44439368I34816541I26797995I23379752I30659591I48145754
786I66012730I73541375I63594208I36222705I02362616H77729048H71023712
779H80879067I00722639I23132374I40164119I46848608I44389892I34534109
772I16300029H90263154H63306374H42075986H26156408H09190702G80649633
765G39319655G00650580F70813364F46119184F24317649F05997611E93205597
758E87865730E90159456E98900752F12494336F29236366F48934724F73705938
751G03083238G29799421G49241263G63935303G76825518G88103600G96836508
744H03195729H08121229H12339792H16563495H22106904H30376541H40573727
737H49716860H56507441H61538746H65668567H69809881H74768009H80903483
730H88288055H96593960I04677546I11562008I17587750I23566874I29478245
723I34725229I39259136I43449141I47386272I51159625I55227905I59928444
716I64702876I68373066I70238146I69958927I66871307I60251000I50228513
709I38250420I27032665I20220239I20430421I27250629I38408626I51193466
702I62774684I71400501I76962259I80073511I81610182I82743623I84413728
695I86768995I89102916I90363151I89938503I87867739I84470129I80087790
688I74946039I69080789I62385304I54181850I42272579I23243320H95714823
681H63379410H32936850H10528899H00474428H04075867H18605702H38889986
674H60506898H81212831H99917393I15428459I26221066I30576346I26894876
667I14493419H93873302H66213869H34085069H03140471G81322943G74829788
660G84288767H04311893H26919674H45807789H58090447H63791064H64860751
653H64250195H64773151H67824574H72802478H77856486H81234034H82065910
646H80324412H76465671H71361688H66616742H64436175H66382072H72064769
639H79402223H86187306H91292003H94685973H96806927H98078800H98829073
632H99338464H99781103I00186118I00555507I00999145I01663389I02444004
625I02777697I01800465H98829858H93907642H88086726H83089691H80345615
618H80170130H81955036H85243843H90558294H98929023I10392371I23043704
611I33683957I39135412I36838045I24892792I02346624H69517098H28129506
604G81793354G36309140F98256761F72283497F59737112F59598894F69716834
597F87019016G07853743G29121898G49007807G66728140G82195727G95977574
590H08963243H21665765H33884525H45082147H54875102H63011234H69158345
583H73125319H75305386H76643726H78077948H80057829H82603359H85781078
576H89994143H95628008I02451501I09594193I16179731I21865499I26767296
569I31017342I34528112I37157459I38947076I40057671I40510162I40124852
562I38787084I36758155I34662403I33004577I31539086I29265279I25386120
555I20011413I13125023I03165149H88454473H70986302H57269137H53657989
548H61148724H75529276H91705514I06760662I19758966I30508666I39024538
541I45420598I49876044I52804743I54891000I56561747I57533054I57389910
534I56501920I55459648I53307067I47352289I35665694I19624747I03770064
527H93317719H91332983H97261417I07795080I19384651I29978070I38753243
520I45319577I49778735I52945459I55807405I58764733I61548503I63720218
513I65033499I65474281I65353341I65377186I66263820I68191798I70835352
506I73851008I77061495I80285264I83278216I85864584I88000031I89728750
499I91115280I92117071I92308835I90722046I86443370I79974488I73876924
492I71309761I73543160I79101205I85267450I90069867I92978076I94369462
485I94672741I93870850I91546067I87160802I80212514I70360872I57664418
478I42697155I26472656I10306627H95580746H83502130H75155960H71609352
471H73553250H80702582H91608847I03925203I14574309I19883976I16885883
464I05878453H91099955H77177677H65475162H55759310H50084537H51720016
457H60612631H72944836H85193868H96419903I06895952I16440888I24058346
450I28114703I27245275I22088746I16029163I13358908I16213286I23349980
443I31852003I39600183I46037508I51360812I55825825I59739537I63462559
436I67121398I70494234I73307133I75489628I77011021I77648135I77173941
429I75778343I74168493I73180196I73230242I74085035I75145298I75981529
422I76641846I77518485I78936572I80829424I82797953I84451067I85633626
415I86384755I86818185I87068704I87276031I87516055I87686684I87570528
408I87134815I86682538I86585514I86927131I87411821I87512271I86746149
401I84959245I82385228I79405412I76248183I72918896I69444109I66024224
394I62709002I59161394I55132024I50883547I46882020I43739570I42682591
387I44779771I48979272I52184263I52415935I51227449I52102732I56891799
380I64408807I72095372I78271971I82799524I86303582I89298319I91930878
373I94149713I95892211I97183217I98214923I99275184A000455532A001524076
366A002268352A002838357A003576493A004615695A005770911A006763065A007514979
359A008232840A009153957A010277689A011392924A012257926A012703992A012705706
352A012383150A011842346A011035958A009841547A008236195A006326851A004189048
345A001731474I98843827I95661182I92551287I89901022I88036513I87143310
338I86897646I86273668I84194407I80714695I77471937I76612503I78953492
331I83242734I87443163I90664360I93585348I97130671A001290335A005410517
324A009110407A012413207A015230746A017310649A018721382A019882738A021001258
317A021940937A022712843A023463330A023929957A023677010A023020405A023038039
310A024520880A027362407A030936216A034676657A038256821A041406125A043578268
303A043608253A039820193A031529067A021315889A014634326A015352044A022111068
296A030261763A036498545A040501998A043368586A046135507A049441019A053402638
289A057569797A061233776A063879115A065301913A065144134A062385780A055914042
282A046175916A036231319A030741241A033077160A042102639A051419473A053485526
275A046074894A033568847A020012388A001766386I69475166I17824706H51516974
268G80081127G08294382F35280814E63470153E03883035D68827107D61016208
261D72872541D95100509E22879346E55170459E92087506F33761992F78976768
254G22927952G57924481G78407738G83211227G70613082G36151004F81680149
247F23929126E87168860E85255839F12584077F52816025F92611116G26363473
240G53123063G72771732G85238798G92026166G96536156H01863529H09057053
233H18011638H28700225H40664182H52534401H63037079H71679103H78126138
226H82078047H84247834H86527567H90370315H95263117H99538294I02664466
219I05821625I10089306I15093410I19774958I23645336I26993113I30296842
212I33595643I36529553I38993767I41464763I44308504I47068000I49398494
205I51323259I52874351I54188775I55594225I57435388I59865190I62690582
198I65487489I68008460I70335313I72515523I74257093I75190133I75078974
191I73102877I67440383I57494645I46733594I40808230I42141358I48264696
184I55464574I62103443I68350220I74623984I80953506I86525829I87843465
177I77721314I50978286I13916562H83553962H73177793H81147291H96132260
170I08251783I12734359I10204678I07044879I10605409I21806456I33956750
163I38194304I29835068I11879637H93392753H83026722H83725877H93570380
156I09153910I26703471I42261869I53463775I60826430I66185716I70178033
149I70690566I62880846I42968879I14906573H90902196H81762916H87661294
142I00608267I14406963I28216796I42337476I55236258I64617775I68347793
135I63838659I49343450I27708975I07266198H96583823H97525144I03046136
128I02490339H91826597H79405436H78513733H93280808I15429316I34865303
121I48411766I57944566I65372189I71435770I76608648I80860551I82263717
114I76857311I61542934I37724465I11521171H90694155H81877503H87936301
107I05282605I26231917I44556096I57496143I64967173I68672918I71139416
100I74247527I78017168I80979493I82154199I82250152I82376732I82588128
93I82709497I83560077I85987666I89159888I91253641I91613321I91142838
86I90787299I90197804I87535973I79952499I65602147I47341508I33766773
79I33058551I44385252I58937290I69740535I76134382I80099641I82779962
72I84591426I85830958I86155655I84726573I81401285I77011235I72403079
65I67364278I60661155I51128355I38514718I24363053I13464427I11415009
58I18786731I31600984I44136517I49316249I41427853I20420212H92531892
51H64998397H41263530H24166175H18644754H26764822H44495507H63894013
44H76795937H78883478H71776198H60932331H49762481H35481166H13832627
37G87418152G65273215G54250936G58288445G83080220H23804067H60899490
30H86376356I03871800I15628360I21966164I24829537I26963699I29525151
23I31687298I31363958I27017173I19601544I12520179I09687647I12309711
16I17663143I22298571I24494774I24152943I20936885I12590929H96208222
9H72798123H50691524H38724781H37179401H41337349H48502103H60004217
2H76810573H91754204
##END=


$$ === CHEMSPECTRA PEAK TABLE AUTO ===
##TITLE=F. Hundemer FHU 142
##JCAMP-DX=5.00
##DATA TYPE=INFRAREDPEAKTABLE
##DATA CLASS=PEAKTABLE
##$CSTHRESHOLD=0.93
##MAXX=3997.453
##MAXY=0.8964418150898595
##MINX=373.96442
##MINY=0.38489159817831203
##NPOINTS=69
##PEAKTABLE= (XY..XY)
3651.819218326818, 0.829102156835894
3130.535482032838, 0.833084759855079
3117.7866950039092, 0.8306688050927735
3099.3717804065673, 0.8287557941269685
3078.1238020250194, 0.81726199174499
3063.9584831039874, 0.8104065043852965
3056.8758236434714, 0.8092231136996305
3046.960100398749, 0.809026299078644
3020.045994448788, 0.816541431544629
2981.7996333620013, 0.8205543739758241
2932.2210171383895, 0.820488093130489
2912.3895706489443, 0.8180193883662841
2902.473847404222, 0.817883191623333
2898.2242517279124, 0.8178839071124936
2886.8919965910864, 0.8197398759763125
2874.1432095621576, 0.8189086295193345
2865.6440182095384, 0.8200283625416286
2852.8952311806097, 0.8234041314024061
2838.7299122595778, 0.825533507292198
2830.2307209069586, 0.8254995921041386
2804.7331468491006, 0.8235388378908045
2786.318232251759, 0.8207026104727816
2770.7363814386235, 0.8202352507824641
2762.2371900860044, 0.821660695542022
2716.908169538702, 0.8298432808793266
2708.408978186083, 0.8307558276098745
2695.660191157154, 0.83276235893658
2675.828744667709, 0.8320584870825776
1719.669717498045, 0.795358477455789
1708.3374623612194, 0.7789700012036825
1596.4314428850662, 0.792226610250598
1490.1915509773257, 0.770908055520628
1477.442763948397, 0.7271972280915681
1446.2790623221263, 0.490795283132345
1374.035935824863, 0.7682702523654835
1332.9565109538698, 0.668297288788142
1308.8754687881155, 0.6468871815011821
1297.54321365129, 0.7215421779259176
1281.9613628381544, 0.7216974482573876
1247.9645974276777, 0.7348333575389451
1221.0504914777166, 0.550683616026591
1150.2238968725565, 0.7126989940533586
1117.6436633541825, 0.7441529611815996
1096.3956849726346, 0.8059508185973865
1069.481579022674, 0.8109236936795166
1041.1509411806096, 0.727686165165028
1022.7360265832681, 0.7097156029546805
1004.3211119859261, 0.762541888354862
977.4070060359654, 0.812485275905794
947.6598363017979, 0.823677060879021
922.1622622439404, 0.7870235421850116
915.0796027834244, 0.7941574433250486
844.2530081782638, 0.8153508283608796
743.6792438389366, 0.38489159817831203
719.5982016731818, 0.4886163464688835
637.4393519311961, 0.785458682233595
617.607905441751, 0.7289956196975645
609.1087140891318, 0.7572704539224435
597.7764589523063, 0.7372182590698331
576.5284805707583, 0.736163137139874
558.1135659734164, 0.7485367641028595
549.6143746207972, 0.7334504706089745
526.9498643471461, 0.7362588031333795
484.45390758404983, 0.7789886573539515
456.1232697419855, 0.7609189727613885
440.54141892885036, 0.6834672669628811
422.12650433150884, 0.6297063815694041
398.0454621657541, 0.7594768388205956
381.04707946051576, 0.6989414081789765
##END=

##END=

