##TITLE=JPK-577,X17120
##JCAMP-DX=4.24
##DATA TYPE=INFRARED SPECTRUM
##DATE=9/11/2020
##SAMPLING PROCEDURE=Diamant-ATR
##ORIGIN=Angelika Moesle
##XUNITS=1/CM
##YUNITS=TRANSMITTANCE
##RESOLUTION=4
##FIRSTX=3997.453
##LASTX=373.96442
##DELTAX=-1.4165319
##MAXY=0.84104747
##MINY=0.50685334
##XFACTOR=1
##YFACTOR=7.8328649e-010
##NPOINTS=2559
##FIRSTY=0.81481296
##XYDATA=(X++(Y..Y))
3997+1040248959+1040599684+1040977423+1041296339+1041474022+1041547759
3989+1041594710+1041614343+1041611147+1041618376+1041542813+1041216058
3980+1040739091+1040540710+1040905969+1041578425+1042036597+1042091614
3972+1041969100+1041864773+1041768208+1041743249+1042029444+1042694519
3963+1043370857+1043558813+1043178716+1042602596+1042130956+1041790808
3955+1041641585+1041840042+1042283451+1042510749+1042171286+1041518006
3946+1041187370+1041460630+1041979678+1042158122+1041804582+1041233484
3938+1040808338+1040690847+1040921340+1041484295+1042248523+1042970442
3929+1043470238+1043692361+1043555161+1042962985+1042067568+1041298850
3921+1041017753+1041264683+1041709310+1041810517+1041409798+1041019047
3912+1041161117+1041733660+1042209486+1042288702+1042101430+1041836618
3904+1041516179+1041185240+1041049789+1041195589+1041409189+1041492133
3895+1041585122+1041994744+1042735687+1043300240+1043286924+1043069138
3887+1043144853+1043401828+1043317438+1042773202+1042198148+1042058665
3878+1042467526+1043151397+1043727213+1043854597+1043458976+1042885519
3870+1042556710+1042576800+1042833242+1043238603+1043572054+1043454562
3861+1042867713+1042205453+1041756413+1041598286+1041738607+1042061709
3853+1042337707+1042687443+1043251006+1043700351+1043767924+1043548388
3844+1043317210+1043236700+1043266149+1043228178+1042998141+1042824415
3836+1043124460+1043765717+1044200223+1044141629+1043778805+1043429222
3827+1043209839+1043081161+1042995934+1042989009+1043224677+1043779110
3819+1044254859+1044071469+1043194239+1042491344+1042773811+1043703014
3810+1044477287+1044752829+1044786539+1044963842+1045219143+1045197684
3802+1044805868+1044399822+1044304322+1044328824+1044214148+1043963109
3793+1043646247+1043302219+1043139831+1043398023+1043912962+1044286820
3785+1044484744+1044741947+1044942611+1044747198+1044295038+1044164154
3776+1044511606+1044957983+1045184443+1045058429+1044506279+1043725386
3768+1043307241+1043598078+1044209583+1044447457+1044059750+1043359290
3759+1042774268+1042464330+1042356731+1042431837+1042662483+1042833166
3751+1042812924+1042988477+1043599144+1044103886+1043872555+1042998597
3742+1042377505+1042360232+1042537839+1042449339+1041828171+1040837559
3734+1040008345+1039685091+1040029652+1041179076+1042862538+1044314062
3725+1044937513+1045032024+1045313121+1045896926+1046311951+1046101014
3717+1045212066+1044062109+1043256790+1043188075+1043807798+1044674679
3708+1045370040+1045787272+1046024919+1046207548+1046363696+1046443368
3700+1046430432+1046356087+1046273828+1046275197+1046397331+1046462468
3691+1046139062+1045379248+1044777712+1044784637+1044958591+1044900911
3683+1044801074+1044968940+1045426275+1046037170+1046677362+1046905497
3674+1046110755+1044589071+1043058409+1041986526+1041924965+1042910479
3666+1044117659+1044764624+1044586864+1043797144+1042833774+1042062013
3657+1041607951+1041253802+1040670453+1039926314+1039280187+1038509871
3649+1036994656+1035241642+1034531137+1034852565+1035543513+1036385739
3640+1037485929+1038713883+1039678319+1040173092+1040321250+1040315771
3632+1040209694+1040070211+1040274223+1041021178+1041625757+1041608103
3623+1041210427+1040726535+1040178419+1039725117+1039946403+1040942951
3615+1041926411+1042190234+1041926258+1041935542+1042515162+1043108556
3606+1043231146+1043162203+1043262725+1043356551+1043104827+1042642166
3598+1042444926+1042635774+1042849831+1042766430+1042455427+1042007681
3589+1041294056+1040487139+1040371549+1041198328+1042112388+1042430011
3581+1042232163+1041870633+1041506059+1041142398+1040786803+1040447797
3572+1040097834+1039641565+1038967129+1038232350+1038026131+1038647071
3564+1039503375+1040015118+1040242187+1040379768+1040206270+1039417767
3555+1038331579+1037764210+1038183801+1039170152+1039810345+1039477274
3547+1038230600+1036767967+1035810304+1035452503+1035463384+1035810304
3538+1036539680+1037417214+1037892355+1037517280+1036486185+1035588181
3530+1035447404+1035857103+1036060811+1035630566+1034819692+1034219602
3521+1034181554+1034412200+1034320885+1033872378+1033638840+1033773529
3513+1033608478+1032721508+1031741397+1031506185+1031907437+1032225517
3504+1032158705+1032045399+1032291948+1032771046+1032962579+1032659338
3496+1032225289+1032018537+1031936963+1031792990+1031630526+1031419284
3488+1030975419+1030314148+1029598850+1028790258+1027823311+1026985879
3479+1026663767+1026887336+1027444660+1028100756+1028488539+1028198995
3471+1027300763+1026419728+1026035522+1026022585+1026061318+1026058883
3462+1025968025+1025679851+1025316418+1025208591+1025413821+1025589525
3454+1025474393+1025205319+1024976423+1024657430+1024052166+1023376209
3445+1023037279+1023029898+1023015973+1022829614+1022512981+1022076040
3437+1021532565+1020956293+1020365868+1019812577+1019581779+1019957082
3428+1020776099+1021466743+1021523205+1020880502+1019890118+1018981689
3420+1018379012+1018140604+1018246606+1018482121+1018472001+1018025852
3411+1017278061+1016483851+1015882316+1015638962+1015684467+1015755693
3403+1015729211+1015699610+1015684848+1015536690+1015230100+1014993139
3394+1015020229+1015221426+1015365779+1015321415+1015053559+1014595311
3386+1014150761+1013952760+1013949260+1013948499+1014002679+1014249457
3377+1014529412+1014554524+1014295723+1013915854+1013557900+1013358530
3369+1013421384+1013668162+1013852923+1013754531+1013360660+1012938254
3360+1012887117+1013397490+1014235379+1014913467+1015070452+1014706182
3352+1014125269+1013714505+1013702634+1013993775+1014239793+1014216279
3343+1014107691+1014286515+1014818043+1015309164+1015313882+1014835088
3335+1014297473+1014060816+1014133259+1014299299+1014302876+1014044836
3326+1013810689+1014083949+1014939339+1015902101+1016513681+1016770275
3318+1016967058+1017311315+1017743918+1018119298+1018478925+1018929716
3309+1019312933+1019366504+1019195061+1019175428+1019424565+1019716620
3301+1019878247+1019965529+1020023970+1019921469+1019603542+1019407139
3292+1019807326+1020789872+1021793725+1022400664+1022714406+1022887752
3284+1022749714+1022264833+1021936785+1022230894+1022880066+1023264425
3275+1023265870+1023312821+1023754709+1024510490+1025220310+1025604744
3267+1025760512+1026026847+1026487073+1026852864+1026903316+1026728296
3258+1026511195+1026369429+1026411129+1026713990+1027201762+1027636192
3250+1027805353+1027757489+1027791123+1028111257+1028556340+1028772984
3241+1028592181+1028161328+1027775371+1027634061+1027714266+1027873458
3233+1028060121+1028353697+1028767962+1029141743+1029363714+1029570314
3224+1029899731+1030142629+1029952618+1029408839+1029081552+1029429080
3216+1030325943+1031258190+1031827918+1031975163+1031851127+1031667660
3207+1031579694+1031563257+1031478182+1031289465+1031087736+1030924282
3199+1030808465+1030777875+1030839131+1030960580+1031160179+1031456267
3190+1031805089+1032184425+1032539640+1032655761+1032398711+1032021733
3182+1031939245+1032287383+1032890821+1033458113+1033695379+1033430338
3173+1032740075+1031894273+1031197694+1030877331+1031006466+1031494923
3165+1032188535+1032947512+1033647591+1034212525+1034628159+1034809951
3156+1034581969+1033946571+1033223054+1032742967+1032614061+1032861600
3148+1033469223+1034204687+1034730051+1034906364+1034784612+1034524821
3139+1034493698+1035026976+1035879323+1036364356+1036256757+1036158365
3131+1036696437+1037647632+1038214848+1038055428+1037640098+1037494908
3122+1037571004+1037591778+1037525118+1037483418+1037556698+1037796551
3114+1038063418+1038074072+1037847002+1037717944+1037731109+1037507236
3105+1036863543+1036108827+1035622424+1035460264+1035403421+1035215084
3097+1034836280+1034357030+1033823981+1033204030+1032520844+1031797860
3088+1030863482+1029511416+1027937302+1026739177+1026304215+1026369353
3080+1026373158+1026083690+1025638303+1025131810+1024529133+1023875396
3071+1023245096+1022494946+1021342935+1019739373+1017975020+1016257695
3063+1014278145+1011511233+1007997443+1004487002+1001703958+999770597+998418987
3053+997469010+996988086+997114633+997789601+998736306+999751649+1000811281
3043+1001829135+1002612844+1003147263+1003624382+1004119536+1004446823
3034+1004401394+1003992380+1003370756+1002631030+1001852953+1001285736
3026+1001218925+1001638668+1002242258+1002753925+1003036087+1003064014
3017+1002995072+1003073450+1003349144+1003659462+1003852669+1003852136
3009+1003651472+1003432317+1003511989+1004033776+1004862229+1005808934
3000+1006757694+1007526640+1007794572+1007265252+1005928937+1004184370
2992+1002630650+1001655257+1001292737+1001449114+1002065488+1003042251
2983+1004228733+1005513379+1006787676+1007907270+1008844311+1009739423
2975+1010638112+1011310949+1011465119+1011066454+1010358233+1009524606
2966+1008432101+1006955847+1005533696+1004931096+1005307464+1005991411
2958+1006377597+1006600328+1007115952+1007982909+1008796523+1009177001
2949+1009166500+1009123430+1009302635+1009657240+1010022119+1010285790
2941+1010354580+1010123706+1009517681+1008496250+1007089014+1005485148
2932+1003945201+1002565132+1001237644+999892350+998699552+997931747+997599438
2922+997367803+997017611+996847233+997311416+998346925+999369574+999904602
2912+999971414+999902699+1000028942+1000482471+1001114293+1001652137+1002063357
2902+1002608810+1003384833+1004053713+1004306351+1004398655+1004892591
2894+1005962039+1007228726+1008237981+1008888066+1009411451+1010093496
2885+1011000403+1011886689+1012435110+1012661646+1012904772+1013260671
2877+1013295598+1012617511+1011531094+1010781172+1010736884+1011085250
2868+1011279370+1011054127+1010472681+1009682276+1008802458+1007941285
2860+1007126529+1006305915+1005527152+1004945782+1004553966+1004152486
2851+1003699641+1003409412+1003431480+1003699260+1004117634+1004637747
2843+1005132064+1005436066+1005523043+1005460645+1005237380+1004799678
2834+1004225081+1003700858+1003321750+1002974602+1002451293+1001693837
2826+1000901606+1000295200+999836877+999323231+998662798+997904049+997077422
2816+996140153+995029081+993766579+992557040+991666570+991155512+990866044
2806+990651987+990423015+990028916+989338501+988436921+987589140+987021314
2796+986803148+986861514+987036686+987187659+987312152+987544548+987993283
2786+988577926+989036554+989177026+989154426+989360112+989947038+990653433
2776+991198962+991602573+992003064+992435515+992882120+993355739+993884984
2766+994490096+995109590+995556652+995681220+995566468+995476599+995618898
2757+995967264+996315097+996541329+996737275+996949049+996968758+996602281
2747+995993060+995476143+995247628+995298003+995505516+995658087+995502548
2737+994942028+994185714+993626259+993561350+993998595+994636200+995058987
2727+995098785+994989740+995061726+995334148+995559468+995603831+995625214
2717+995825422+996144719+996371636+996524131+996872953+997524332+998226313
2707+998691714+998928219+999164192+999552127+1000047053+1000565568+1001148993
2697+1001853562+1002569926+1003091180+1003304172+1003248394+1003117053
2689+1003190181+1003583367+1004071444+1004329103+1004305362+1004249507
2680+1004437387+1004957120+1005691290+1006431929+1007014136+1007381373
2672+1007597104+1007836806+1008279986+1008938137+1009653055+1010291193
2663+1010817317+1011195360+1011424636+1011652999+1012007376+1012351024
2655+1012480995+1012484800+1012648025+1013095087+1013693198+1014216203
2646+1014532608+1014697888+1014833566+1014943144+1014993519+1015072583
2638+1015235960+1015342570+1015278954+1015183378+1015276975+1015632266
2629+1016209831+1016954883+1017758909+1018424137+1018759033+1018702646
2621+1018352987+1017965813+1017918329+1018465304+1019420000+1020255073
2612+1020595524+1020455737+1020050604+1019632991+1019494041+1019843471
2604+1020580305+1021301006+1021648459+1021627304+1021491778+1021427401
2595+1021493300+1021713292+1021995911+1022144222+1022121088+1022067898
2587+1021998042+1021801335+1021584919+1021651579+1022066071+1022467552
2578+1022427145+1021946221+1021486680+1021443077+1021736654+1022059679
2570+1022300522+1022515111+1022646833+1022489391+1021954896+1021353588
2561+1021249414+1021849199+1022690588+1023131181+1022953955+1022401881
2553+1021931763+1021940970+1022413752+1022946878+1023340216+1023818553
2544+1024509196+1025159205+1025510310+1025535269+1025287198+1024838386
2536+1024335318+1023963287+1023887800+1024160526+1024593130+1024891729
2527+1024933581+1024724471+1024264016+1023759274+1023715976+1024393379
2519+1025364815+1025982255+1026113063+1026091908+1026129423+1026110171
2510+1025888657+1025523474+1025259803+1025417549+1026184897+1027397404
2502+1028543936+1029059408+1028708988+1027749651+1026679138+1025870927
2493+1025539835+1025817279+1026573593+1027398546+1028046500+1028649101
2485+1029312958+1029834213+1029952390+1029649149+1029117393+1028569276
2476+1028147402+1027973143+1028138119+1028575744+1029121578+1029734300
2468+1030400212+1030882354+1030935392+1030658100+1030285764+1029882229
2459+1029540104+1029547713+1030031453+1030699877+1031164364+1031319447
2451+1031289313+1031185443+1031044057+1030897877+1030806943+1030849252
2442+1031089410+1031455277+1031681053+1031581901+1031359549+1031400413
2434+1031790402+1032263184+1032548543+1032529138+1032164641+1031544842
2425+1030984170+1030858764+1031305597+1032104982+1032827509+1033125804
2417+1032952230+1032505777+1032020515+1031671465+1031580455+1031723058
2408+1031873803+1031836440+1031740255+1031932853+1032541618+1033288801
2400+1033789357+1033880976+1033661212+1033411314+1033426610+1033657027
2391+1033647667+1033154188+1032576470+1032439726+1032721432+1033008160
2383+1033064471+1032996898+1033047197+1033379202+1033929906+1034390360
2374+1034429473+1034003643+1033397541+1032935261+1032735586+1032759708
2366+1032889908+1032939294+1032895691+1033043392+1033452330+1033724067
2357+1033633818+1033406825+1033137446+1032644195+1031986653+1031533884
2349+1031615230+1032351379+1033531926+1034503667+1034624963+1033942005
2340+1033010215+1032316756+1032051410+1032160455+1032496798+1032948273
2332+1033457352+1033904490+1034034842+1033701619+1033195888+1033036544
2323+1033320913+1033572181+1033491748+1033511532+1034218841+1035509955
2315+1036626201+1036937964+1036501328+1035789302+1035126585+1034606015
2306+1034296534+1034243496+1034423234+1034819768+1035376103+1035848123
2298+1035953364+1035710695+1035410878+1035191038+1034832476+1034114894
2289+1033250296+1032779721+1033092017+1034148681+1035569081+1036849085
2281+1037649839+1038092334+1038650343+1039489145+1040050883+1039696049
2272+1038677738+1038011445+1038401815+1039632585+1040877281+1041384534
2264+1041101839+1040619697+1040261896+1039703506+1038935093+1038768824
2255+1039621856+1040613990+1040686585+1039977907+1039483286+1039919922
2247+1041315211+1043146984+1044561905+1044881430+1044174274+1043103838
2238+1042230793+1041831367+1042158578+1043152843+1044033117+1043910451
2230+1042726403+1041135245+1039824118+1039282698+1039652294+1040446808
2221+1040954898+1041092175+1041325940+1041688155+1041628344+1041110285
2213+1040981988+1041692036+1042495758+1042709434+1042754711+1043098739
2204+1043365987+1043504253+1044483298+1046737630+1049110367+1050208274
2196+1049779551+1048358314+1046661611+1045478781+1045136503+1045171887
2187+1045216936+1045630744+1046529661+1047032501+1046357913+1044866516
2179+1043335701+1041959664+1040607674+1039486634+1039087817+1039528791
2170+1040233208+1040659723+1041210427+1042629382+1044586941+1045983295
2162+1046580645+1047065602+1047759442+1048357553+1048556162+1048135430
2153+1047002062+1045548256+1044510388+1044449664+1045620395+1048002871
2145+1050976383+1053042149+1052598740+1049594335+1046106113+1044607030
2136+1045738267+1048048148+1049674691+1049921013+1049300149+1048461347
2128+1047484737+1046355250+1045538820+1045387923+1045485401+1045327883
2119+1045139851+1045293792+1045497196+1045157810+1044092928+1042661494
2111+1041617006+1041670577+1042720088+1043793644+1044055869+1043492153
2102+1042611804+1042066198+1042397594+1043460193+1044283471+1044210344
2094+1043917908+1044546534+1046114483+1047503000+1047855626+1047369604
2085+1046723324+1046282274+1045987860+1045660345+1045250494+1044949156
2077+1045142058+1046148955+1047777857+1049172689+1049559026+1049237218
2068+1049249089+1049938895+1050483435+1049940874+1048162444+1045677086
2060+1043356475+1042184299+1042707532+1044544555+1046634064+1048052714
2051+1048510962+1048170206+1047484661+1047246405+1048082467+1049644862
2043+1050933769+1051459285+1051349708+1050475521+1048645955+1046775374
2034+1046579808+1048465304+1050619646+1050915202+1049235848+1047396846
2026+1046947197+1047588607+1047887358+1047147481+1046208233+1046395048
2017+1047997621+1050124949+1051877811+1052868575+1052845595+1051915783
2009+1051024703+1051114192+1051804150+1051888997+1050873197+1049202062
2000+1047606261+1046839066+1047319990+1048393242+1048657598+1047552005
1992+1046094090+1045578542+1046199863+1047406434+1048591699+1049091038
1983+1048445596+1047052894+1045973783+1045896850+1046666405+1047876096
1975+1049449525+1051423368+1053534564+1055106014+1055234083+1053535021
1966+1050899983+1048750434+1047527655+1046724237+1046041432+1045692305
1958+1045638201+1045252549+1044202810+1043336766+1043940965+1046017994
1949+1048129723+1049138522+1049284397+1049445035+1050108056+1051055142
1941+1051608204+1051358382+1050563640+1049618229+1048482806+1046989963
1932+1045412958+1044281873+1043818223+1043841052+1044137368+1044683962
1924+1045403066+1045903699+1045828668+1045268985+1044546990+1043876512
1915+1043377325+1043156496+1043306328+1043956869+1045118012+1046295058
1907+1046671807+1045891447+1044328977+1042627175+1041338877+1040908099
1898+1041481936+1042568201+1043307622+1043449616+1043594578+1044097113
1890+1044397463+1043967523+1043273987+1043002326+1043109469+1043190130
1881+1043225134+1043558509+1044329661+1045213664+1045757443+1045910623
1873+1046101395+1046740598+1047727634+1048457847+1048527551+1048242192
1864+1048091218+1048227353+1048510505+1048706375+1048628377+1048269663
1856+1047876857+1047783107+1048129799+1048748608+1049246426+1049255861
1847+1048728519+1047951963+1047285518+1046948948+1046944458+1047107683
1839+1047215739+1047117651+1046827195+1046475405+1046209831+1046136779
1830+1046253586+1046442684+1046580493+1046541304+1046173305+1045507545
1822+1044849775+1044538848+1044724217+1045239536+1045670998+1045699230
1813+1045300032+1044662656+1044108528+1043940356+1044189798+1044648882
1805+1045126458+1045502142+1045637440+1045500544+1045355202+1045509904
1796+1045971271+1046508811+1046872395+1046973526+1046981440+1047060960
1788+1047148775+1047120848+1046973526+1046795843+1046621737+1046408669
1779+1046137769+1045866944+1045712623+1045782554+1046054216+1046315376
1771+1046384927+1046265381+1045952552+1045513176+1045185661+1045029284
1762+1044678560+1043815103+1042768865+1042116041+1042103028+1042591943
1754+1043269574+1043875980+1044278145+1044481700+1044520357+1044315888
1745+1043780099+1042919001+1041681915+1039800528+1037184895+1034391958
1737+1031957965+1029713906+1027319482+1025205471+1023949818+1023498190
1728+1023644750+1024152384+1024725384+1025179751+1025524235+1025803050
1720+1025914758+1025691037+1025319766+1025385817+1026033467+1026949886
1711+1027872241+1028705335+1029526863+1030536652+1031832559+1033262167
1703+1034682567+1036028242+1037038867+1037603344+1038141797+1038839669
1694+1039427736+1039842381+1040255275+1040619088+1040713447+1040554635
1686+1040426567+1040556614+1040874085+1041169944+1041345345+1041378522
1677+1041376316+1041553542+1041954946+1042333065+1042509988+1042554427
1669+1042656700+1042923187+1043324515+1043831235+1044380645+1044766222
1660+1044806172+1044596072+1044415954+1044488169+1044748644+1044739056
1652+1044434749+1044425085+1044747350+1045080116+1045079431+1044776342
1643+1044452251+1044211942+1044026268+1043839454+1043606829+1043290348
1635+1042844732+1042222879+1041353106+1040176745+1038776053+1037374753
1626+1036055864+1034658065+1033162558+1031918015+1031140850+1030551034
1618+1029667107+1028372417+1027296578+1027002240+1027541301+1028813771
1609+1030526531+1032081316+1032765720+1031933006+1029244777+1025276240
1601+1021726761+1020389457+1021875528+1025346780+1028990998+1030806639
1592+1029517579+1025183403+1019332261+1014438554+1012538676+1013932823
1584+1017181572+1020227450+1021657134+1021170655+1019172841+1016753915
1575+1015770684+1016787016+1018769763+1021074241+1023530911+1025880287
1567+1028034248+1030170175+1032226354+1033916057+1035210747+1036559389
1558+1038289955+1039613105+1040104226+1040106052+1040060014+1040245155
1550+1040670072+1041284392+1042154773+1043336538+1044708389+1046094394
1541+1047634417+1049490007+1051042357+1051939372+1052584358+1053441271
1533+1054584303+1055668208+1056602738+1057637790+1058859277+1060005200
1524+1060766308+1061092758+1061339536+1062084512+1063401574+1064859185
1516+1066024437+1066752748+1067204603+1067532119+1067661557+1067526336
1507+1067581885+1068297184+1068978239+1069082947+1068466877+1066680305
1499+1063107160+1057890732+1052690055+1049084494+1046653392+1043658651
1490+1038507512+1031486553+1024818753+1020008066+1017227381+1016097057
1482+1015751127+1014865070+1011907615+1005518630+994899643+979632966+960348670
1472+942214407+932070409+930696655+936018248+947503431+964011379+981045300
1462+994882521+1005812967+1015759269+1025395558+1031726406+1032463772
1453+1030023767+1027375184+1026377799+1027070878+1026190452+1018044420
1445+998486028+967233875+928579904+890111835+857203005+831699570+817746835
1435+820189275+836258761+860257026+887809411+913481627+932506817+944420114
1425+951260118+955000901+957397835+960284369+965225484+972060390+978794012
1415+984319465+988664523+991816478+993707834+994312946+993417909+990497589
1405+984956461+976960565+967439866+956813345+945292702+934437210+926581786
1395+923029949+923886252+928201024+934435384+941526351+948949095+956021571
1385+961881616+966173331+969019686+970592582+971096715+970893616+970448685
1375+970248325+970721944+972062596+974229190+977138172+980590248+984250370
1366+988021743+992119338+996529686+1000723542+1004276293+1007347891+1010296139
1356+1013198196+1015782174+1017708153+1018765273+1018790993+1017639363
1347+1015222339+1011477903+1006384902+999927278+991929328+982293344+971711263
1337+961606226+953025764+946196032+941007303+937457139+935709908+935852207
1327+937633681+940486961+943790727+947142357+950419109+953557748+956362022
1317+958665055+960600090+962577738+965059672+968304768+972230539+976573467
1307+981119341+985656160+989849103+993335574+995869253+997291631+997496328
1298+996580975+995073749+993883843+993811248+995017134+997041505+999287542
1288+1001335427+1002852545+1003555363+1003478659+1003109443+1003023531
1279+1003417326+1004126156+1004976372+1005940884+1007040770+1008239960
1271+1009402929+1010333426+1010895468+1011087457+1011031679+1010947441
1262+1011066150+1011516636+1012300268+1013301686+1014276623+1014975256
1254+1015338004+1015454582+1015327655+1014799628+1013725158+1012206747
1245+1010703478+1009811638+1009821378+1010550678+1011649270+1012894575
1237+1014168034+1015385944+1016572655+1017840027+1019188288+1020440061
1228+1021441251+1022235080+1023005395+1023905530+1024942408+1025988723
1220+1026928503+1027760608+1028524304+1029211523+1029835050+1030469764
1211+1031132480+1031694065+1031970140+1031871977+1031441809+1030713041
1203+1029567042+1027817147+1025438628+1022636103+1019732296+1017030598
1194+1014701008+1012791465+1011412385+1010796696+1011059225+1011990864
1186+1013160833+1014163088+1014807922+1015198901+1015607154+1016174295
1177+1016695549+1016592440+1014957602+1010680878+1002829259+991237010+976914147
1167+961902999+948657953+939313187+935084555+935948620+940809911+948141340
1157+956684820+965777634+975191495+984748720+994109618+1002847142+1010590705
1147+1017122826+1022474933+1026901413+1030639304+1033753516+1036260257
1139+1038260354+1039877613+1041162639+1042098463+1042659515+1042838188
1130+1042537763+1041341768+1038450516+1032924759+1023993192+1011191251
1122+994421154+974006306+950659495+925330471+899027270+872769651+847761826
1112+825563526+807854257+795820044+789717406+788925480+792339280+798902448
1102+808021515+819512938+833168367+848453763+864598431+880841186+896543054
1092+911130806+924067512+935022233+944067411+951556206+957700391+962315513
1082+965004502+965501483+963831717+960393566+956154890+952679909+951569598
1072+953575021+958210156+964250471+970565948+976543941+981999538+986949024
1062+991434858+995406287+998789877+1001681510+1004284740+1006625820+1008545103
1052+1009974635+1010997055+1011648433+1011877253+1011677578+1011188131
1044+1010742744+1010767094+1011371445+1012023965+1011783807+1009914748
1035+1006357355+1001810492+997394056+994019445+991903379+990495458+988643292
1026+985005086+979019483+971898382+966278038+964311956+966005159+969514536
1016+972902463+975468711+977697855+980387606+983942183+988192730+992462301
1006+995546227+995722997+991160534+980861529+965798179+949431389+936789248
996+932150461+936678149+947827598+961166317+973075505+982103028+988487676
986+993101276+996758582+999919136+1002691298+1005068068+1007093123+1008830842
976+1010324218+1011605592+1012727697+1013807493+1014971832+1016230073
967+1017572551+1019188593+1021320563+1023865656+1026307031+1027952141
959+1028175329+1026846244+1024847822+1023811552+1024878869+1027788536
950+1031324926+1034413646+1036641192+1038074680+1038950845+1039473317
942+1039719182+1039698027+1039486938+1039246933+1039119321+1039118560
933+1039104406+1038880837+1038363539+1037656916+1036952727+1036338560
925+1035733600+1035064111+1034452607+1034155377+1034425364+1035484310
916+1037382591+1039785766+1042153252+1044151522+1045644365+1046395809
908+1046095612+1044544403+1041535508+1036647888+1029394913+1019677203
899+1008117750+995929444+984436347+974737280+967699504+963982919+963899518
890+967258986+973298769+980737874+988086957+994212271+998840177+1002612083
880+1006565324+1011412689+1017215054+1023572460+1029941432+1035846982
871+1041006187+1045256582+1048304362+1049587182+1048370565+1043983655
863+1036199685+1025547901+1013090597+999832767+986539553+974061475+963386178
853+955143656+949268011+945312867+942954513+942056433+942483938+944210775
843+947547794+952907054+960259106+969006445+978356006+987633199+996334273
833+1004128668+1010896533+1016759089+1021990661+1026732633+1030794844
824+1033944745+1036333005+1038365442+1040179560+1041498753+1042073656
816+1042129890+1042280788+1043034971+1044480483+1046369023+1048350248
807+1050191000+1051914869+1053700148+1055712648+1058185678+1061379943
799+1065148577+1068842104+1071857696+1073741823+1073509351+1069590885
790+1060926870+1047683118+1030693408+1010883064+989716620+969578836+952822512
781+940477754+932595773+929978161+934649288+947757438+967189359+987684335
771+1002988223+1007948057+1000143542+981434833+958049290+937714647+925380846
761+920856659+919996703+918084344+912541238+903318605+891700407+879121654
751+866617703+854547422+842442973+829436411+815384372+801850391+792120657
741+790267882+799463349+819860314+847480120+875777786+899477680+917632717
731+933144346+949348444+966596803+981255780+987743538+982078221+964027207
721+936568495+904403119+873366012+850100548+840226156+845049094+859667970
711+875293209+883900153+880892779+865270203+839405998+808778742+780147245
701+758387712+744663873+737259012+733505293+730574851+725176935+714324487
691+697468249+677540185+659637937+648628352+647085514+654545697+668576353
681+686684211+707480526+730165381+753395233+775531743+795420162+812236221
671+825899792+838206047+851971053+866270936+877021035+884311830+890192344
662+895436928+900122362+904907404+910947416+918734429+927381551+935238877
652+941287258+945687790+949017733+951661446+953986927+956335161+958640248
642+960432071+961316758+961436152+961511867+962394424+964476475+967521212
632+971088192+974944641+978639538+980659952+979031278+973840113+968454828
622+966594748+968279352+969807504+967908006+963427041+960592328+963073044
612+971148993+981916823+991705911+998548502+1002669915+1005211660+1007023800
602+1008444277+1009263598+1007852633+1000449294+983177346+956726748+929035032
592+911545907+910843012+923821038+941861171+958202394+970572416+979470502
582+986242324+992400359+999003630+1006015762+1012804249+1019111660+1024980228
572+1030189732+1034572305+1038608871+1043052625+1047826938+1051472145
564+1051629511+1045488978+1029199500+997648900+947542696+883455146+821088268
554+781571222+778565218+809039522+856266573+901336391+932318709+945760614
544+944335267+934478758+923803308+918342537+920694956+929709011+941555115
534+951227473+953707199+945177189+924581081+893956565+857366763+820350141
524+788623685+765555232+752222676+749151534+755706104+767901943+778753859
514+782003064+775562410+762344530+748297437+738653235+735276037+737055456
504+742390670+750264737+758396615+762542227+759803927+751372612+741224733
494+732802778+727031993+723139780+720605188+720124036+723418823+732464305
484+748082163+768524786+789854226+808190143+821381845+829135757+832211389
475+831226864+826910722+822207787+821781956+827869603+838615289+850239727
465+860187398+868192882+874485378+878181113+878163611+875353248+872543799
455+870740334+868677687+866023169+864282482+864655198+866703463+869086777
445+870705178+871432728+871883518+872561606+873968004+876959094+881268691
435+884097392+882591537+877496328+872771021+872202587+876034608+880057402
425+878934839+872319698+865992198+865020914+868029200+868993179+866718226
415+865417143+868419419+876676855+887687506+896139595+898193795+894690659
405+889348444+884277663+878168861+868489122+855965158+848652677+855731773
395+873749306+891737770+903174023+906902555+905235300+902824744+903735456
385+907217971+908088885+905383458+904487052+908490898+915436827+922641024
375+929892553+937100631
##END=
