##TITLE=X7368
##JCAMP-DX=4.24
##DATA TYPE=INFRARED SPECTRUM
##DATE=26/10/2018
##SAMPLING PROCEDURE=Diamant-ATR
##ORIGIN=ComPlat
##XUNITS=1/CM
##YUNITS=TRANSMITTANCE
##RESOLUTION=4
##FIRSTX=3997.453
##LASTX=373.96442
##DELTAX=-1.4165319
##MAXY=0.8415913
##MINY=0.28985643
##XFACTOR=1
##YFACTOR=7.8379298e-010
##NPOINTS=2559
##FIRSTY=0.8415913
##XYDATA=(X++(Y..Y))
3997+1073741823+1072950256+1071468948+1070127717+1069365580+1069278507
3989+1070007032+1071403092+1072765691+1073371705+1073060295+1072326295
3980+1071918382+1071919219+1071391913+1069658967+1067508527+1066173228
3972+1065791779+1065908738+1066570342+1067861534+1068976222+1068692873
3963+1066892855+1065166297+1065207742+1066821675+1068566636+1069695774
3955+1070107641+1069104817+1065711778+1060407997+1055924681+1054974329
3946+1056520656+1056801192+1054806114+1053992569+1057123780+1062266647
3938+1065922807+1066242126+1062596232+1055529163+1048375933+1046074541
3929+1049550242+1054114168+1055135699+1052935676+1051539084+1052580844
3921+1053181154+1050888735+1047705812+1048255856+1054077893+1061807555
3912+1067385179+1069210750+1067162972+1060568455+1048700119+1033505666
3904+1020626901+1015026387+1016639179+1023629670+1034632978+1045956213
3895+1052338104+1050991930+1044440531+1040191210+1042220965+1045143961
3887+1043088198+1037411181+1033459201+1031695609+1030568221+1033637606
3878+1042333361+1049451610+1048590536+1040988024+1031908083+1024512645
3870+1021261052+1024285874+1029275280+1029858632+1026987347+1028062263
3861+1035616942+1043701360+1046528538+1042156097+1029723041+1010514097
3853+998163171+1007386764+1027528950+1044352774+1053147085+1053820857
3844+1048069010+1038304955+1026685215+1015329280+1008324112+1010186109
3836+1019037911+1028129412+1034361568+1038969068+1042775723+1044356956
3827+1043147210+1041138064+1038955760+1033351596+1023393850+1017023670
3819+1019985982+1026570081+1033068779+1042150014+1053185261+1060644121
3810+1060739863+1053531728+1043214207+1036201435+1032898435+1027347883
3802+1018794867+1015547305+1021211166+1029962207+1039085191+1049590090
3793+1059700613+1066024785+1067971953+1067166242+1064506138+1060393092
3785+1057027734+1056524915+1056962258+1055014101+1052010344+1052850276
3776+1057999759+1062779504+1063162398+1058249191+1050591165+1045186927
3768+1044406006+1045839025+1047428775+1048729929+1047662846+1041995943
3759+1034209019+1030466166+1031677206+1031781769+1024896679+1009756066
3751+993708372+988968551+994303359+999548280+1001912259+1006580901+1015845559
3741+1023773170+1024929379+1017140097+1002035987+988767941+989765594+1005491840
3731+1024279411+1036266226+1038518417+1033314029+1026467038+1023661914
3723+1026016235+1031504884+1038387845+1044944415+1048492056+1046249752
3714+1036804939+1022619469+1013312377+1018353646+1033195472+1047045197
3706+1054442080+1054748243+1050537629+1047482236+1049669027+1054891210
3697+1058820604+1059295590+1055423535+1046194846+1031997513+1018451594
3689+1015865027+1026504909+1041252666+1052542060+1057629185+1055822018
3680+1047841327+1034988266+1018447183+1004123841+1002415610+1009839337
3672+1013761051+1013090169+1018196230+1032291280+1046782077+1055750002
3663+1059373918+1059952099+1058496494+1054130442+1046915158+1040400109
3655+1036931861+1031656065+1017492344+994417201+977699157+984639001+1006974517
3645+1027955342+1041314872+1047907487+1050718315+1051958480+1051960533
3636+1050232759+1046838503+1041973814+1034183771+1021583641+1009171726
3628+1009863672+1023494688+1036907906+1042593896+1039292265+1029257105
3619+1019165289+1015852479+1017448770+1018202161+1017654703+1018474636
3611+1020209939+1021001506+1023034531+1029471631+1037679625+1042102484
3602+1040897301+1037094296+1034527425+1033571598+1032670144+1032295463
3594+1034290312+1037283271+1036184629+1027624616+1016102748+1013170931
3585+1022336273+1034488337+1042222258+1045105101+1045885413+1046752114
3577+1048150912+1049541573+1050145990+1048609624+1042506063+1029624941
3568+1012254419+1001028980+1005394957+1019740732+1032956915+1040912510
3560+1045486398+1048848866+1050306524+1048272890+1043685543+1040127863
3551+1039705578+1039717441+1036105845+1029436498+1025422692+1028480671
3543+1036689273+1044954681+1049684996+1050264014+1048832288+1048426124
3534+1049922185+1051328968+1050343026+1046645041+1041750390+1037271636
3526+1034037458+1033014710+1035437701+1040947416+1047049988+1051398398
3517+1053523971+1054093103+1053443438+1051331934+1047981405+1045061907
3509+1044549050+1045807846+1045612635+1042408647+1039104203+1039717973
3500+1043949804+1048044143+1049761195+1050037091+1050582420+1051405394
3492+1051289119+1049892071+1048376998+1047835091+1047701934+1046518348
3483+1044203723+1042794583+1044339846+1048320876+1052122664+1053791427
3475+1053501386+1052599399+1051960913+1051629503+1051528209+1051808668
3466+1052388066+1052631187+1052027682+1051028204+1050614740+1051102806
3458+1051930419+1052476660+1052612403+1052499018+1051992777+1050450708
3449+1047650070+1044888977+1044114825+1045536969+1047453338+1048594795
3441+1049057689+1049063013+1048330077+1046930595+1045616665+1044907609
3432+1044560837+1044208362+1043954139+1044071782+1044441976+1044418174
3424+1043268808+1041119280+1039420784+1039674475+1041577612+1043306603
3415+1043518393+1042330928+1040679504+1039407780+1038850968+1038822222
3407+1038870740+1038645034+1038078412+1037240533+1036057859+1034428945
3398+1032694174+1031502679+1031033549+1030911570+1030959099+1031292031
3390+1031682605+1031606635+1031017275+1030582746+1030981229+1032035993
3381+1032711513+1032167629+1030732709+1029575131+1029424483+1029880685
3373+1030048596+1029568286+1028733221+1027851082+1027029249+1026470688
3364+1026397759+1026744911+1027290848+1027838763+1028109868+1027898840
3356+1027390773+1026963088+1026847726+1027190315+1027974658+1028746225
3347+1028996570+1028833906+1028662270+1028349567+1027441953+1026088098
3339+1025058202+1024882611+1025421095+1026176312+1026702097+1026824076
3330+1026651678+1026327797+1025904142+1025641402+1026077908+1027384994
3322+1028927824+1029875438+1030051105+1029879012+1029703041+1029450186
3313+1028816796+1027603551+1026083688+1025184135+1025824065+1027730929
3305+1029435281+1029793840+1029042426+1028171162+1027874277+1028247056
3296+1028856568+1029027520+1028550177+1028070704+1028384776+1029418551
3288+1030274530+1030271260+1029632013+1029078928+1029069650+1029595207
3279+1030354835+1030790657+1030298712+1028935504+1027769104+1027968346
3271+1029503495+1031215604+1032175386+1032404437+1032185044+1031494162
3262+1030509969+1029919849+1030179015+1030911190+1031394389+1031339407
3254+1030989822+1030679172+1030472250+1030236734+1029922130+1029622279
3245+1029454597+1029554674+1030062436+1030890125+1031617433+1031838044
3237+1031576064+1031204121+1031011267+1031033473+1031276365+1031831580
3228+1032610827+1033212202+1033318591+1033080870+1032862085+1032762996
3220+1032619497+1032302611+1031843367+1031405948+1031233323+1031439789
3211+1031878044+1032364741+1032850678+1033197906+1033092886+1032438354
3203+1031580399+1030949746+1030660617+1030614609+1030827235+1031346708
3194+1031827245+1031672643+1030991039+1030849669+1031939946+1033460266
3186+1034044911+1033375170+1032257440+1031557356+1031596292+1032163751
3177+1032643832+1032393487+1031348609+1030189662+1029662280+1029720912
3169+1029683877+1029274291+1028912690+1028784324+1028335954+1027062937
3160+1025216074+1023407995+1021906534+1020497166+1018751293+1016311495
3152+1013118535+1009546178+1006270707+1003829085+1002278879+1001321378
3143+1000611941+999941668+999416644+999454287+1000221823+1001181529+1001594309
3133+1001239096+1000310265+998977932+997398524+995787785+994261382+992904333
3123+992019001+991917327+992491858+993347228+994307542+995463903+996785894
3114+997975336+998685838+998759223+998397622+998196936+998688195+999682578
3104+1000321596+999963342+998910479+998134577+998299902+999163638+1000011935
3094+1000552169+1001039094+1001532331+1001593397+1000980995+1000185473
3085+999833682+999830869+999628129+999224855+999315730+1000326615+1001759330
3075+1002676297+1002623065+1002012716+1001615298+1001635602+1001557122
3067+1001087916+1000802134+1001408147+1002731355+1003890683+1004265515
3058+1004000570+1003715928+1003878743+1004396087+1004801186+1004787042
3050+1004440422+1004036920+1003815016+1003850606+1003913497+1003640490
3041+1003081473+1002706564+1002591734+1002132413+1000871032+999067743+997345140
3031+996347867+996583991+997904309+999390712+1000282508+1000637797+1000796506
3021+1000808826+1000687456+1000594223+1000465248+999878018+998561502+996880420
3012+995632650+995310518+995593487+995682537+995128995+994154232+993178633
3002+992348434+991655195+991193897+991046976+991123478+991389337+992158090
2992+993864952+996462545+999204246+1001236511+1002378500+1003135998+1004025361
2982+1005138832+1006276107+1007206458+1007796959+1008010421+1007823271
2973+1007222428+1006266981+1004896168+1002703218+999264323+994661690+989334106
2963+983518381+977119227+969898164+961597774+952152733+941971031+931924768
2953+923102927+916571453+913088071+912822289+915322391+919701980+924883782
2944+929899575+934158555+937473494+939900363+941572244+942590505+943041460
2934+943148458+943324733+943987326+945311674+947156180+949204490+951214092
2924+953126964+954972306+956787838+958615690+960412058+962051163+963541216
2914+965039254+966561932+967941490+969082946+969971549+970520528+970771557
2904+971101370+971876663+973044964+974331366+975649250+977072459+978579775
2894+980053706+981397522+982514644+983313740+983873137+984459075+985231782
2884+986042133+986647158+987007923+987222982+987240244+986801761+985743499
2874+984341811+983221724+982734038+982485138+981756081+980301922+978390647
2864+976264922+974082998+972189899+970869353+969934742+969005455+968080274
2854+967543767+967664224+968257463+968877849+969331694+969824323+970506383
2844+971219622+971931341+973056447+975060270+978003723+981581935+985320377
2834+988696989+991359374+993317950+994845798+996203759+997476928+998636180
2825+999702198+1000755365+1001747999+1002461999+1002762382+1002774854
2816+1002740861+1002816375+1003046035+1003380715+1003702392+1003944219
2808+1004210002+1004702554+1005499444+1006365157+1006820295+1006581965
2799+1005976408+1005705302+1006117322+1006891322+1007464788+1007584941
2791+1007408514+1007263417+1007421213+1007976885+1008780619+1009508383
2782+1009913711+1009974852+1009702073+1009030888+1008159396+1007668821
2774+1007895515+1008463886+1008809441+1008861380+1008856818+1008834384
2765+1008677272+1008387915+1008064186+1007811712+1007760456+1007940002
2757+1008138635+1008114453+1007904260+1007712015+1007601063+1007532013
2748+1007597945+1007955820+1008544191+1009061002+1009246099+1009098037
2740+1008827312+1008658489+1008660009+1008719478+1008687919+1008545408
2731+1008398638+1008338789+1008391338+1008596967+1008988378+1009426405
2723+1009643061+1009588992+1009563593+1009806333+1010133105+1010210976
2714+1010051431+1009956753+1010040024+1010055765+1009769451+1009316670
2706+1009050280+1009093018+1009255909+1009382146+1009490436+1009547547
2697+1009440094+1009284503+1009420322+1009957057+1010596684+1011033646
2689+1011267945+1011384981+1011293801+1010906725+1010397518+1010015385
2680+1009762530+1009463136+1009050356+1008607005+1008219397+1007936124
2672+1007797415+1007817111+1007957569+1008168750+1008437270+1008745942
2663+1008979024+1009017276+1008993929+1009209141+1009622073+1009728081
2655+1009191802+1008334531+1007712319+1007473761+1007407069+1007395586
2646+1007486461+1007626539+1007673079+1007645931+1007707604+1007927074
2638+1008282515+1008814308+1009549296+1010328088+1010846724+1010861325
2629+1010378506+1009710743+1009241612+1009081078+1009085869+1009220091
2621+1009647168+1010393868+1011184294+1011783692+1012310085+1012959522
2612+1013580365+1013828504+1013657932+1013329563+1013004693+1012692827
2604+1012567730+1012949331+1013828276+1014659463+1014818476+1014188432
2595+1013200893+1012396550+1012030082+1012038600+1012292519+1012726744
2587+1013151387+1013210475+1012846441+1012517312+1012618073+1013045454
2578+1013597551+1014294288+1015058859+1015584416+1015687611+1015423045
2570+1014902964+1014296798+1013828656+1013554585+1013376028+1013339678
2561+1013623863+1014170713+1014648589+1014878477+1015014372+1015218708
2553+1015509662+1015994762+1016782223+1017567706+1017873489+1017782765
2544+1017856530+1018277067+1018571975+1018190526+1017039184+1015548978
2536+1014434898+1014233527+1014873230+1015750729+1016272940+1016251267
2527+1015857270+1015405631+1015191788+1015337721+1015730425+1016158490
2519+1016444957+1016423588+1015982823+1015194145+1014246607+1013311464
2510+1012608872+1012388413+1012608567+1012809406+1012611913+1012330618
2502+1012748569+1014062043+1015443350+1016117121+1016379861+1016812413
2493+1017086941+1016526859+1015323196+1014207823+1013387359+1012648416
2485+1012105749+1012087269+1012470543+1012698835+1012525677+1012452140
2476+1013201425+1014774293+1016232407+1016553247+1015582819+1014034438
2468+1012765527+1012280427+1012683853+1013689567+1014613379+1014685395
2459+1013655042+1012150084+1011222317+1011352813+1012081794+1012734881
2451+1013102033+1013159067+1012764615+1012072820+1011597682+1011390608
2442+1010788244+1009472946+1008202210+1007929584+1008612557+1009390587
2434+1009677967+1009630742+1009699868+1010094169+1010620030+1010929006
2425+1010957220+1010954786+1011006193+1010921478+1010650600+1010303296
2417+1009806409+1009128531+1008678337+1008915145+1009742074+1010698205
2408+1011526503+1012220655+1012697770+1012764767+1012397919+1011772209
2400+1010984064+1010050290+1009222373+1008904575+1009181080+1009713709
2391+1010066488+1009923825+1009221840+1008264416+1007485244+1007001665
2383+1006628354+1006368199+1006659228+1007997873+1010401548+1013458158
2374+1016844277+1020378914+1023618491+1026169696+1028486298+1031442526
2366+1034906973+1037501144+1038043963+1036825624+1035179903+1033914643
2357+1032610599+1030472783+1027110162+1022685021+1018315090+1015758334
2349+1016077425+1018988862+1023194304+1027188414+1030049736+1031340548
2340+1030897882+1029245241+1027233814+1025130902+1022850270+1020728119
2332+1019314949+1018615626+1018051057+1017128994+1015840540+1014392008
2323+1012832524+1011169465+1009701237+1008764649+1008182666+1007359996
2315+1005904316+1004017528+1002395306+1001661990+1001806707+1002343214
2306+1002879874+1003214478+1003253033+1003338662+1004186427+1005953442
2298+1007779848+1008666626+1008494913+1007976200+1007822815+1008020307
2289+1007907530+1007150944+1006388199+1006456337+1007256041+1007953082
2281+1008125023+1008177951+1008691645+1009771200+1011023988+1011914644
2272+1012112441+1011612359+1010711361+1009972342+1009901087+1010406720
2264+1010966649+1011476617+1012288412+1013354279+1014115199+1014266912
2255+1013909798+1013047051+1011573272+1009732796+1008296356+1008015060
2247+1008588982+1008685105+1007726388+1006961361+1007836579+1010104815
2238+1012256549+1013174125+1013026975+1012855490+1013072298+1012668264
2230+1010889006+1008961381+1008557499+1009437964+1010247630+1010686418
2221+1011308858+1012065824+1012633739+1013478006+1015097719+1016709218
2213+1017043442+1016116512+1015036805+1014538093+1014890568+1016473322
2204+1019154262+1021797027+1023439554+1024468006+1025755319+1027010085
2196+1026841186+1024488386+1020672529+1016480851+1012434877+1009157581
2187+1007776502+1008800315+1011213724+1013146292+1013347739+1012390999
2179+1012434877+1014908135+1018463229+1020191840+1018766578+1015441981
2170+1012472140+1011454487+1012545145+1014351855+1014938706+1013654738
2162+1011772817+1010865812+1010995699+1011552739+1013086443+1015862670
2153+1017814097+1016467771+1012187118+1007977721+1006638392+1008672937
2145+1012028181+1013743712+1012712827+1010528774+1009352032+1009782455
2136+1010764290+1010707255+1008855297+1005990400+1003562010+1002313328
2128+1002148307+1002753408+1003679426+1004225819+1003946349+1003137671
2119+1002344203+1001522673+1000223268+998563859+997450160+997647500+999038921
2109+1000825328+1002114467+1002502455+1002408310+1002596221+1003207101
2101+1003699426+1003766043+1003723152+1003849009+1003871975+1003406571
2092+1002645499+1002291655+1002750367+1003718057+1004768486+1005820208
2084+1006630179+1006614133+1005760436+1004903925+1004590462+1004569017
2075+1004693961+1005191913+1005819752+1005798079+1004674873+1002689377
2067+1000607835+999552311+1000268592+1002249297+1004232968+1005559217
2058+1006525615+1007604485+1008898187+1010275463+1011507720+1012168791
2050+1011879054+1010998209+1010612577+1011285892+1012440049+1013244163
2041+1013160969+1011647873+1008827920+1006529417+1006614589+1007910268
2033+1007328361+1004717459+1003258357+1004642173+1007379160+1009946411
2024+1012345523+1014295809+1014567143+1012456170+1008856057+1005885228
2016+1005094878+1005917700+1006899079+1007825552+1009108607+1010107705
2007+1009984054+1009195604+1008441224+1007494294+1006015952+1004400118
1999+1003578284+1004117301+1004996854+1004134792+1001312557+999313981
1990+1000322053+1002969152+1004886891+1005635644+1005793440+1005447277
1982+1004674341+1003939885+1003296380+1002440249+1001979332+1003222235
1973+1006077777+1008242971+1007277029+1003369308+999609270+999053750+1001667846
1963+1005023090+1007295509+1008287002+1008111030+1006308274+1002703598
1955+998534734+996006799+996359654+998524772+1000031783+999191394+996180033
1945+992581364+990660052+992060066+996011590+1000186994+1003228699+1004850160
1935+1004846282+1003566269+1002328233+1002170437+1002785196+1002892497
1926+1001113468+997151830+992826386+990619291+990587123+991009865+991818619
1917+994474692+998353515+1000444715+998920669+995331507+993113537+993929971
1907+996364293+998322412+999146223+999190178+998673671+997457232+995602156
1897+994047463+994205259+995897444+996722243+995261012+993623276+994619940
1887+997566511+1000098856+1001693245+1002875311+1003485431+1003449766
1878+1003484595+1004012737+1004520119+1003850530+1000337110+992825321+983408798
1868+978449051+982337988+991582342+999891858+1004070228+1004576849+1003866576
1858+1004113651+1005714047+1007599238+1008675219+1008545331+1006911702
1850+1003304289+997762711+990957545+984248578+980954172+984174053+991348348
1840+997142476+999431777+999729119+1000102659+1000061365+997096316+990356474
1830+983387733+980947708+982450461+984607974+987441767+992374366+997928340
1820+1001210123+1001475525+1000493461+999815659+998655800+995584285+991460440
1810+989200265+990322025+993299166+995321469+994061151+989071138+982923622
1800+979555830+980008839+981545737+980993488+976791999+970358473+967747571
1790+973792957+984025230+991025302+992228661+989730840+986288599+982948565
1781+980827098+981157368+982441792+981166417+975264379+966307176+960226809
1771+962047360+969697021+978769891+986341148+989748103+987716447+983004155
1761+980412949+980512114+981109687+982202017+983286287+980508540+970609730
1751+956225855+945933353+944133563+945781641+944772885+939112827+928163056
1741+909667959+883312478+852856878+816862513+764378853+692709139+626354574
1731+580165085+543404401+509060016+477504518+448662015+422810455+402125716
1721+387095105+376086283+369812492+374010749+391706521+416843093+443506752
1711+469843641+494937284+518344902+542153780+568283898+593182026+612829073
1701+629285593+646488052+663629066+680598975+700307924+719348654+730840559
1691+733390320+729917052+723945811+716064209+704608425+693986642+694972812
1681+705514138+716650527+724739812+729234459+731371744+733338684+735044709
1672+735400454+737788464+747930090+762905910+774598350+780600313+784704158
1662+792025907+801939926+809337645+810597125+804483602+793505314+790982474
1652+804226945+815753148+818284429+819166035+829685764+848113255+863567179
1642+871962703+873464467+868438256+858867282+853209125+861405788+876766403
1632+887352596+890278634+887941727+884171118+880677546+876807240+873705991
1622+873323705+872495028+864867724+847568382+826931819+812799430+803316670
1612+791469171+775631517+759988693+749933380+746805972+747651227+748381805
1602+745285271+734792159+713986317+682315723+643291746+604873668+576901896
1592+566490685+575442565+600326320+633949101+668710411+699923966+726321958
1582+748009254+764308738+774280856+779747909+787644188+803395834+820257453
1572+830285770+834069231+838084786+847019555+857578828+865346132+868804723
1562+865975264+853210418+832612258+826252268+842477911+860742054+873037086
1553+879610995+882460150+884626484+886220721+882941600+871252657+852865243
1543+833323824+820085665+824607004+843840967+858724163+861558185+855907404
1533+850287802+847304121+838933160+816149578+775517143+722582679+665968862
1523+610809585+568701203+556110160+574292705+613838475+661517181+701609763
1513+726256786+736059701+733591995+723601169+719732536+733389635+747463697
1503+747571987+734815734+715218801+698234899+694624748+706059239+720108053
1493+724356994+715421008+699778185+692874387+703287575+723026258+741396410
1483+752673865+754351677+745504361+726574736+699959480+671225723+649545118
1473+645883559+664094774+692385333+717416923+735652929+749468813+762234116
1463+772986851+776326201+767591053+742681822+700622224+657561703+631719915
1453+619843328+615989676+619207048+629366849+644590922+660870711+673934040
1443+681246358+681549099+673774494+656346177+628915133+600158486+586217467
1434+591202234+609847331+639631784+676843727+712138693+738016755+754134793
1424+763772459+768945440+769861191+769213199+772963580+781161764+786680452
1414+784379668+774262149+760263373+746837303+735906543+728000606+724627111
1404+725856325+726403936+718311837+696480889+661862812+619583173+575724887
1394+539284663+518538783+514268625+525100638+553234655+597894812+648061453
1384+691771182+725518299+750924265+770142943+784385752+794306387+801974983
1374+811277893+823561898+835539208+844419528+850582482+854485184+854809522
1364+851583329+849150071+852312918+859605997+865824921+868354072+867807831
1354+865391988+861000612+853313384+840801316+822108119+795754919+760620183
1344+717357378+668736647+619634581+578804919+557406067+560199784+581889134
1334+614144068+650728172+687312961+720764181+749234590+772112089+789583752
1324+802014755+809523046+812263911+811078879+807345609+801815362+794048513
1315+783446198+770050394+753512657+732074108+704114656+670902601+637161910
1305+608956181+591031890+584620455+586159140+589084227+588773121+586091306
1295+585527194+589781230+596470919+599795821+594867062+580567257+559070343
1285+533708712+507772664+484524325+466993117+457063242+454635689+457532639
1275+462250064+465246749+464149475+458339757+448743080+437120793+425526376
1265+416093047+410784057+411138433+418111699+431564690+449646740+469222227
1255+487415799+503024668+516761426+530220234+544300380+558056378+568543254
1245+571793250+564642035+546477285+519817351+489545289+461490360+441063457
1235+432312834+437282696+455365886+483131002+515473124+547669920+576855736
1225+602132309+623758616+642257590+658008704+671384507+682980521+693477968
1215+703228183+712032532+719292911+724260948+726214580+724709926+719860902
1205+712296641+702809167+692196129+681445448+671744739+664024279+658521257
1196+655011486+653544931+654783271+659486590+667791010+679027020+692025481
1186+705504708+718338833+729658798+738908856+745942617+750946851+754186352
1176+755976865+756869498+757533687+758375901+759439030+760621476+761870690
1166+763328272+765446545+768796465+773536666+779125241+784718987+789828926
1156+794462586+798751299+802688755+806211681+809316732+812004364+814163930
1146+815597633+816204027+816004406+814789032+811819724+806054037+796465420
1136+781965651+761466808+734658698+702797988+668727218+636587874+611630772
1126+599167753+601969075+617735702+639336876+658243307+668591779+669167070
1116+662691870+653457326+644879290+638269412+633022818+627409718+619278493
1106+606925894+590596068+573791293+562638630+562975212+577175511+603022090
1096+635062991+667193894+694806803+715517739+728628217+734203484+732438675
1086+723525351+708128157+688195556+667197164+649340629+638504396+637568150
1077+647811184+668075348+694518055+721986628+746334180+765705483+780104643
1067+790406727+797717601+802887996+806097611+806819292+804051506+796591581
1057+783452890+764220372+739022317+708525272+674230316+638389413+603237643
1047+570388482+541208523+518068170+505241079+507641408+527367581+561123634
1037+601533253+641216059+675701967+703529935+725041184+741397931+754039430
1027+764286837+773047764+780754155+787459472+792976335+797188698+800411089
1017+803285871+806271529+809353919+812219500+814574049+816294447+817334229
1007+817530809+816403877+813047493+806830547+799055561+793380826+793122876
997+798007261+804507024+809194069+810915151+810090352+807126747+801916199
987+794328212+784719976+774033021+763612457+754836321+748656865+745417516
977+745033406+747148256+751199021+756643716+763129258+770331918+777911008
967+785770861+794020224+802498487+810619103+817784576+823760379+828584840
958+832270962+834655397+835333199+833420175+827285511+814622110+792942798
948+760651742+718879447+672841861+630552298+599296842+583377970+584681102
938+603257377+635903684+675422268+713414143+744401232+767089831+782579269
928+792482033+798285287+801084327+801285014+798423615+790909774+776686357
918+756359987+736083351+724508403+725043693+732754800+739921794+742825930
908+742487220+741362189+741099981+742211780+744289672+746492280+748171537
898+749092915+749302499+749062269+748850479+749250560+750798256+753885360
888+758627767+764704788+771466074+778360442+785193441+791997085+798910693
878+806101642+813398751+820104904+825547698+829668729+832843059+835428561
868+837685466+839808150+841844977+843726517+845388131+846789135+847857206
858+848475160+848531814+847981618+846845333+845173528+843026054+840383745
849+837007893+832409366+825866485+816394372+802974993+785408348+765553998
839+747927656+738314857+740519062+753779504+773316816+793409875+810165106
829+822212455+829856944+833926568+834999583+833222302+828661723+821723704
819+813077303+803342298+793265159+784117612+777470395+774552874+775943079
809+781530817+790533040+801752775+813843090+825288152+834714029+841705508
799+846987159+851519602+855615538+858976941+861345026+862926640+864095853
789+864845899+864770385+863463527+860734830+856588856+851165301+844594435
779+836805229+827494943+816355588+803359940+788659104+772046461+752707477
769+729682449+702411064+670815756+635332652+597157428+558183755+520381425
759+485181480+453410885+425858509+404125889+390760466+387953821+395897363
749+412574874+435062330+460830468+488134552+515989061+544079009+571987244
739+597548801+615534500+618927691+604137615+576304931+547602201+529315206
730+527132180+542870669+575462641+618581908+661885246+697341050+722976448
720+740871081+753703305+763270020+770600894+776389015+781177201+785342492
710+789093785+792366823+794792551+796260855+797408776+798887955+800448884
700+801551481+802371413+803210509+803353248+801444407+796582988+788203434
690+775329156+756896798+733019441+705821061+679412727+659319136+650967871
680+657399344+677639857+706746698+737770669+764366533+783053190+794642208
670+802675066+809290496+812240945+809738333+803712948+795410428+784948571
660+773325105+762336322+751942451+739022165+721361906+703621038+696309784
650+706568369+731150220+759518651+782843911+798759284+809016577+815734973
640+820233042+823350033+825527622+827023531+828497843+830760832+833679341
630+836082560+836936561+836182789+834556765+832780244+830638245+826910146
620+820205514+809426923+794170035+776241865+760306339+751479632+752422836
611+762576325+778794363+796545725+811755464+822459301+829023552+833092947
601+836316022+839427233+841987336+842946889+841706040+839114835+837428810
591+838421519+841456608+844428122+846148063+846670654+846174071+844967595
581+843929941+843594957+843472598+843211987+843465754+844775958+846440690
571+847143891+846378180+844963640+843882793+842884303+841023600+838266765
561+835602631+833663904+831959323+829574280+826429380+823607146+822126294
551+821589634+820523692+818145112+815508583+814523478+815783643+818066328
541+820417911+823499084+827923692+832587847+835817310+837287744+837908891
531+838279693+837863187+835933129+833294698+832080389+832906634+833640101
521+831821527+827179578+822380365+821190087+824405937+828975794+831949209
511+833003517+833046255+832688076+832469139+832635452+832726099+833009220
501+835299054+840467472+846630806+851155415+852920909+852596647+851901811
492+852494441+854674767+857215478+858766977+859135802+859319758+860186231
482+861107762+860825325+859345538+857602326+855496297+852249267+849042238
472+848693261+851597397+855407399+858491613+860697719+862247773+863222384
462+862578043+857623163+847102674+835309776+828292517+825607319+823112008
452+819637295+816335968+813425824+810830208+809680006+811250516+816229427
442+824503277+833211656+837416414+835175098+830512540+829381198+832691802
432+836394883+837445388+836257010+833754323+829260588+822416867+814504390
422+806192745+797987413+796864892+812641329+838238400+858739372+869069669
412+872107571+873183020+875182508+877371200+877926719+875373765+868533086
402+857023233+841592883+824742443+813323617+815271242+828171071+842942859
392+854729597+863918133+871404750+874275198+868884572+860324864+861424267
382+873156327+881703640+878256000+864116842+843119667+822038232+812209614
##END=
