##TITLE=X8144
##JCAMP-DX=4.24
##DATA TYPE=INFRARED SPECTRUM
##DATE=30/10/2018
##SAMPLING PROCEDURE=Diamant-ATR
##ORIGIN=ComPlat
##XUNITS=1/CM
##YUNITS=TRANSMITTANCE
##RESOLUTION=4
##FIRSTX=3997.453
##LASTX=373.96442
##DELTAX=-1.4165319
##MAXY=0.87933707
##MINY=0.39406106
##XFACTOR=1
##YFACTOR=8.1894647e-010
##NPOINTS=2559
##FIRSTY=0.87830019
##XYDATA=(X++(Y..Y))
3997+1072475706+1073018151+1073558630+1073616856+1073227763+1072625200
3989+1072002476+1071629177+1071797740+1072464861+1073209276+1073665693
3980+1073741823+1073356223+1072412385+1071189646+1070333801+1070199373
3972+1070514665+1070875373+1071194959+1071494312+1071610690+1071386230
3963+1071010092+1070963803+1071519130+1072355979+1072804681+1072426214
3955+1071358355+1070220843+1069625631+1069711005+1070176519+1070641160
3946+1070773478+1070416118+1069992016+1070292461+1071301148+1072053205
3938+1071967177+1071179675+1069838664+1068177049+1067086118+1067402939
3929+1068611631+1069474172+1069457432+1068857562+1068219627+1067774346
3921+1067267928+1066429696+1065581348+1065569630+1066770317+1068595401
3912+1070322811+1071676267+1072402560+1071926637+1069901403+1066907220
3904+1064282916+1062992853+1063045474+1064197324+1066023791+1067591226
3895+1068072097+1067345950+1066139951+1065715850+1066339228+1066689674
3887+1065712065+1063872716+1062426390+1061614942+1061192951+1061960148
3878+1064242012+1066405387+1066765950+1065121656+1062492403+1060094961
3870+1059133436+1060361125+1062705291+1064404534+1064939483+1065031116
3861+1065311181+1065641248+1065797002+1065707334+1064945378+1062715699
3853+1059973924+1060032150+1062894597+1066135511+1068191169+1068395031
3844+1066728540+1063787706+1060543953+1057939664+1056899317+1058082244
3836+1060808152+1063445266+1064979804+1065453106+1065524651+1065678512
3827+1065907194+1066055378+1065873204+1064847341+1062867740+1061265370
3819+1061249139+1062116920+1063254504+1064882349+1066569220+1067280592
3810+1066548040+1064735329+1063084340+1062877712+1063278159+1062139774
3802+1059429805+1058060483+1059614599+1062315834+1064735766+1066725847
3793+1068162784+1068865786+1068968409+1068624513+1067820126+1066771263
3785+1066078523+1066004722+1065965492+1065364967+1064633725+1064767062
3776+1065784119+1066786620+1067143470+1066784436+1065972916+1065123330
3768+1064529574+1064332043+1064733218+1065546194+1065825823+1064739842
3759+1062676323+1061141858+1060959248+1061288369+1060691701+1058255539
3751+1054923865+1053447480+1054149682+1054652388+1053514658+1051695033
3742+1051241455+1051840815+1051623925+1049391334+1045561758+1042551563
3734+1042728423+1045634394+1049397302+1052748845+1054846862+1055177802
3725+1054138328+1053080003+1053122726+1054339279+1056154465+1057994324
3717+1059523621+1060354138+1059864169+1057868556+1055844122+1055972655
3708+1057898615+1059646623+1060227642+1059700991+1058648416+1057982970
3700+1058227226+1058953373+1059537377+1059914097+1060487838+1061485099
3691+1062360231+1062049378+1060551814+1059549022+1059858128+1060659095
3683+1060989089+1060581509+1059871010+1059136420+1057776851+1055630361
3674+1054585356+1055303424+1055700741+1055115064+1055931970+1059475148
3666+1063510188+1065769636+1065827352+1064651193+1063350868+1062182497
3657+1061057868+1060432742+1060447372+1059898449+1057503845+1053396678
3649+1049733046+1048999257+1051205719+1054957272+1058754169+1061252633
3640+1062092611+1062124926+1062085187+1061669456+1060344167+1058110993
3632+1054905670+1050356424+1045879597+1045375508+1048899181+1052572057
3623+1054536519+1055014042+1054647439+1054121079+1054146916+1054550784
3615+1054444595+1053748580+1053385615+1053776164+1054477420+1055517694
3606+1057218030+1058800531+1059076157+1057908295+1056226155+1055010840
3598+1054430039+1054015836+1053477830+1053163776+1053394568+1053575286
3589+1052733488+1051041377+1050474550+1052276780+1054962949+1056618596
3581+1056878283+1056751496+1057063732+1057416579+1057250491+1057006452
3572+1057205948+1057247434+1056137143+1054035196+1052607356+1053041720
3564+1054512719+1056004752+1057345544+1058510640+1059300180+1059523985
3555+1058994350+1057664548+1056165528+1055511144+1055744338+1055842739
3547+1055137845+1054103247+1053789483+1054819568+1056913218+1058930956
3538+1059636797+1058949079+1058035955+1057734492+1057624445+1056996044
3530+1055827964+1054555952+1053447189+1052622495+1052474311+1053462546
3521+1055251894+1056616049+1056706590+1056066908+1055872070+1056289985
3513+1056283071+1055162154+1053698506+1053227533+1053886866+1054490957
3504+1054122170+1053215378+1052893390+1053443696+1054125955+1054270064
3496+1053907536+1053499155+1053402283+1053589260+1053737007+1053636714
3488+1053545736+1053868670+1054463373+1054690962+1054249248+1053547556
3479+1053029420+1052633048+1052285732+1052334642+1052974251+1053668301
3471+1053696759+1052926360+1051733534+1050640711+1050192519+1050591583
3462+1051312636+1051624070+1051515334+1051599761+1052211567+1053001981
3454+1053340854+1052960058+1052218918+1051672179+1051389712+1050949526
3445+1050167482+1049464407+1049323719+1049615430+1049636755+1048952239
3437+1048017353+1047642816+1047986130+1048502737+1048757547+1048852018
3428+1049126625+1049717325+1050298854+1050222578+1049172623+1047656063
3420+1046546572+1046257919+1046648031+1047390263+1048070339+1048265176
3411+1047907962+1047400816+1047193096+1047375779+1047729937+1048011458
3403+1048118156+1048084677+1047953378+1047665306+1047157578+1046540313
3394+1046032512+1045704629+1045435554+1045145881+1044937287+1044910431
3386+1044961742+1044937287+1044996678+1045512412+1046422333+1047084359
3377+1047105321+1046858225+1046769795+1046637041+1046054129+1045051191
3369+1044067396+1043624226+1043898978+1044373663+1044405323+1044289308
3360+1044921130+1046281864+1047264058+1047201611+1046630199+1046266944
3352+1046130113+1046000343+1045996995+1046237103+1046380775+1045974942
3343+1045063564+1044144108+1043609815+1043397364+1043194738+1042930539
3335+1042932432+1043524441+1044600670+1045684760+1046316363+1046374952
3326+1046103402+1045843425+1045754703+1045749317+1045575659+1045058906
3318+1044422136+1044192217+1044604819+1045299670+1045657248+1045268519
3309+1044230573+1043188625+1042911689+1043650573+1044954828+1045982511
3301+1046018757+1044973315+1043412866+1042005552+1041103490+1040843513
3292+1041233188+1042049803+1042966712+1043801668+1044439676+1044614790
3284+1044120090+1043338265+1043159657+1043942502+1044847110+1044758025
3275+1043624662+1042321644+1041539018+1041410485+1041841428+1042561680
3267+1043089787+1043140370+1042995024+1043204054+1043920521+1044661079
3258+1044772072+1044088503+1043008489+1041917704+1040811634+1039651997
3250+1038819297+1038834290+1039700397+1040771968+1041337048+1041334428
3241+1041370018+1041853801+1042347118+1042165017+1041410849+1040841402
3233+1040883252+1041276857+1041515801+1041367762+1041121904+1041326276
3224+1042075714+1042727841+1042594286+1041787133+1041091845+1041018481
3216+1041302986+1041476499+1041546151+1041769810+1042104244+1042346681
3207+1042526963+1042695963+1042592030+1041959262+1041055527+1040473707
3199+1040501801+1040949265+1041548771+1042154682+1042552218+1042507530
3190+1042044490+1041360265+1040608062+1040036650+1039987450+1040429091
3182+1040876192+1040972992+1040810251+1040606170+1040413298+1040235418
3173+1040175373+1040336440+1040683319+1041088060+1041442873+1041699503
3165+1041916394+1042203009+1042446247+1042277829+1041549426+1040532515
3156+1039495952+1038572056+1038092422+1038361788+1039061516+1039525210
3148+1039508179+1039156787+1038545199+1037768469+1037141742+1036892682
3139+1036923760+1037047999+1037186430+1037254554+1037080314+1036529863
3131+1035698910+1034941030+1034568968+1034456374+1034067863+1032920453
3122+1030924477+1028361528+1025612548+1022805197+1019806137+1016657292
3114+1013665002+1010848480+1007852405+1004742062+1002336104+1001368248
3105+1001710542+1002698195+1003942041+1005543902+1007591918+1009782150
3097+1011767718+1013622206+1015576333+1017471943+1018935299+1020037002
3088+1021402685+1023522391+1026067654+1028078260+1028855354+1028530601
3080+1027757072+1027022628+1026281051+1025207588+1023826766+1022669604
3071+1022088584+1021775548+1021302756+1020740659+1020466271+1020659144
3063+1021007406+1020686291+1018918778+1015790021+1012173988+1008879724
3054+1006366922+1005088577+1005370826+1006855654+1008480296+1009266561
3046+1009141303+1008806214+1008838239+1009275295+1010061415+1011257443
3037+1012677494+1013983860+1015275888+1016963341+1018993234+1020732508
3029+1021687991+1021989746+1022116096+1022329274+1022537722+1022746898
3020+1023257101+1024077646+1024639524+1024639306+1024686468+1025553376
3012+1027233551+1029125958+1030650889+1031455568+1031533372+1031276087
3003+1031084088+1031021932+1030976298+1030775128+1030122127+1028888834
2995+1027400222+1026051424+1024811799+1023355284+1021436748+1019026932
2986+1016214923+1012882230+1008528332+1002716245+995536436+987329090+978318374
2976+968722564+958606143+947346533+933898148+917867672+899891293+880853897
2966+861151491+840834004+820132300+799591517+779879867+761807635+746461310
2956+735007810+728376196+727134242+731286606+739963179+751560061+764347730
2946+776800020+787471696+795081938+798995213+799428776+797042833+792506689
2936+786552967+780068300+773776215+768037128+763214003+759981605+759061930
2927+760831554+765197607+771658037+779510571+788104536+796861096+805211605
2917+812786839+819633742+826080635+832406855+838634019+844574422+850114013
2907+855415170+860700170+865859256+870412723+873868126+876103846+877480593
2897+878620142+880081461+882214559+885155829+888776666+892666214+896300152
2887+899258890+901250717+901994405+901225753+898772487+894394134+887584058
2877+877900982+865651681+852121343+839226102+829024671+823087180+821757888
2867+823979489+828050628+832644489+837258947+841976173+846983436+852360069
2857+858225796+864863233+872514015+881025518+889772616+898084405+905840066
2847+913468285+921262520+928918396+935855113+941750390+946669369+950873991
2837+954621104+958066100+961287872+964314516+967058983+969318067+970992783
2827+972315671+973714615+975356070+976947305+978115312+978814093+979219926
2817+979489220+979824746+980477455+981460814+982501380+983402350+984248514
2808+985208802+986307375+987411042+988340033+988980224+989336129+989520268
2798+989737013+990246415+991188433+992336353+993155515+993358796+993336088
2788+993723434+994608319+995514965+996091400+996399050+996585663+996671619
2778+996691051+996791709+997092299+997520112+997896541+998190144+998546704
2768+999073865+999787493+1000700690+1001689144+1002382248+1002509253+1002273002
2758+1002116593+1002231371+1002468131+1002615005+1002613477+1002538875
2749+1002443967+1002274967+1001994901+1001726918+1001628298+1001618472
2741+1001405949+1000875440+1000301990+1000031895+1000055477+1000094488
2732+1000024253+999898267+999625990+999087402+998542410+998390441+998524869
2723+998498595+998298808+998368606+998892856+999584358+1000119452+1000411818
2713+1000545009+1000694285+1001048734+1001675679+1002454593+1003133432
2704+1003465609+1003373540+1002981900+1002446005+1001827939+1001209437
2696+1000803895+1000780532+1001043348+1001342264+1001540523+1001575313
2687+1001290371+1000625797+999893464+999533192+999593965+999718496+999652919
2677+999529262+999578463+999795572+1000040484+1000270548+1000502796+1000708332
2667+1000872529+1001024498+1001182508+1001378291+1001638706+1001868552
2659+1001936676+1001903342+1001987114+1002353644+1003029572+1003836216
2650+1004397293+1004480556+1004288993+1004170795+1004184842+1004177855
2642+1004093209+1003999321+1003917805+1003756883+1003405346+1002908171
2633+1002567333+1002765373+1003581187+1004628231+1005395281+1005729788
2625+1005827825+1005815743+1005653439+1005442808+1005401322+1005448194
2616+1005314493+1005180865+1005577018+1006468672+1007131062+1007178515
2608+1007032879+1007144745+1007406469+1007556691+1007584203+1007491988
2599+1007092414+1006352803+1005704096+1005621342+1005967567+1006180382
2591+1006062329+1005862324+1005660208+1005271042+1004737695+1004405226
2582+1004487179+1004798322+1004939956+1004790171+1004756182+1005258451
2574+1006094281+1006770062+1007200423+1007513240+1007566444+1007370879
2565+1007537841+1008485245+1009515694+1009474354+1008180871+1006549096
2557+1005477161+1005195203+1005468354+1005908104+1006182420+1006160876
2548+1005814797+1005134212+1004337903+1003890293+1004069846+1004724885
2540+1005473304+1005917711+1005862688+1005553291+1005446083+1005675056
2531+1006092534+1006644368+1007223932+1007481216+1007314181+1007116796
2523+1007030113+1006562924+1005513843+1004612946+1004638639+1005409474
2514+1006105998+1006203308+1005858830+1005673673+1006101122+1006917228
2506+1007463603+1007451448+1007121309+1006626900+1005843910+1004839735
2497+1004018899+1003699167+1003840874+1004149616+1004254058+1003925010
2489+1003322083+1002930515+1003175937+1004155584+1005607295+1006923123
2480+1007407270+1006924215+1006193846+1006058108+1006540872+1006975890
2472+1006953837+1006737529+1006729159+1006863296+1006701720+1006045007
2463+1005300519+1005104226+1005570468+1006118226+1006160076+1005730880
2455+1005225335+1004823942+1004519931+1004440817+1004717462+1005202190
2446+1005664284+1006062548+1006350401+1006279584+1005695726+1004810404
2438+1003948300+1003247700+1002784951+1002712169+1003073823+1003719619
2429+1004500280+1005282615+1005778406+1005704023+1005106846+1004291250
2421+1003597418+1003384967+1003819403+1004511051+1004802835+1004520950
2412+1004041243+1003702661+1003544141+1003499089+1003547853+1003744583
2404+1004107256+1004396492+1004206240+1003466628+1002565804+1001830705
2395+1001250195+1000797418+1000615608+1000771507+1001070787+1001041092
2387+999921776+996975848+992073391+985695641+978286860+970001855+961122438
2377+952206558+943628896+935255752+926656911+917544519+908093691+898782094
2367+889921528+881803340+875286067+871324246+869776243+869680607+870988939
2357+874894281+881984567+891360066+901815070+912144014+920278360+923763167
2347+921281443+914035985+905956954+900885497+899448341+900076160+901381652
2337+902984896+905110716+907571261+909557193+910775493+911964243+913736924
2327+915803644+917738411+919616844+921754236+924563552+928645172+934200485
2317+940286451+945367661+948710033+950838983+952672218+954722563+957298176
2308+960837642+965394602+970103968+973892786+976664110+979193070+981956970
2298+984674290+986863648+988304734+989079863+989586208+990340740+991526870
2288+992939935+994341645+995519915+996218987+996488062+996813107+997451770
2278+998008990+998054406+997777251+997731981+998166636+998723492+998744089
2268+997995598+997047975+996713177+997149651+997703960+997610435+996768710
2258+995726980+994971501+994616689+994737216+995288759+995778145+995984919
2248+996732028+998724874+1000971294+1001713671+1000788320+999788585+999758890
2238+999820245+998682515+996825116+996066945+997164499+998945914+999839387
2228+999414412+998483747+998229083+999084855+1000364874+1001032431+1000480306
2218+998688993+996453563+995289923+996216439+998723128+1001322104+1002910864
2208+1003561827+1004176982+1005261508+1006150687+1005818145+1004087387
2200+1001774153+1000118215+999894919+1000471135+1000179570+998130390+995079801
2190+992423982+990954293+990505737+990415997+990488270+991382107+993671104
2180+996910999+999928399+1001620219+1001528295+1000089393+998235124+996653205
2170+995574865+994975941+994627679+994120460+993401300+993640171+996580568
2160+1001545326+1004331207+1002383412+998784337+997372074+998349464+1000049218
2150+1001387899+1001920809+1001447143+1000229572+998793144+997373675+995649176
2140+992987753+989520049+987020202+987605953+991236615+995581270+998548451
2130+999748773+999657359+998739212+997417708+996078008+995128347+995102436
2121+996103336+997279567+997736493+997703523+997825433+997813934+996911872
2111+995265978+993854078+993347442+993635222+994161728+994488301+994707230
2101+995154985+995626395+995412488+994397469+993451666+993325753+993758078
2091+994047387+993943454+993657785+993448245+993420369+993463747+993362799
2081+993213013+993478231+994292372+995042464+995148508+994940351+995123252
2071+995669700+996009520+996152682+996785231+998129808+999293084+999096209
2061+997301693+994812400+992927271+992551715+993638643+994797625+994007430
2051+990812587+987501365+987003317+989695745+993502686+996803354+999602845
2041+1001981946+1002745285+1000472445+995824653+991715157+990412795+991592884
2031+994095569+997568512+1000977626+1002095923+1000490495+998837541+999279547
2021+1000214578+998678731+994639178+990890609+989625074+990902909+993405376
2011+995230970+995391236+995140574+995844668+996091764+993828531+990283461
2002+988678688+990249180+993343948+995284610+994433642+991542300+989381691
1992+990029233+992471946+994025043+993305956+990634926+986982647+983738530
1982+982729625+985439230+991848349+999602845+1004693662+1004541474+1000344349
1972+995342326+991544993+989194568+988480430+989789416+992200760+993777657
1962+993800801+993344312+993360179+993248021+991845365+989151917+986678345
1952+986183936+988002179+990566365+991798857+991037047+989326158+987997957
1942+987551221+987847881+988692590+989765907+990419418+990094227+988854384
1932+987310749+986219599+986032695+986396824+986345585+985518417+984788994
1922+984958649+985369941+985063601+984591027+985190897+986474846+986838757
1912+985850085+984748673+984673853+985186093+985149120+984346989+983404242
1902+982713758+982178955+981759148+981637311+981871233+982274154+982586390
1892+982619869+982391406+982244605+982746947+984325081+986837883+989261309
1883+990202818+989387149+988033548+987358130+987439646+987671893+987586374
1873+987038980+986012971+984554054+983107146+982565356+983289829+984672252
1863+985856999+986413636+986501776+986593117+987001425+987604643+988028598
1853+988027143+987605443+986953097+986372223+986074253+986043321+986279863
1843+986891669+987693219+988240467+988266378+987810252+987047496+986018648
1833+984550269+982588791+980781830+980246736+981152655+982602111+983806582
1823+984480762+984549905+984089049+983549151+983485103+983854836+984062920
1813+983707016+982878027+981978150+981460523+981491820+981752962+981691679
1803+981074414+980277741+979891050+979987559+980109251+979819505+978870063
1793+977343458+976101068+976086730+976831800+977210704+976751303+975719471
1783+974630578+973812871+973406674+973415117+973599183+973560390+972994364
1773+971958529+971109890+971213750+972251258+973647874+974706053+974835969
1764+973951376+972670702+971849647+971539449+971156470+970489568+969673899
1754+968535514+966653660+964141149+962106161+961459638+961775294+962231856
1744+962520437+962678083+962682232+962504279+962181636+961494064+960137405
1734+958791883+958980971+960660418+962836384+964890659+966316242+966929358
1724+967091080+967053597+966383929+964516923+961908995+960701612+962280838
1714+965170361+967860897+969956148+971219863+971306838+970442114+969772009
1704+969987808+970274205+969601189+968220804+967522896+968173350+969963062
1694+972097615+973503111+973723058+972960011+971684723+969947705+967386066
1684+964995829+965166139+967220123+968990256+969729067+969289027+967733382
1674+965604651+963128823+959578512+954463531+948536302+942279298+934102229
1664+921283772+902205764+879198832+856270433+834366150+813012245+790932266
1655+762288943+722323418+687942318+668558915+652732884+632536142+610308670
1645+593235591+580966057+570030109+559689738+550841108+544623261+543400339
1635+549413415+560089020+572699939+588369088+609184769+634517635+661346791
1625+688966944+718037716+744544012+762781969+771275422+769173547+755943508
1615+738763002+727195379+725101802+733678736+751767417+774295078+795412004
1605+812535886+826033982+837005083+846223955+854104728+860988387+867414537
1595+873845782+880144854+885877027+891015079+895910840+900827708+905653889
1585+909903272+912870962+913642671+911177541+904678318+894011446+881988716
1575+875996711+878903847+886374129+895632376+906198153+916215445+923368616
1565+927664143+930021045+930511378+928652451+925520200+925773627+929826280
1555+933340710+935316525+935972001+935450808+933930754+931347426+927185673
1545+920761561+911889787+900676394+885261800+864485494+844093259+824778709
1536+797585788+752640729+692304658+634091787+586185589+544529263+509641999
1526+488802737+486141605+502594072+536908358+576666854+610367114+639813115
1516+667422641+690943415+710051991+726403364+740742675+755968982+779853739
1506+810203948+832288585+845154204+853870006+861029072+867818186+874881616
1496+881567599+886149086+887335216+884161844+875146034+859146126+838366618
1486+818469520+805456808+803672191+813684097+830227759+845051872+852695740
1476+851083107+837540323+807571273+763249885+716482727+674081257+635486292
1466+602491836+582464276+578982781+585372540+594630678+605947458+622460406
1456+642086973+656604237+665469970+672692502+681185154+692844629+708427058
1446+726175338+743164572+758119984+770828176+780853255+788432201+795337912
1436+803594168+812789823+821197393+828831435+836712208+844892552+852067485
1426+857381597+861281771+864415550+866730312+867979544+868656782+869749095
1417+871018051+871025548+868897982+864958941+860305254+855742617+851057342
1407+845165631+836819780+825348375+809856559+787851982+757098487+719022385
1397+676862262+632081836+588300637+552277463+526992706+511501400+505467509
1387+508338072+516195227+524856479+534134304+546414465+563176328+583327363
1377+604438284+624536880+641917610+654616703+661820894+664722061+665635550
1367+667069139+671102359+679170109+691260745+704767647+716503470+725604944
1357+732916634+739478668+745862459+751969678+757334665+761510538+764144814
1347+765002769+763963732+760909140+755776037+749037797+742450726+738807108
1337+739691338+744230612+750708728+757976312+765487425+773127581+781066652
1327+789307697+797372099+804595359+810592313+815391346+819300619+822667810
1317+825677131+828425311+831127273+834022545+837047515+839771967+841793636
1307+843182391+844461755+846124389+848255522+850619339+852925367+854995217
1298+856788132+858295012+859484126+860412971+861232207+861931861+862206250
1288+861647501+860013179+857392223+854292361+851512230+849726812+849159767
1278+849693478+851171901+853512209+856682452+860689835+865470017+870673501
1268+875667590+879897977+883203085+885650092+887097655+887139651+885606860
1258+882945073+879924324+877111514+874684741+872551061+870504064+868327515
1248+865842371+862905103+859398171+855218877+850262634+844460154+837875484
1238+830742474+823398324+816211237+809544251+803676630+798653501+794151491
1228+789533976+784184419+777823409+770398616+761784781+751929284+741343346
1218+731197739+722870157+717490759+715740349+717723443+722904656+730253755
1208+738492034+746221785+751965675+754288662+752022736+744510750+731838658
1198+714955831+695527450+675584426+657197775+642153278+631468938+625083182
1188+622228595+622297447+625403787+632164590+642920838+657086782+673183563
1179+689397013+704083204+716069033+724937969+731065931+735106720+737402341
1169+738050538+737546013+737243894+739034989+744260889+752637891+762135227
1159+769934557+773621698+771893051+764809969+753865579+741880842+732599159
1149+729669315+734918870+746898731+761188769+772389206+776018340+769379666
1139+752353749+728624528+705640596+691540446+690476809+700376630+715213407
1129+729414942+740479713+748573156+754935913+760837595+767034554+773330424
1119+778574156+781334490+780746193+776943255+770902559+763801209+756341699
1109+748689898+741044721+734116738+729071119+727074924+728646072+733136072
1099+739041830+745173722+751533495+758997081+768248851+779001242+790074384
1089+800177558+808618317+815320602+820429032+824114863+826548697+827741523
1079+827458910+825485132+821933802+817209880+811826261+806454650+802051916
1069+799515969+798857291+798751393+797085847+791878361+781696290+765881467
1060+745196139+722293504+701126213+685663583+678754159+681291489+691792127
1050+707004896+723635970+739895783+755536365+770698769+784965953+797367514
1040+807000225+813552652+817288048+818710065+818422721+817175527+815706493
1030+814487757+813726965+813510147+813905354+815043157+816903904+818526945
1020+817216721+809044893+791656230+768256493+748458015+742527729+753112939
1010+773416016+793857815+809208070+819425294+826323218+831207843+834703131
1000+837165422+838829949+839846787+840360993+840626793+841030952+841875370
990+843109755+844434971+845696503+846986129+848332744+849507811+850166489
980+850021944+848930867+846941951+844209055+840903365+837394249+834372846
970+832511298+832113398+833260881+836010443+840186825+845176766+850129734
960+854355608+857637717+860284584+862779045+865293448+867588559+869289840
950+870102598+869836216+868332246+865327073+860450309+853570362+845154932
941+836116850+827266037+819005342+811493792+804930302+799674852+796203510
931+794823488+795131793+795728752+794811698+791308040+785409415+778127857
921+770728828+764750070+762163467+764836899+773392653+786521889+801485380
911+815421842+826573880+834719143+840598190+844985277+848355015+851057997
901+853255580+854720247+855161524+854733129+853836308+852379647+849592602
891+844811837+838258973+830806086+823351015+816884471+812688656+811702386
881+813815759+818115726+823487773+828886967+833625665+837615652+841031971
871+843833573+845854222+847156512+848057991+848866964+849642385+850197640
861+850311544+849850032+848729697+846940641+844616854+842006596+839435496
851+837288351+835923395+835605265+836449756+838254825+840419946+842244594
841+843310852+843495354+842758727+841113414+838721867+835922377+833244286
832+831427354+831104565+832147824+833542329+834352467+834798839+836112920
822+839396557+844780759+851460045+858277326+864356742+869391226+873435727
812+876556988+878836159+880542754+881874666+882477011+881641618+879214262
802+876079683+873520955+872144136+871577163+871235233+871034573+871019725
792+870645698+868992962+865677519+861337304+857229555+854253131+852211884
782+850045598+846510134+840423440+830945318+818363331+804331524+791063419
772+780604632+774590938+773773595+777433297+783479452+789287100+792551959
762+791521947+784828322+771678853+752272597+727457613+697900437+664138276
752+627492197+590424200+555772096+525781467+502083687+486497036+481180486
742+487552304+505193230+531803894+564136397+599073916+633965073+666431567
732+694532737+717301089+735004680+748867851+760301264+769969274+777570273
722+782750976+786035777+788539700+790986052+793394921+795597162+797779024
713+800590815+804686992+810086259+816195952+822484326+828699481+834363529
703+838674413+841199734+842335062+842928600+843589170+844325288+844789493
693+844860601+844857471+845160900+845790392+846417992+846767055+846917641
683+847094939+847310082+847535052+848026986+849034800+850368022+851200577
673+849775285+844062763+834600071+828636451+834920240+847430027+855683518
663+858102358+857355031+855696473+853757776+851359096+848423212+845102456
653+841524051+837692947+833825379+830421069+827617357+825017362+822545681
643+820868636+820696870+822037298+824127236+826018698+827406434+828810255
633+830834762+833464161+836130315+838216760+839475162+840101961+840350221
623+839942787+838055110+834304503+829798199+826585306+825694089+826304003
613+827149076+827800476+828408280+829247166+830778138+833487815+837432460
603+842020352+846246008+849376075+851505461+853158779+854423951+854852419
594+854023140+851998560+849538962+847730690+846952650+846471997+845395913
584+843738010+842067151+840319289+837694621+833926619+830123827+827978865
574+828230546+830136418+832118566+832698930+831513091+829486474+827447338
564+825134977+822312997+820129316+820266801+823019420+827158101+831634201
554+836571447+842221959+847554048+850798019+851561867+851483627+852350971
544+854521260+857556565+861238903+865260114+868845215+871423739+873169636
534+874564723+875865922+877134878+878535642+880397408+882830514+885299137
524+886919558+887061556+885271698+881617600+877888609+876974902+879665948
514+883624057+886268085+887059445+886762421+885854173+884629323+883991024
504+884457994+884778963+883494941+881768987+882019139+884188264+885667560
494+884572408+881862730+879936406+880068578+881608939+882868797+882299059
484+879726867+877026723+876618561+878910542+881871027+883196535+882567770
475+881392339+880894510+881232146+882269509+884357337+887698617+891349950
465+893498041+892884633+890005373+887279174+887795272+892518248+898391764
455+901989310+903130897+902700828+900406008+896116086+891658910+889525302
445+890164693+891697048+891926238+889563877+883746840+873730713+859909974
435+844268737+828281420+811559441+794531050+781123786+776545574+783209721
425+799168434+818460859+834542428+845051945+853224429+863576009+873796290
415+878778880+877909934+874790930+873500722+874357513+874362171+871464570
405+866829005+862907796+860476365+858401347+856139498+856481792+863137860
395+874213913+884620226+891756656+895227780+893571187+884321382+869589412
385+860025043+866300170+884178948+900047556+906806830+904875775+897580825
375+891447551+892496777
##END=
