##TITLE=X8284
##JCAMP-DX=4.24
##DATA TYPE=INFRARED SPECTRUM
##DATE=31/10/2018
##SAMPLING PROCEDURE=Diamant-ATR
##ORIGIN=ComPlat
##XUNITS=1/CM
##YUNITS=TRANSMITTANCE
##RESOLUTION=4
##FIRSTX=3997.453
##LASTX=373.96442
##DELTAX=-1.4165319
##MAXY=0.93220532
##MINY=0.54438061
##XFACTOR=1
##YFACTOR=8.6818386e-010
##NPOINTS=2559
##FIRSTY=0.87840044
##XYDATA=(X++(Y..Y))
3997+1011767768+1012415865+1012997094+1012856146+1012188825+1011686824
3989+1011706047+1012094219+1012649290+1013251939+1013671142+1013727096
3980+1013538914+1013291346+1012942170+1012431244+1011969680+1011879606
3972+1012227890+1012774173+1013216719+1013390483+1013280087+1012971691
3963+1012630136+1012437491+1012497084+1012783372+1013111128+1013163169
3955+1012757833+1012207293+1012180312+1012995789+1014160923+1014861953
3946+1014913169+1014801606+1014925458+1015213120+1015370682+1015312051
3938+1015216484+1015178381+1014984501+1014418995+1013714257+1013393367
3929+1013655558+1014289719+1014986561+1015364847+1015124488+1014414464
3921+1013666474+1013122045+1012771083+1012532029+1012381675+1012425958
3912+1012852988+1013721878+1014767210+1015597036+1016181422+1016909708
3904+1017934375+1018654972+1018464250+1017564808+1016538288+1015836434
3895+1015718211+1016133982+1016620673+1016658090+1016414916+1016472105
3887+1016806795+1016801097+1016273213+1015877146+1015809384+1015462954
3878+1014792749+1014606009+1015123046+1015629921+1015561541+1015311296
3870+1015570467+1016537395+1017983257+1019416555+1019930364+1018837798
3861+1016837346+1015315209+1015046496+1016145104+1018285885+1020256953
3853+1019888623+1017449057+1015561953+1015072310+1015618868+1016651224
3844+1017532335+1017810522+1017664632+1017645683+1017923253+1018205628
3836+1018350695+1018437886+1018273184+1017560758+1016587170+1016155059
3827+1016653696+1017684130+1018755276+1019836171+1020718929+1020673342
3819+1019805276+1019039505+1018437749+1017520732+1016506569+1015940788
3810+1015893142+1016126018+1016487209+1017007335+1017596321+1017822812
3802+1017246458+1016370565+1016568221+1018015524+1019377559+1019400833
3793+1018329756+1017309826+1016937101+1017096585+1017540230+1017982570
3785+1017935267+1017258060+1016579412+1016428784+1016499017+1016290102
3776+1016020977+1016205314+1016962709+1018051362+1018995635+1019225009
3768+1018639593+1017783679+1017233825+1017261905+1017814298+1018447979
3759+1018481825+1017835856+1017548263+1018461297+1020162760+1021301324
3751+1020633317+1018861827+1017865515+1017737680+1017208149+1015546643
3742+1013830283+1012996544+1012618464+1012364237+1012639267+1013553331
3734+1013834334+1012824153+1011892719+1012165071+1013339336+1014468563
3725+1014891269+1014707893+1014385903+1014014414+1013442455+1012865277
3717+1012762982+1013420142+1014791582+1016526754+1017750518+1017544899
3708+1016131922+1014435403+1013206146+1012837335+1013145181+1013360413
3700+1013061766+1012790993+1013098427+1014007137+1015586738+1018185993
3691+1021601687+1024031504+1023072745+1019390878+1016001616+1014295005
3683+1014039199+1014769819+1016317976+1018665338+1021502482+1023728120
3674+1024029650+1022915389+1021661279+1020541320+1019636180+1019231531
3666+1019107816+1018753697+1017992251+1017111346+1016600351+1016849567
3657+1017934100+1019328471+1020249676+1020734307+1021564133+1023097461
3649+1023897971+1022062015+1019165760+1017770360+1018173636+1019148322
3640+1019617163+1019576588+1019402000+1018854275+1017531786+1015824968
3632+1014646927+1014398330+1014668691+1014816092+1014783412+1014882343
3623+1015348919+1016461807+1018274077+1020094380+1021041193+1021184268
3615+1020860288+1019951785+1018724793+1018113632+1018599705+1019554070
3606+1019935857+1019499077+1018862171+1018531394+1018283483+1017635522
3598+1016722899+1016014249+1015527901+1015094348+1014911522+1015222251
3589+1015932413+1016767319+1017548537+1018308473+1019013210+1019334376
3581+1019023234+1018404520+1018037494+1017881305+1017514141+1017066377
3572+1017157550+1018141025+1020034582+1022564977+1024446245+1024012624
3564+1021728835+1019530384+1018453951+1018281080+1018495007+1018964603
3555+1019628560+1020152049+1020300068+1020321351+1020600912+1021135798
3547+1021419341+1020757856+1019193085+1017961081+1018264465+1019889034
3538+1021452913+1021841909+1021125775+1020116555+1019559631+1019813446
3530+1020660847+1021379384+1021509690+1021407601+1021642605+1022234681
3521+1022671803+1022399245+1021341006+1020156718+1019713966+1020076667
3513+1020403325+1020027442+1019285700+1019078912+1019776647+1020830492
3504+1021423254+1021270773+1020783052+1020396940+1020088819+1019734150
3496+1019465849+1019435092+1019533817+1019573087+1019561278+1019696939
3488+1020156718+1020857817+1021429090+1021511063+1021113211+1020614711
3479+1020365633+1020413485+1020674098+1021102226+1021515183+1021547656
3471+1021103256+1020544821+1020139966+1019725362+1019206678+1018862102
3462+1018837249+1018915858+1019025499+1019425205+1020207728+1020988603
3454+1021260955+1020996842+1020797264+1021210769+1021907954+1021989585
3445+1021257729+1020492713+1020333778+1020598303+1020716663+1020403187
3437+1019845370+1019448754+1019425960+1019623136+1019746302+1019679295
3428+1019578648+1019717124+1020151294+1020528207+1020386436+1019666937
3420+1018791182+1018304285+1018498508+1019189103+1019782002+1019809258
3411+1019422802+1019170360+1019411749+1020091565+1020897499+1021509828
3403+1021798725+1021803119+1021523490+1020905943+1020090535+1019465094
3394+1019326961+1019580708+1019834111+1019774999+1019460494+1019196723
3386+1019145576+1019155325+1019131364+1019345772+1019978285+1020560886
3377+1020444792+1019717673+1019096831+1019026323+1019301696+1019469968
3369+1019340898+1019167614+1019242310+1019345086+1019117771+1018981080
3360+1019757836+1021216879+1022004963+1021354325+1019994488+1019002088
3352+1018569977+1018332502+1018208581+1018374450+1018758159+1019000303
3343+1018817751+1018236111+1017532884+1016908678+1016164876+1014970770
3335+1013538708+1012665630+1012895691+1013891592+1014778881+1015007775
3326+1014754028+1014477351+1014266376+1013776664+1012716434+1011212354
3318+1009707175+1008589893+1007970836+1007742629+1007597150+1006925710
3309+1005186488+1002689527+1000592341+999737251+999789840+999694754+998733386
3299+996984621+994939200+992935453+991062012+989402017+988113374+987210431
3289+986394336+985233116+983562205+981597041+979582172+977562496+975625000
3279+973951137+972341260+970150842+967064277+963515119+960077868+956908094
3269+953972157+951276579+948692221+946096261+943852841+942600036+942368945
3259+942412815+942105312+941590884+941299584+941167012+940707577+939752457
3250+938740216+938162764+937971012+937652181+936792834+935555133+934535203
3240+934014802+933546785+932614321+931450354+930729758+930744999+931323207
3230+932214684+933236742+934380662+935970011+938356232+941347436+944325801
3220+947018633+949727530+952607582+955250296+957341921+959224150+961321679
3210+963425525+965051742+966224565+967447094+969003283+970587621+971696595
3200+972260591+972744056+973673018+975157533+976769744+977838762+978029346
3190+977620853+977053493+976519155+976270626+976754640+977978405+979290802
3180+980157221+980678720+981134173+981483761+981576513+981527425+981650042
3170+982166873+983126798+984451348+985894395+987119670+988000780+988697211
3160+989365905+989992033+990475154+990721898+990816504+991141513+991986512
3150+993058207+993770085+993881923+993547782+993061503+992789700+992926253
3140+993204510+993260669+993171144+993216730+993360630+993341612+993035894
3131+992465926+991665278+990721623+989801997+989061010+988570749+988329017
3121+988259951+988203929+987967895+987501938+987010715+986752437+986727859
3111+986759509+986895857+987543817+989021534+991032284+992830274+994001381
3101+994810267+995662475+996641692+997732611+998965507+1000126041+1000825011
3091+1001040861+1001200139+1001655867+1002339115+1002887595+1002942862
3082+1002371657+1001320078+1000080523+998893969+997852550+996998764+996503766
3072+996547087+996964231+997322744+997434307+997469184+997634298+998050618
3063+998704757+999215134+999013633+997951756+996335150+994408639+992341661
3053+990513257+989171887+987906930+985964903+983140323+980072707+977538055
3043+975709926+974416065+973847881+974382768+975815242+977509083+979282495
3033+981425954+983928407+986283665+987979360+988801634+988853262+988462207
3023+987880498+987078889+985919866+984301269+982147649+979686938+977646529
3013+976694499+976757523+977232818+977603552+977550962+976926276+976050520
3003+975701825+976456954+978231671+980545256+982997797+985457066+987959313
2993+990521907+993058070+995451088+997629835+999594038+1001383103+1002920618
2983+1003952631+1004309497+1004097561+1003527042+1002870775+1002604465
2975+1003002523+1003499375+1003022913+1001046078+997866624+993904167+989159941
2965+983408625+976676580+969375184+962021130+955025590+948768702+943639669
2955+939959656+937967030+937714382+938848690+940756322+943030361+945480431
2945+947610846+948469026+947201940+943576850+937894394+930720215+922909197
2935+915475917+908987526+903373106+898680166+895557077+894570925+895493023
2925+897572908+900235326+903421439+907423648+912293785+917396180+921849723
2915+925392976+928499176+931700119+935060478+938261764+941030390+943433431
2905+945726420+947953569+949779982+950658758+950147420+948221870+945401478
2895+942542297+940463922+939707420+940511843+942886599+946616593+951250284
2885+956243588+961174553+965793965+969931628+973440211+976195381+978164458
2876+979526699+980622492+981709497+982836184+983861812+984411666+983939392
2866+982115382+979120608+975374961+971018771+965832617+959671914+952888584
2856+946345614+941133921+938204849+937999092+940273338+944327174+949388034
2846+954732092+959570855+963021219+964330871+963308126+960587215+957362174
2836+954867685+954128414+955816420+959890990+965423574+971118869+976119312
2826+980255397+983638411+986294650+988252468+989680891+990726704+991428969
2816+991960561+992634815+993495261+994252382+994787131+995379069+996283385
2806+997349657+998210445+998680797+998828953+998760985+998552344+998399314
2796+998606032+999316605+1000355758+1001332710+1001903297+1002053376+1002109398
2786+1002358133+1002758388+1003118549+1003345863+1003414312+1003296432
2778+1003051405+1002828484+1002705249+1002622109+1002555377+1002665842
2769+1003105161+1003758820+1004430603+1005157310+1006024690+1006837695
2761+1007334066+1007577240+1007834488+1008207419+1008564971+1008740040
2752+1008724043+1008700014+1008824554+1009013765+1009111666+1009192472
2744+1009435097+1009738618+1009784273+1009545081+1009442100+1009836931
2735+1010573456+1011177065+1011354537+1011122760+1010612314+1010030331
2727+1009728045+1009955154+1010493542+1010833381+1010800565+1010752438
2718+1011065777+1011666983+1012162599+1012304027+1012233313+1012305606
2710+1012728998+1013414924+1014115680+1014611639+1014827489+1014872595
2701+1014902596+1014892985+1014655097+1014147879+1013674163+1013627616
2693+1014049428+1014590219+1014953607+1015120917+1015094966+1014827008
2684+1014516553+1014547447+1014948114+1015303332+1015303470+1015044093
2676+1014742632+1014483667+1014309422+1014297339+1014454077+1014697388
2667+1014981480+1015302783+1015595045+1015786934+1015928568+1016112424
2659+1016343378+1016590808+1016868859+1017203206+1017596801+1017971380
2650+1018120222+1017924351+1017630717+1017633875+1017986278+1018406099
2642+1018676666+1018736808+1018512720+1018000420+1017406629+1016974518
2633+1016837346+1017164553+1018102647+1019400970+1020483170+1021050598
2625+1021218115+1021044213+1020465182+1019726324+1019308150+1019336161
2616+1019518438+1019692889+1019961739+1020276726+1020420488+1020470949
2608+1020765957+1021341144+1021896077+1022283151+1022497627+1022313839
2599+1021543606+1020592193+1020230521+1020753599+1021645145+1022154492
2591+1022063182+1021767900+1021700824+1021886328+1022054532+1021979973
2582+1021663202+1021267615+1020963888+1020918027+1021271322+1021861338
2574+1022230287+1022299147+1022573765+1023235250+1023749746+1023943008
2565+1024572569+1026091548+1027596521+1027793628+1026583731+1025016626
2557+1023995254+1023647863+1023708485+1023895705+1023996421+1023936555
2548+1023680886+1023064163+1022104993+1021376981+1021506738+1022386407
2540+1023308779+1023718577+1023602208+1023356013+1023359858+1023587722
2531+1023803159+1024035966+1024426267+1024751139+1024680974+1024345254
2523+1024104895+1024000060+1023912869+1024019695+1024592616+1025485055
2514+1026194049+1026421226+1026388959+1026607692+1027373532+1028428406
2506+1029159782+1029188548+1028608624+1027633594+1026392117+1025201238
2497+1024574560+1024678640+1025096471+1025300580+1025133407+1024784986
2489+1024570990+1024790753+1025609937+1027007947+1028778475+1030444443
2480+1031303927+1030958733+1029841657+1028860243+1028473306+1028401494
2472+1028222786+1027918236+1027771521+1027939587+1028235350+1028359889
2463+1028326661+1028450788+1028841294+1029227750+1029450945+1029716363
2455+1030129663+1030469708+1030677593+1031056978+1031712009+1032276348
2446+1032409538+1032132380+1031615481+1031064324+1030745973+1030732860
2438+1030736911+1030506026+1030216579+1030228525+1030611616+1031121101
2429+1031529663+1031786362+1031899298+1031834283+1031547101+1031023406
2421+1030345924+1029764902+1029512803+1029507036+1029451426+1029243540
2412+1029058517+1029095247+1029389499+1029791952+1030075837+1030178476
2404+1030226397+1030246169+1030095335+1029781928+1029541569+1029510125
2395+1029598895+1029758036+1030097944+1030678555+1031317521+1031530006
2387+1030519894+1027537616+1022598069+1016581265+1010314079+1003841480
2378+996797675+989067670+980832712+972331786+963702202+954855258+945745231
2368+936777181+928446244+920925017+914702868+910772953+909389154+909783231
2359+911777229+916265236+923625194+933170697+943990974+954632955+962634695
2349+965714051+963119258+956353503+948988602+944217533+942495681+942638963
2339+943708873+945389876+947544526+949680639+951162201+952092399+953282317
2329+955025109+956705014+957881407+958977269+960785008+963854066+968399262
2319+974166232+980139096+984987470+988121887+990051625+991725076+993861326
2309+996809552+1000578816+1004826739+1008933920+1012283500+1014687914
2300+1016586140+1018608287+1020849921+1022690203+1023458308+1023325256
2292+1023362879+1024427022+1026160957+1027575170+1028366892+1028983821
2283+1029628829+1030067187+1030308370+1030696611+1031332625+1031902937
2275+1032011480+1031431350+1030279810+1029104721+1028491019+1028464038
2266+1028609654+1028835870+1029495021+1030555320+1031257448+1031005555
2258+1030070414+1029029819+1028160654+1027797404+1028426621+1029871865
2249+1031253878+1032235430+1033353673+1034754292+1035681058+1035698427
2241+1035448662+1035585422+1035681881+1034903478+1033432214+1032499063
2232+1032989050+1034512697+1035900134+1036337462+1036109186+1036239973
2224+1037205391+1038371898+1038998988+1039079657+1038857628+1038431971
2215+1038120623+1038324046+1038947291+1039521860+1039833551+1040114141
2207+1040599734+1040886984+1040079333+1038054097+1035991307+1035039139
2198+1035173290+1035704331+1036113992+1036137197+1035443719+1033536157
2190+1030508704+1027805230+1027073100+1028242422+1030093962+1032314452
2181+1035320897+1038743868+1041528216+1042720674+1041444114+1037497173
2173+1032646739+1029928780+1030879643+1034096239+1036876743+1037822594
2164+1037429479+1037050713+1037965533+1040122586+1041395370+1040269781
2156+1038448173+1038202665+1039761257+1042330648+1045214202+1047577905
2147+1048682142+1048399011+1046886349+1044414310+1041488190+1038475223
2139+1035834912+1035008862+1037433118+1042182630+1046380022+1048289713
2130+1048372511+1047590262+1046374050+1044991144+1043816261+1043281855
2122+1043726393+1044839418+1045481886+1044853011+1043620871+1043080080
2113+1043479580+1043926589+1043735592+1043175304+1042886886+1043038063
2105+1043214162+1043087220+1042987397+1043401932+1043975814+1043749460
2096+1042608767+1041651245+1041738985+1042522744+1043165898+1043219517
2088+1042722185+1042183385+1042344585+1043264692+1043992909+1043876952
2079+1043634876+1044217409+1045283200+1045919214+1046191154+1046621480
2071+1046902894+1046675648+1046717253+1047767871+1048906573+1048457573
2062+1045998098+1042575127+1039517603+1037642102+1037232510+1038185708
2054+1039564700+1039384070+1036433784+1032513687+1031155291+1033545494
2045+1037457559+1040651019+1043367811+1046853051+1050505603+1051677945
2037+1048915018+1044344076+1041335228+1040798900+1041650283+1043331149
2028+1045413712+1046457533+1045817537+1045262947+1046706955+1049365116
2020+1050938469+1050661448+1049555083+1048747913+1048937674+1050061615
2011+1050588743+1049099217+1046859230+1046204473+1046642351+1045719773
2003+1043229129+1041559248+1042481825+1045371352+1048086084+1048954700
1994+1048127002+1047053179+1046733867+1046864654+1046710593+1045914134
1986+1044291693+1041878285+1039516504+1038708648+1040450479+1044429894
1977+1049244147+1053057899+1054581546+1054029908+1052660459+1051116284
1969+1049115145+1047017410+1046216488+1047172844+1048674521+1049719235
1960+1050646550+1051955103+1053030575+1052582467+1050093951+1046837535
1952+1045225942+1046659652+1050197070+1053660616+1055696356+1056329899
1943+1056021435+1055110666+1054161038+1053961322+1054825269+1056122426
1935+1056682234+1055806615+1053845228+1051880613+1051019687+1051645815
1926+1053044992+1054064922+1054258184+1054026338+1053664323+1053053574
1918+1052397375+1052176445+1052114725+1051384448+1049910026+1048577925
1909+1048075374+1048002875+1047500188+1046321529+1044869076+1043533748
1901+1042432738+1041704864+1041603324+1042106766+1042811779+1043459876
1892+1044201206+1045019704+1045389271+1045160652+1045331807+1046841929
1884+1049086997+1050514803+1050609202+1050354975+1050694334+1051582310
1875+1052603270+1053664873+1054922621+1056371229+1057470317+1057380380
1867+1056225407+1055250721+1055211107+1055848426+1056607332+1057144964
1858+1057280145+1057007861+1056738530+1057043699+1057991679+1059058706
1850+1059773535+1060183196+1060630136+1061201822+1061483305+1061124654
1841+1060549193+1060394309+1060751243+1061091906+1060728312+1059646387
1833+1058632225+1058393788+1058915012+1059843082+1061148134+1062649537
1824+1063502019+1063113709+1062020663+1061169279+1061087924+1061714533
1816+1062554245+1063240171+1063813778+1064231952+1064107345+1063375489
1807+1062638072+1062457099+1062868613+1063578431+1064218771+1064506158
1799+1064449930+1064316809+1064314269+1064429471+1064432011+1064015004
1790+1063274567+1062745928+1062676793+1062767691+1062605324+1062262120
1782+1062104902+1062058285+1061775841+1061405657+1061468338+1062194839
1773+1063236326+1063716015+1063088857+1061883903+1060780970+1059974144
1765+1059508461+1059402184+1059379459+1059035501+1058406489+1057699417
1756+1056893003+1056180439+1056082743+1056802379+1057799996+1058182882
1748+1057774868+1057080292+1056385784+1055735901+1055239530+1054968276
1740+1054848337+1054971572+1055669856+1056976624+1058108597+1058253939
1731+1057882244+1057582911+1057470523+1057684451+1058343602+1059254028
1723+1060079116+1060842416+1062015788+1063963445+1065913161+1066440290
1714+1065776333+1065118899+1065095007+1065689623+1066657169+1067851962
1706+1069187153+1070488909+1071699355+1072884398+1073741823+1073707702
1697+1072748600+1071192822+1069679954+1068890222+1068919057+1069370048
1689+1069815752+1070248962+1070773824+1070724050+1069133945+1066476608
1680+1063605000+1060866582+1058291424+1055621111+1052786302+1050153063
1672+1047597540+1044041654+1038643976+1032136087+1024848697+1014808883
1663+999093135+977785623+955006985+934281662+917013157+902334915+883570911
1653+851038953+816817685+795576562+779986795+763169968+749598159+748265920
1643+758839591+777266913+800445738+825975222+854100116+885992832+915518894
1633+935378965+948575989+960079241+971508276+981999905+990540307+997420577
1623+1003089989+1007120071+1009398367+1010626526+1010930459+1009196454
1615+1004844864+998849481+992100959+985295042+979064449+972933336+965092728
1605+953662525+937816677+918668621+899644760+885023432+877867584+879360817
1595+888900209+904335229+923073831+943171446+963144660+981642078+997784033
1585+1011354262+1022617566+1031987794+1039686218+1045940154+1051312086
1577+1056096268+1059551164+1061335766+1062223674+1062634776+1062369290
1568+1061261208+1059376095+1056775947+1053781036+1050785713+1047060525
1560+1039686561+1028023139+1019197547+1014981480+1012499967+1009674976
1551+1004643706+996139417+984834920+972184042+958258869+942682970+925708993
1541+905688339+882408317+864332849+854569163+848291473+841692274+834563064
1531+829261845+826478802+824821828+823166433+821574749+820451632+819565097
1521+818523473+817278425+815146225+809915584+798646101+779476761+752606320
1511+720918057+689390101+661333724+638475103+627033778+628060367+635092363
1502+645184904+658224023+674258533+692319928+709798996+724487537+737110541
1492+749906967+764036798+777858028+788947842+797358831+804259010+810515692
1482+816816450+823553232+830741760+838217606+845480281+851334922+853702538
1472+850794200+843865598+835823284+828265601+821740618+816631975+813292213
1462+811860700+812318282+814583740+818153357+821706016+824857116+828681578
1452+834140839+841956250+852338512+863218244+869137421+864641862+848908950
1442+827500105+810167271+804967935+815157485+837141929+859879924+877052656
1432+891174249+905154208+918684000+930191851+939519581+947259129+953002551
1422+955198393+951050431+935614381+906287074+869081399+831248223+796623336
1412+769527571+754123445+750553828+754852212+762526264+771043460+779865139
1402+789788104+802332156+818228190+835744125+852209374+866787175+879458238
1392+889844276+898330097+906037927+913706418+921053675+927286808+932338331
1383+936837460+941226947+945543044+949734738+953756101+957444147+960597787
1373+963236863+965653704+968064846+970350145+972359248+974323999+976489085
1363+978498325+979764861+980298100+980413027+980229926+979853013+979468823
1353+979166195+978917322+978699207+978529631+978425276+978345294+978232495
1343+978092646+977849609+977119195+975415605+972629677+968853342+963714835
1333+956153445+944915886+929715320+912298453+896155744+884752041+879632551
1323+879686857+881838348+882550912+879435788+872420612+863580190+855830687
1313+852028538+854502705+864309438+880518124+899622860+915274416+919936942
1303+909410437+887622825+866279201+857380972+864975111+884010642+906158965
1293+925813553+941382793+953204875+961645934+966688875+968242936+966269877
1283+960741893+951927835+940895965+929565860+920081460+913961538+911591656
1273+912403632+915526172+920217602+925792202+931497520+936675710+940894386
1264+943730293+944504921+942538041+937867688+931553748+925049155+919305596
1254+914342707+909276081+902697272+893263952+880068095+862609692+840906593
1244+815986075+790020979+765634523+745033328+729602290+719804070+715126509
1234+714073762+714262150+712957991+708283724+700477925+692154196+687119906
1224+688290326+696103953+708739178+723737350+739327735+754608901+769144274
1214+782625115+794754426+805348349+814524697+822686470+830280539+837616743
1204+844859782+852028195+858925902+865184575+870470896+874584667+877358992
1194+878641593+878332305+876053116+870719630+861065792+847249230+831872635
1184+818732045+810000234+804695721+800187392+795097835+790382376+787679589
1174+787260660+788082454+789739634+793702434+801981675+814639556+829197997
1164+842612106+853321300+861307867+866930182+870416590+872368778+874086648
1154+876917819+881297214+886599188+891957939+897120681+902433846+908122824
1145+913860410+919111510+923653480+927552501+930759279+932864361+933132113
1135+930729621+925172596+916959332+908077924+901695124+900531707+904944812
1125+912782673+921270966+928711868+934489685+938336116+940043826+939371150
1115+935677681+927796293+915114245+899735590+887286075+883886241+891256359
1105+905229659+919321730+929340811+934985507+938423720+941957087+946428686
1095+951198176+955298903+958356770+960444894+961459331+960826887+957683957
1085+951439015+942555547+932914547+925162023+921464777+922654009+928079217
1075+935946325+944087776+950983631+956328307+960654702+964477860+967863140
1065+970718545+973183719+975440320+977342940+978629111+979377993+979950365
1055+980639037+981575140+982757438+984020816+985056056+985435852+984622641
1045+982085174+977360103+969874988+958796090+943026791+921260050+892589971
1035+858085092+821877995+789765379+766182935+752870571+750251543+758663767
1026+777259430+802543817+829358167+853563238+873619112+890028269+903818674
1016+915500563+924707462+930133632+930579885+927436063+925441515+928986279
1006+937780908+947722684+955569951+961167894+965729429+969885218+973570586
996+976613349+978996824+980885575+982500464+983886047+984896709+985513020
986+986050515+986887893+988072318+989333912+990355832+990851861+990455519
976+988666179+985071846+979906838+974438103+970416191+968811257+969049488
966+969457501+968505058+965823280+962049279+957685262+952600373+947054333
956+942691071+941644915+944402626+948680893+950416683+946025890+934399473
946+917636059+900347026+887828651+883680758+888069079+897944740+909206259
936+919184559+927588682+935453455+943524261+951738692+959724709+967109108
926+973469321+978593205+982757300+986339138+989241022+990985737+991270446
916+990194769+987973181+984467688+978954327+970318908+957576650+940531135
907+920468121+900507884+884929582+877353019+878845360+887376219+899162944
897+910922001+921203547+929956847+937412921+943703792+948982767+953104022
887+955243293+954421019+950530443+944807961+939553496+937252475+939236107
877+944893093+952395028+959994384+966310040+969869359+969174645+963374171
867+952908837+939956566+928236573+921542151+921758550+928149382+938329045
857+949673499+960240098+969119103+976101119+980924708+983033566+981960909
847+977305523+968139885+953070656+931451659+904397979+874111089+842035889
837+808068300+772100601+736376969+705939726+686558176+682110331+693223076
827+717154010+748303818+779401104+803350575+814965252+812027874+795883516
817+771338743+745166861+723647207+710638708+707009155+711234902+720702139
807+732948025+746189056+759293603+771625375+782847349+792709760+800887392
798+807118123+811969449+817426993+825843268+837907975+852057373+865819628
788+877265965+885510055+890684606+893638324+895318435+896196868+896233872
778+895394298+894103458+893049544+892737647+893473210+895384480+898029254
768+900297115+901062405+899735522+896163502+890499513+883404493+876034374
758+869446503+863922845+858987074+854120987+849360559+845191109+842023188
748+839823639+838190076+836751697+835415957+834206198+833035434+831718506
738+830067505+827919308+825088481+821269786+816001316+808797409+799492609
728+788864084+779103213+772987410+771618853+772832320+772545413+768738526
718+764296655+764704943+772594569+785450244+798817256+810634670+821433321
708+831674361+840938929+849063766+856220232+862057710+865960645+867987117
698+868885391+869428584+870043591+870817600+871691090+872699898+873903204
688+875057971+875691445+875601988+874930342+873623643+871216002+867363185
679+862439841+857627098+854556393+854224174+855427755+855600352+855130275
669+860826600+877652833+896406538+908645284+915308743+919681479+923468250
659+926529962+928247146+928659141+928303580+927219870+924626931+919771211
649+912329005+901475636+885656563+864664106+841817157+823174671+814142361
639+816135878+825647122+836553629+844076161+847797985+851575762+859939928
629+874003371+890851848+906554277+919102105+928530895+935324866+939872533
619+943209481+946957256+951921793+957290842+961552015+963691767+963541482
609+961699347+959132359+956371491+953025481+948035061+940308626+929530297
599+916686431+903416908+890739872+878840897+867983684+859326844+854797370
589+855805079+862128905+872389237+885143577+899156078+913018089+925284503
579+935388302+943870897+951211289+957168912+961746101+965842160+970207481
569+974374804+977247785+978372138+977910300+975612574+970441936+961103702
560+946756716+927730110+906391429+887328984+875584001+873643141+879903667
550+890308105+901599626+912618314+922779372+930890203+935774003+936716147
540+933162664+925138131+913816402+900626106+886003886+869918159+853523076
530+839507554+830711964+828705127+832897782+840599159+848638658+853994182
520+852396594+838257975+808076675+764721351+718363838+683493100+672646185
510+688763286+723288899+762926794+798292942+826254164+845405242+853947909
500+853996928+852215552+853803941+859489281+867871709+878164720+890010282
490+902412151+914165304+924441083+932535094+938015706+941598642+945069809
480+949540240+954160339+957257339+958622532+959524170+960547052+960930487
470+960300994+959387891+958787096+958482957+958487008+959134762+960622434
460+962550799+963894229+963009685+958160350+948681031+935324660+920562109
450+908340458+902090162+903485631+912076219+924690367+936415166+943321181
441+944936757+943461992+940753369+937729418+935672394+935612047+936755829
431+937660626+938147248+938052917+935277357+927828491+917666198+909372883
421+906213545+910777278+923462689+938146356+948494977+952609779+951967723
411+949978530+948654736+947188759+945017632+943954518+945928332+950309582
401+954482740+956454563+958092176+964459666+975116683+983743109+987200545
391+987416875+985708067+979501365+967045603+953461643+947240455+949368742
381+953992410+957235850+957866647+954405503+947101018+941643611
##END=
