##TITLE=JPK-012
##JCAMP-DX=5.0
##DATA TYPE=LINK
##BLOCKS=1


$$ === CHEMSPECTRA SPECTRUM ORIG ===
##TITLE=JPK-012
##JCAMP-DX=5.00
##DATA TYPE=INFRARED SPECTRUM
##DATA CLASS=XYDATA
##$CSCATEGORY=SPECTRUM
##ORIGIN=Lara
##OWNER=
##XUNITS=1/CM
##YUNITS=TRANSMITTANCE
##XFACTOR=1.0
##YFACTOR=9.3142716e-10
##FIRSTX=3997.453
##LASTX=373.96442
##MAXX=3997.453
##MAXY=1.0001122967701126
##MINX=373.96442
##MINY=0.2663396003535961
##NPOINTS=2559
##XYDATA= (X++(Y..Y))
2559A073216250A073186109A073387047A073288626A072797353A072269732A072127092
2552A072519688A073224185A073741823A073621261A072866849A071958151A071397318
2545A071345932A071638827A071959623A072067579A071954440A071675751A071151458
2538A070391927A069737473A069558101A069871538A070360571A070557221A070120534
2531A069226554A068486669A068272037A068407190A068613183A068772461A068703157
2524A068223659A067487357A066792715A066215180A065712965A065328048A065105161
2517A065022610A065084235A065320369A065627278A065673033A065158595A064239850
2510A063405512A063029426A063295572A064236586A065523866A066428916A066284996
2503A065078476A063595314A062667163A062372476A062290565A062159380A062098203
2496A062366908A063042544A063914319A064556678A064589763A064100090A063755488
2489A064240554A065429668A066494701A066768526A066235210A065505052A065168578
2482A065134086A064989142A064518411A063814170A062900288A061502557A059775647
2475A058646366A058673435A059628464A061037458A062215821A062352830A061338736
2468A060427350A060778607A061965673A062827913A062864069A062619296A062604578
2461A062725204A062720021A062362941A061342063A059706471A058464563A058180243
2454A058655837A059703207A061016788A062050976A062395577A062135382A061526491
2447A060570694A059358350A058383868A057901490A057728325A057874421A058637727
2440A059863509A060712950A060567814A059778207A058966266A058152598A057204608
2433A056508558A056427095A057038099A058262217A059590132A060424023A060608322
2426A060312675A059677034A058835657A058187090A058055712A058306564A058461427
2419A058251978A057878772A057669452A057798525A058116314A058376125A058593956
2412A058891011A059058736A058654493A057692809A056842217A056610755A056790639
2405A056917472A056944541A057169604A057653326A058181842A058604323A058948924
2398A059201888A059091244A058375997A057360495A056789935A056912865A056995224
2391A056140280A054678108A053955821A054446518A055414857A055960588A056047874
2384A056763570A058437046A059705447A058805388A055704744A053414314A053531613
2377A054610211A054962748A054057441A052819756A052588806A053369391A054085598
2370A053911154A052812013A051531709A051121963A051926801A053147784A053726087
2363A053322868A052486866A052021766A052212465A052630018A052493521A051563066
2356A050947839A051670382A053069648A053827451A053333363A052035205A050951102
2349A050573353A050524718A050538669A050889861A051712489A052459541A052328868
2342A051157799A049830844A049281914A049415851A049752709A050106845A050557802
2335A051097710A051360528A050850442A049598358A048606150A048545868A048960670
2328A049258812A049155592A048792177A048476500A048315174A048185333A047932049
2321A047666031A047676654A047959118A048108286A047916435A047672366A047617909
2314A047574138A047019320A045910196A045002586A044724602A044917220A045236224
2307A045431594A045476133A045509921A045621781A045712139A045664400A045534111
2300A045339828A044906085A044351395A044179639A044435482A044821999A045190213
2293A045429546A045228353A044577290A044162809A044404573A044833453A044704188
2286A043851356A042579434A041172104A040107840A040014474A040952417A042219219
2279A042977406A043008250A042543854A041589274A040218931A039205797A039334615
2272A040359908A041325559A041434027A040761207A040214772A040317864A040731194
2265A040785908A040159290A039311897A039103473A039864731A041080979A042032808
2258A042447545A042311816A041446378A039909590A038619175A038219668A038087139
2251A037368244A036083204A034985599A034639462A035025339A035778278A036345127
2244A036268207A035670322A035137838A035102834A035499717A035907800A035983951
2237A035680561A035085684A034236691A033210247A032338280A032054088A032442397
2230A033123792A033583133A033556512A033192201A032795637A032412832A031879580
2223A031317147A031189673A031693105A032438365A032943013A033162892A033295421
2216A033339064A033122832A032638535A032119553A031797093A031742763A031946260
2209A032346791A032670787A032517140A031868893A031290270A031248867A031492615
2202A031490632A031117298A030566383A029957492A029281600A028530772A027826787
2195A027483594A027732910A028319084A028704257A028696577A028591181A028672964
2188A028792567A028567696A027856352A026880397A025978995A025374774A025100117
2181A025046683A025113364A025291712A025573280A025896828A026224599A026560561
2174A026920713A027332123A027672628A027558465A026764954A025663830A024811062
2167A024356713A024143489A024028174A023938968A023897180A023992082A024171454
2160A024207226A023965141A023562050A023258724A023311902A023805351A024491738
2153A024910955A024787704A024250229A023590719A022943239A022380231A022165215
2146A022543028A023286305A023789352A023729135A023366168A023097078A022990338
2139A022918090A022836180A022669478A022203419A021452655A020914283A021058779
2132A021683925A022060011A021718289A020951143A020477596A020649865A021137810
2125A021453359A021528230A021597919A021799240A022076969A022288209A022224664
2118A021655256A020549332A019289570A018474045A018408453A018909836A019594879
2111A020179070A020569426A020863857A021161168A021313470A021064410A020390054
2104A019498954A018607662A017905021A017563684A017590945A017725329A017603103
2097A017094360A016468511A016141955A016308401A016884592A017670104A018432898
2090A018993283A019309472A019366617A019032127A018240856A017308992A016786427
2083A016858163A017123541A017185742A017180623A017380856A017598176A017446641
2076A016955688A016501787A016321583A016350892A016340077A016034447A015452881
2069A014972359A014891152A014988421A014843093A014543031A014629037A015217835
2062A015689142A015557445A015212844A015327455A015872673A016218811A015966615
2055A015253863A014465919A014007539A014172512A014911309A015814568A016455584
2048A016621581A016270965A015553605A014834070A014418373A014284564A014219099
2041A014102184A013935739A013705045A013312705A012661194A011817961A011082427
2034A010810778A011128246A011784301A012299443A012327280A011908639A011376794
2027A011089659A011229739A011684024A012055246A011939227A011274918A010405575
2020A009811146A009750673A010066925A010329808A010202846A009687064A009125591
2013A009029218A009689816A010787165A011514891A011246185A010068845A008723716
2006A008086668A008492126A009425973A010061678A010107177A009884418A009686552
1999A009502829A009333952A009258824A009171602A008895857A008585620A008570453
1992A008783102A008790013A008444260A008102346A008107146A008352558A008474720
1985A008289717A007943964A007713270A007709174A007813802A007868580A007805483
1978A007574917A007188081A006907152A007062783A007557639A007892642A007806379
1971A007508749A007197680A006777759A006175074A005483760A004668940A003547338
1964A002254811A001349312A001181651A001439862A001585062A001531244A001563240
1957A001712664A001616866A001039267A000222911I99641600I99534604I99696186
1950I99663294I99183732I98414154I97548395I96552859I95538637I94953167I95002377
1942I95225328I94971085I93975484I92336373I90339669I88425964I86898839I85539696
1934I83781621I81358469I78685937I76609179I75774584I76190154I77394498I79000398
1926I80926582I83155515I85523442I87776565I89639907I90860186I91408157I91573322
1918I91552141I90940049I89019433I85811473I82505796I80456043I79907112I80052760
1910I80087828I79556304I77642791I72967668I64798217I54260008I43461477I33090162
1902I21917592I09750959I00038385H97615105I03714452I14518231I24434750I29709485
1894I29255072I23479977I13146481H99380987H84612533H72838432H67906825H71139486
1886H80760358H93296230I05330143I14721856I21092469I25320922I28524658I31504292
1878I34701053I38061955I40995642I42899620I43831099I44555818I45913298I48067872
1870I50308964I51575638I51089100I48608099I44503792I39802432I35916148I34039815
1862I34595209I37034743I40198227I43080464I45328595I47045970I48419192I49713895
1854I51302644I53336208I55482655I57233370I58449682I59450082I60594209I61974598
1846I63470494I64820166I65650921I65762845I65414852I65054892I64811975I64487596
1838I63933418I63230969I62645499I62489676I62811496I63217722I63267509I62979157
1830I62677175I62468559I62196717I61838805I61629037I61709604I61863379I61784731
1822I61548086I61564212I62065468I62857507I63543510I63791290I63499675I62919324
1814I62423380I61974982I61104424I59590610I57847445I56471792I55685448I55312178
1806I55054671I54728052I54381851I54182129I54123640I54000134I53740963I53567030
1798I53727524I54295012I55285365I56687448I58265767I59636301I60694934I61697637
1790I62779756I63719106I64318143I64665240I64873984I64924091I64888703I65004338
1782I65423043I66081273I66773995I67243190I67369512I67355114I67510872I67839347
1774I68039517I67876143I67385126I66811303I66435089I66321374I66218985I65881551
1766I65441537I65234776I65320718I65457599I65542837I65767708I66219817I66574977
1758I66396757I65638955I64629980I63616782I62585921I61543670I60650459I59979046
1750I59473119I59277429I59748672I60934331I62329950I63354155I63865586I64103447
1742I64315967I64614430I65071850I65770204I66674614I67514776I67921514I67764476
1734I67322797I67020687I66983764I66957015I66650425I66006209I65123684I64173583
1726I63456352I63290994I63706372I64421619I65208667I66099703I67129539I68034590
1718I68406260I68153680I67640138I67272051I67097799I66951959I66830437I66871328
1710I67024399I66993938I66568002I65893966I65367113I65287570I65610414I65994627
1702I66130035I66012225I65826389I65600623I65158752I64469486I63801401I63393511
1694I63156993I62855971I62427155I61999875I61730401I61707940I61942410I62395351
1686I63011346I63669640I64181902I64478509I64727761I65138787I65702307I66204843
1678I66427090I66324126I66076665I65906061I65772827I65412356I64735568I63993699
1670I63437154I63064780I62851684I62951960I63465055I64222410I64967926I65542773
1662I65842004I65864273I65805336I65844179I65903117I65850195I65782362I65869393
1654I66074618I66241127I66335004I66401365I66355290I66033406I65456383I64813191
1646I64133524I63201788I61888912I60402167I59156035I58472911I58376986I58617663
1638I58938523I59297139I59793915I60501291I61393415I62302177I62946009I63162369
1630I63108231I63103111I63265397I63384488I63203004I62810472I62631996I62935258
1622I63464799I63694597I63347564I62565316I61722338I61206684I61207964I61545846
1614I61829462I61896911I61917068I62024000I62130421I62149362I62132020I62159793
1606I62293666I62547078I62794794I62869921I62786539I62674679I62570691I62480333
1598I62502859I62686326I62897438I62981781I62938970I62849444I62742832I62643067
1590I62650426I62804137I62872801I62495372I61622126I60628445I59866099I59268022
1582I58567557I57772702I57204766I57090538I57320081I57657963I58053310I58638653
1574I59513114I60630557I61857683I63007314I63856755I64302657I64497643I64666520
1566I64862082I65011185I64982836I64505770I63369449I61813592I60283396I58758511
1558I56888257I54854630I53467265I53234523I53824473I54612801I55356077
1551I56161875I57123495I58177264I59183167I60072796I60939770I61854611
1544I62569347I62669496I62092985I61269397I60725970I60708756I61110951
1537I61618606I61973958I62131956I62151026I62023745I61703268I61259030
1530I60967351I61149795I61862163I62824679I63637067I63935018I63558740
1523I62802665I62188206I61816728I61367242I60771341I60360891I60335678
1516I60514218I60570660I60333310I59973031I59849269I60046047I60268230
1509I60189199I59637324I58728499I58133109I58647932I60139604I61554741
1502I62190446I62269029I62212779I62094521I61889808I61749343I61885456
1495I62325535I62786475I62858275I62378841I61565876I60796234I60350396
1488I60284548I60419317I60475438I60275973I59859828I59478942I59443682
1481I59806521I60192782I60116567I59507931I58700150I57852117I56746897
1474I55348334I54123960I53477120I53239451I53070446I53017012I53383051
1467I54302756I55598866I56868675I57703398I57973575I57864148I57623087
1460I57402567I57248153I57051183I56605921I55862196I55011732I54326241
1453I54085372I54531082I55498333I56173969I55711685I54169267I52480496
1446I51513053I51452260I51975785I52580389I52753106I52204943I51094604
1439I49954764I49374221I49669868I50681786I51855222I52642782I52895746
1432I52882051I52943932I53134823I53211806I53025331I52809739I52957691
1425I53560247I54292133I54740658I54789997I54667963I54625983I54636606
1418I54475152I53996550I53193760I52103962I50894498I49957899I49669036
1411I50041666I50715318I51169091I51005654I50355551I49911185I50125945
1404I50605187I50882660I51279159I52122584I52773775I52462066I51460899
1397I50590340I50196273I50168948I50366558I50671227I50893794I50839464
1390I50432982I49689706I48688026I47623890I46851176I46712632I47174724
1383I47747588I47928431I47600468I46914593I46043715I45187491I44617507
1376I44585767I45172517I46202481I47337650I48346112I49306069I50422999
1369I51558168I52160340I51902513I51146630I50460243I49987080I49648366
1362I49572663I49853463I50193777I50171187I49622705I48636768I47534300
1355I46882405I47061521I47724678I48080158I47848760I47645007I48232269
1348I49617266I51099851I52080285I52561575I52959738I53653228I54551112
1341I54934685I54100026I52271624I50425111I49285527I49026868I49537787
1334I50309348I50636095I50522508I50747955I51800381I53457794I55210430
1327I56282117I55911535I54438036I53273239I53191136I53582324I53715749
1320I53659884I53549880I52961658I51724485I50688313I50695801I51131976
1313I50641471I49171236I48082462I48274377I49307221I50255786I50604675
1306I50481617I50388955I50505486I50387931I49749539I49219550I49883412
1299I52052704I54518283I55311986I53784606I51578709I50683386I51105803
1292I51580437I51811003I52624672I54352798I56314818I57739682I58365339
1285I58239593I57457921I56062174I54067710I51795965I50204272I50506510
1278I52872580I55441124I55791804I53965577I52572262I53233628I54632447
1271I55102538I55227772I56331840I58080507I59077131I58919965I58711732
1264I59861747I62783467I66431250I68817798I68615836I66516744I64508138
1257I64105623I65388999I67198651I68089879I67358121I65399109I63028432
1250I60621278I58246761I56181009I54633278I53471745I52740435I52826121
1243I53779998I55104074I56219596I56646556I56124759I55051088I54248682
1236I53963786I53665259I52983096I52171667I51481504I50710135I49628528
1229I48473010I47801534I48033636I49171428I50757490I52024483I52290566
1222I51439845I50071871I49038131I48712663I48817867I49041330I49452036
1215I50017605I50283943I50036611I49717990I49739364I49944525I50071423
1208I50208687I50592516I51322162I52177234I52492335I51671691I50150582
1201I49232221I49602867I50584837I51219582I51539290I52213646I53219997
1194I53607474I52879427I51933422I51945004I52684313I52764624I51594260
1187I50190513I49685354I49841433I49644271I48824267I48137496I48173972
1180I48507822I48201361I46871398I45286744I44973243I47034068I50928734
1173I54394905I55205118I53146341I49924239I47578199I47301750I48854343
1166I50645950I51290742I51201408I51640590I52671259I53429446I53860309
1159I54575301I55570389I56538856I57591346I58576964I58753136I58033025
1152I57274454I56860612I56416118I55991846I56175185I57055534I58148916
1145I59181440I60139348I60855300I61176672I61101864I60285828I58156019
1138I55097418I52813963I52671835I53959690I54552967I53080429I49550457
1131I44260555I37927186I32545007I30111488I30576140I32233682I33966159
1124I36120989I39082961I41908691I42811246I40942912I37349011I33679215
1117I30184248I25459211I18395556I10132420I03631006I01349278I03566117
1110I08834389I15391157I21719087I26722365I30327976I33363219I36431610
1103I39086352I40294153I39635795I37731880I35612886I34118590I33724842
1096I34418141I35651986I36763669I37608054I38550988I39914291I41575097
1089I43079696I44123803I44760659I45159014I45320148I45221215I45070768
1082I45070128I45142824I45165414I45160102I45090670I44835083I44433144
1075I44037412I43669070I43269691I42789552I42067202I41019575I39987563
1068I39411692I39256381I39113357I38800112I38606022I38893478I39648785
1061I40512496I41215265I41845018I42507152I42784753I41942480I39946992
1054I37481604I34914597I32315145I30020874I28501045I27825857I27644885
1047I27602586I27607705I27759176I28016811I27953075I26933157I24415616
1040I19907322I13380183I06307889I00587828H96650414H94067728H92517054
1033H91907586H92368463H94229694H97813547I02872691I08239000I12981636
1026I17235494I21127857I24217302I26349735I27999149I29668210I31463976
1019I33113903I34278572I34900902I35237249I35538975I35760518I35720970
1012I35457576I35212291I35115854I35027352I34746552I34267501I33663857
1005I32933891I32151515I31578715I31444138I31667921I32135645I32942914
998I34107135I35305977I36017961I35822271I34518417I32334534I29997965
991I28296076I27803715I28887114I31206021I33501059I35048918I36157337
984I37112110I37858458I38256877I38063107I37004858I35100496I32553070
977I29733419I27366388I26150781I26462298I28336903I31088722I33606968
970I35421548I36651106I37451720I37866521I37799457I37125804I35950320
963I34358051I31922037I28245586I24363014I21466571I19306941I17344410
956I15445231I13797480I12710370I12367753I12847251I14518487I17986322
949I22842928I27252993I30332391I32459576I34016202I35251775I36430075
942I37687853I38779187I39293177I39279291I39276539I39756805I40388478
935I40495090I40008169I39383279I39023255I38978460I39100879I39195908
928I39239103I39525471I40380031I41433481I42116092I42515023I42861480
921I43299255I43885365I44422841I44599653I44388733I43960813I43476131
914I43069585I42870311I43039444I43720520I44771666I45773345I46489041
907I46950429I47226238I47079503I45632049I42808942I39687437I36144091
900I31653523I26991710I23718350I21745132I20202969I18737469I17604989
893I17684468I20361671I25659444I31367475I36474358I41401228I46300326
886I50592068I53577077I54963161I54622912I52813899I50433622I48178067
879I45595893I39937201I27637398I08980741H88665902H74683984H74331704
872H86927985I04451522I20203993I32484662I42036933I49751651I56297156
865I62111799I67325421I71864495I75636296I78723437I81478392I84363572
858I87676352I91411228I95233967I98303254I99076608I95946783I88429675
851I77669732I67586320I64561763I70019263I79107714I83358885I69943943
844I36798673I03450482H88766755H95134744I12564723I33652211I62756270
837A000103308A027260579A042707100A052666686A054323652A040055174A004421799
830I48681563H78527969H00748095G28586663F81210991F69746038F87727123
823G11559327G27586135G38846118G50318622G63504149G76859130G89938621
816H03971733H19237027H33961005H46753361H58907068H71788502H83695452
809H93386844I02535129I12029487I20550322I26789301I30037512I29761959
802I26913191I26175034I32068708I40353410I46926688I51242491I51906417
795I44219600I20933191H82487524H41577814H07231207G78521919G51978020
788G28197906G11591643G04653286G07153869G18043910G35165508G54592830
781G72423788G86904658G97827335H05434161H10079527H11023741H06907851
774G98352908G87846184G78927569G74350419G72294138G68522082G61914568
767G55276081G55450206G66658099G81126555G92732547H02098855H10411010
760H17686033H23485446H27940306H32247854H37762243H44536074H51253720
753H56935386H61948711H66905146H71373316H74929013H78054806H81314600
746H84616629H87388606H89495185H91401659H93479506H95699097H98087052
739I00707942I02519771I01048896H93609091H78294843H56449168H34839435
732H21792260H20223540H26777044H36006856H43615921H48032385H49918254
725H50275781H49216700H46009444H40681467H35705706H34409467H37762947
718H44813035H54370298H64918873H74625751H82334645H87358465H88947535
711H87278410H84341268H82737096H83487796H84281563H79890696H66661333
704H46660507H27440906H16836145H16442653H22334727H29967918H36501648
697H41330290H45495902H50275141H56252390H63087207H69921831H76177129
690H81823599H86847994H90831931H93226094H93830634H93000008H91571112
683H90428264H89569545H87563690H82649746H74650516H66019869H60732591
676H61135426H66039067H72445772H78314809H83182934H87298440H91047139
669H94731397H98348591I01589379I04157923I06095753I07813128I09767021
662I12094887I14668294I17413458I20345289I23235716I25476937I26617544
655I27053847I27856829I29806882I32708700I35519521I37044022I36775508
648I35338613I34104128I34233329I35842941I37693933I37522112I33397327
641I25612409I16229015I05305698H89935264H70619033H56263333H57402341
634H74851262H99446516I22121537I40027815I54369116I66838052I78506822
627I90022712A001766866A013611807A023408339A022942472I96198211I30825328
620H38317316G55437215G15506339G21278939G51051404G83755507H11095861
613H32640066H49367339H62126739H71740827H79007787H84752358H89578056
606H93468691H95974330H97107130H97944348H99954683I03818121I09311584
599I16028398I23573278I31234946I37998282I42856105I44998008I44172053
592I41381903I38936417I39206275I43305271I50973913I61106472I72150863
585I82693487I92186757A000997224A009730835A018596080A027269282A035245282
578A042291083A048512592A054107548A059200992A063817689A067864851A070894591
571A071325710A065844854A050765715A025722895I96854649I75395491I71132866
564I85889544A012727875A040778485A061447140A071897870A073621261A067787292
557A050083936A009995253I35425579H26305673G06837617F16872872E83264358
550F01055448F44637498F91830790G34207663G71087362H01643611H23396240
543H34931904H38391420H39017654H42145686H50404023H60722480H59542133
536H25506979G50731632F62870074F12270508F28850727F99200331G87796973
529H68716591I33930771I84519714A023211369A051486786A068733233A073621261
522A066647388A051125355A033303676A019745455A013632861A012070796A005572134
515I80842047I27393649H44122552G40613408F33463009E40795591D75814600
508D41358373D30470124D33451133D44190823D60275993D79870720E00571116
501E20432757E38630778E55032712E69536747E81959928E92640201F02761240
494F13402541F24351712F34377978F42506537F48715312F53733116F58518307
487F63709852F69222833F74326580F78344689F81403289F84320913F87789836
480F91973110F96743006G01841314G06880044G11432557G15020826G17179688
473G17951825G18217331G19203652G21650673G25370640G29549370G33656493
466G38006789G43168833G49085673G55133761G60801093G66033209G71025737
459G75817775G80184132G83741045G85581286G84150727G79053123G73205588
452G71271533G75051205G81749333G87281319G89833481G89809419G88195969
445G86280536G85898435G88468706G93701206G99818983H05137234H09223687
438H12660357H16010509H18918279H19883418H17321338H11618938H05748622
431H02881872H03780011H07275298H12240885H17751114H22184856H23709741
424H21388721H14409089G99432659G69602729G18932579F49839986E75096763
417E09741190D60893108D26317630D01342035C84775767C78625290C84674243
410D02381534D28936856D60402027D93197384E25177633E55399327E82874833
403F06022250F23840793F37458528F49768314F63105120F77540939F91517417
396G03541859G12978239G19660881G23035158G21472261G12489078F94107718
389F66474662F32730803E98834961E72342704E59958367E64355185E82573043
382F08164474F35345165F61018698F83867012G03248772G19131020G31983657
375G42402263G51000722G58369942G64880251G70617271G75589128G80004377
368G84231934G88373933G92167811G95452946G98452417H01711955H05951223
361H11533508H17934197H23879514H27704748H28240880H26622758H26291019
354H29674511H34836427H33751301H13331066G65510836G02414882F53869101
347F41284786F59195735F87105369G11251201G29666669G44486253G57048746
340G67908583G77326661G85448693G92469537G98518713H03557380H07499593
333H10465980H12933927H15415568H18028651H20651012H23314393H26171800
326H29211075H32180149H34869383H37381549H39908562H42400506H44744307
319H46975736H49089163H51026417H52936987H55088105H57564371H60234855
312H62922489H65575247H68236964H70826370H73192632H75400320H77584203
305H79537839H80756135H80949457H80536831H80613879H82166280H84420043
298H82693389H69582157H43892050H19246114H15852383H39703465H76310106
291I07497964I27240003I39308535I47947501I54984023I61130853I66357018
284I69623915I68294720I56175249I22025356H54266437G53454974F40039230
277E42162349D72274485D20212844C70789658C23212856B90837484B85947857
270C08698038C49221360C96123005D41769655D82556627E17503358E47086084
263E72310644E94183068F13508769F30724308F45931496F59161179F70560987
256F80497855F89584386F98469213G07491559G16460344G24821581G32268489
249G38980631G44935739G49635883G53256404G57326027G63213686G70525441
242G77850570G84390316G90219421G95535688H00346092H04704963H08664070
235H12001039H14417344H15883867H16341736H15467914H13601436H12638600
228H14700704H19371284H23116975H22245329H16453723H09497513H06431937
221H09849089H18402817H28589513H37531740H44195696H48796651H51955337
214H54397814H56774252H59410948H62330364H65701569H70054040H75059430
207H79192214H82108111H84407628H86393326H88092591H89378718H88790432
200H83674335H74431405H67194201H68376341H77275437H87462005H94463523
193H98881587I02948586I07535271I12570034I16717920I14785593H99674970
186H72340440H47358733H41182339H55432066H77789236H96615346I09060988
179I17743725I25545601I33755815I42230255I50336417I57771166I64642970
172I71544787I79473241I88908661I99393628A010549239A022886030A037212357
165A053344306A068280740A073621261A055096557I98246429I02313074G88063568
158F87471728F23468099E99605499F05108369F26024292F52464587F79506606
151G04936390G27301431G45809113G60885564G73265677G82720808G89100123
144G94146468H00342701H08017935H15536962H22066149H28384544H35321173
137H42591140H49180352H54375609H58378231H61797815H64548547H65880173
130H65753467H65596237H67257554H71288590H76488006H81276076H85196724
123H88563642H91229326H92748388H93263722H93371550H93597253H94392491
116H96065903H98511837I01244138I03601569I05104312I06066316I07483693
109I09817639I11845059I10453344I01781230H84402573H63570224H50633117
102H53067852H66292095H80597176H91698394I00565366I08180127I14046732
95I17806886I20022317I21683251I23548129I25568382I27013212I27401009
88I26813938I25687537I25022204I26126976I28999229I31159562I29470600
81I23388019I15920186I11516968I12876943I19534436I28994174I38285418
74I45141224I49214879I52042657I55387242I59729026I64260357I68118484
67I71080519I73370502I75355815I77254930I78870109I79962466I81100066
60I83371299I86896215I89445497I82529154I47955436H71278607G67802803
53F84585588F65507474G11308155G83796143H46026595H85988507I09521032
46I25594363I39584920I51833913I60324415I65102247I68440816I72219656
39I77086117I83223988I90541694I98251676A004944301A009055967A009375931
32A005918399I96626387I70368599I07034400G91997334F42738767E13250364
25D56847738D85377622E66006200F53960483G23878327G75200884H19051320
18H61379302H95175251I15301375I27600218I38759733I51915184I67154688
11I81765784I92724553A000160198A007199471A015785195A025001696A033928310
4A044136188A058644894A073621261A073621261
$$ === CHEMSPECTRA INTEGRALS AND MULTIPLETS ===
##$OBSERVEDINTEGRALS= (X Y Z)
##$OBSERVEDMULTIPLETS=
##$OBSERVEDMULTIPLETSPEAKS=
$$ === CHEMSPECTRA SIMULATION ===
##$CSSIMULATIONPEAKS=
##END=


$$ === CHEMSPECTRA PEAK TABLE EDIT ===
##TITLE=JPK-012
##JCAMP-DX=5.00
##DATA TYPE=INFRAREDPEAKTABLE
##DATA CLASS=PEAKTABLE
##$CSCATEGORY=EDIT_PEAK
##$CSTHRESHOLD=0.93
##MAXX=3997.453
##MAXY=1.0001122967701126
##MINX=373.96442
##MINY=0.2663396003535961
##$CSSOLVENTNAME=- - -
##$CSSOLVENTVALUE=0
##$CSSOLVENTX=0
##NPOINTS=40
##PEAKTABLE= (XY..XY)
407.96118541047645, 0.425520391157764
446.20754649726314, 0.6198717364665938
481.62084379987255, 0.8564793482456817
518.4506729945265, 0.7923027883692576
593.5268632759967, 0.5584888470539527
633.1897562548866, 0.7835000770569271
654.4377346364622, 0.8144691601739598
687.0179681548084, 0.7511326088132089
696.9336913995307, 0.7569136633043759
756.4280308678653, 0.2663396003535961
789.0082643862388, 0.7599070680769222
864.084454667709, 0.5973100669751877
875.4167098045345, 0.769629897160676
917.9126665676308, 0.5215604314930476
956.1590276544171, 0.3526618785688764
983.0731336043782, 0.7478259818524434
1001.4880482017197, 0.7320071473604945
1012.8203033385453, 0.7183832535710363
1090.7295574042219, 0.4009515650621678
1127.5593865989053, 0.5702853804181972
1153.0569606567628, 0.5432682645011633
1174.3049233000954, 0.9085098520589355
1247.9645974276777, 0.6664420372967672
1273.4621714855352, 0.7975469244683242
1334.3730428459953, 0.8146732461104145
1365.5367444722438, 0.7604568615866554
1392.4508504222044, 0.7771916401249237
1408.03270123534, 0.7639784824273463
1459.0278493510555, 0.70348465514176
1485.9419553010162, 0.6563332089636477
1541.1866990930412, 0.623819650095592
1566.6842596001256, 0.841498316649891
1610.596748500129, 0.8147044191146053
1643.1769822001315, 0.858538450542585
1719.6697048001374, 0.8518073571139069
1838.6583844001466, 0.8327589647386924
1950.5644045001552, 0.8477220551845271
3015.796393300082, 0.8797364845917907
3044.1270313000796, 0.8203641188925233
3063.958477900078, 0.8383201968315366
##END=


$$ === CHEMSPECTRA PEAK TABLE AUTO ===
##TITLE=JPK-012
##JCAMP-DX=5.00
##DATA TYPE=INFRAREDPEAKTABLE
##DATA CLASS=PEAKTABLE
##$CSCATEGORY=AUTO_PEAK
##$CSTHRESHOLD=0.93
##MAXX=3997.453
##MAXY=1.0001122967701126
##MINX=373.96442
##MINY=0.2663396003535961
##NPOINTS=134
##PEAKTABLE= (XY..XY)
3126.2858863565284, 0.9267264026718156
3106.4544398670837, 0.9088629495753013
3080.9568658092257, 0.9127120983939618
3062.541951211884, 0.8360630880232517
3046.960100398749, 0.8083919891543669
3011.546803096169, 0.8699900522123754
2971.883910117279, 0.8964890254460001
2959.13512308835, 0.8956874029064449
2953.4689955199374, 0.8956120029464156
2920.888762001564, 0.8881782306225348
2899.6407836200156, 0.8987235443513734
2889.725060375293, 0.9010208265444961
2872.7266776700544, 0.899045886142916
2850.0621673964033, 0.8934970513455716
2816.0654019859267, 0.8972353947949969
2797.6504873885847, 0.9005321281364689
2787.7347641438623, 0.8990950599084011
2765.0702538702108, 0.8957608953036503
2735.3230841360437, 0.8968262095293373
2723.990828999218, 0.8995773212233257
2718.3247014308054, 0.8995559226157518
2695.660191157154, 0.8926583542793397
2680.0783403440187, 0.8970603954658947
2672.9956808835027, 0.8966215861594112
2663.07995763878, 0.8952940118511373
2650.331170609851, 0.8961558949336631
2637.5823835809224, 0.8964803231220442
2626.250128444097, 0.8966318979894996
2609.2517457388585, 0.891460121672212
2575.2549803283814, 0.8878685245718446
2552.59047005473, 0.8948302281882129
2539.841683025801, 0.8950710905946531
2521.4267684284596, 0.8944827332062144
2514.3441089679436, 0.894029678652746
2505.8449176153244, 0.8924312006178403
2493.0961305863957, 0.8957994591823558
2480.347343557467, 0.8944351093355236
2471.8481522048473, 0.893651903905203
2453.433237607506, 0.8876659289188459
2430.7687273338543, 0.8886610284395035
2419.4364721970287, 0.8862084764073815
2409.5207489523063, 0.8842729344432423
2401.021557599687, 0.8875402225779051
2393.938898139171, 0.8874728692171112
2384.023174894449, 0.8891645682078982
2372.6909197576233, 0.8845475331414177
2364.1917284050037, 0.8847730772967846
2348.6098775918686, 0.8850131647558276
2334.444558670836, 0.8817938581598851
2321.6957716419074, 0.8798128383332317
2301.8643251524627, 0.884457768711727
2291.9486019077403, 0.8819519893431197
2284.8659424472244, 0.88266229755819
2265.0344959577797, 0.8839494004249348
2259.3683683893664, 0.8853424801425172
2246.6195813604377, 0.8878281127416536
2236.7038581157153, 0.885496915422781
2229.621198655199, 0.8830697550264679
2221.1220073025797, 0.8852180852510178
2215.455879734167, 0.8841288696729779
2205.5401564894446, 0.8854923262811637
2185.70871, 0.8850460664888274
2177.2095186473807, 0.8872516766894358
2164.460731618452, 0.8929701457954411
2153.1284764816264, 0.8979941623709206
2136.1300937763876, 0.8874083175892146
2112.049051610633, 0.8828080910572633
2099.300264581704, 0.883656741354127
2089.384541336982, 0.8845931302266083
2073.8026905238466, 0.8841406717865223
2061.053903494918, 0.8866566437625415
2052.5547121422987, 0.8845627321698145
2046.8885845738857, 0.8831210151887913
2038.3893932212663, 0.8801737440034798
2027.0571380844408, 0.8823425786655299
2021.391010516028, 0.8859748260414412
2000.1430321344799, 0.8904367701029373
1981.7281175371381, 0.8873444216860386
1970.3958624003126, 0.866331101751214
1947.7313521266615, 0.8395411981755904
1926.483373745113, 0.8696966778055086
1905.2353953635652, 0.8802639853238764
1879.7378213057073, 0.8742431414303574
1855.656779139953, 0.8639942422866357
1835.8253326505082, 0.8307469498104357
1791.9128439953088, 0.867572368155988
1774.91446129007, 0.8641815792998994
1753.666482908522, 0.8626419916786119
1722.5027812822514, 0.8498041050523714
1701.2548029007035, 0.8748676791753992
1691.339079655981, 0.8745900402989735
1665.8415055981231, 0.8782150160230466
1638.9273996481625, 0.8546822089061011
1609.180229913995, 0.8143762959546805
1575.1834645035183, 0.898419023555683
1565.267741258796, 0.8278214945120658
1541.1866990930412, 0.623819650095592
1507.1899336825645, 0.8626645815815234
1485.9419553010162, 0.6563332089636477
1459.0278493510555, 0.70348465514176
1408.03270123534, 0.7639784824273463
1392.4508504222044, 0.7771916401249237
1376.8689996090693, 0.8222053063539273
1365.5367444722438, 0.7604568615866554
1331.5399790617666, 0.8017097127545715
1289.0440222986708, 0.8700499550873164
1273.4621714855352, 0.7975469244683242
1247.9645974276777, 0.6664420372967672
1209.718236340891, 0.8745508803068857
1172.8884071462076, 0.9045395273610405
1153.0569606567628, 0.5432682645011633
1127.5593865989053, 0.5702853804181972
1090.7295574042219, 0.4009515650621678
1012.8203033385453, 0.7183832535710363
1001.4880482017197, 0.7320071473604945
983.0731336043782, 0.7478259818524434
956.1590276544171, 0.3526618785688764
917.9126665676308, 0.5215604314930476
875.4167098045345, 0.769629897160676
864.084454667709, 0.5973100669751877
800.3405195230648, 0.8201559197737299
789.0082643862388, 0.7599070680769222
756.4280308678653, 0.2663396003535961
696.9336913995307, 0.7569136633043759
687.0179681548084, 0.7511326088132089
653.0212027443313, 0.8077282318058991
633.1897562548866, 0.7835000770569271
593.5268632759967, 0.5584888470539527
555.28050218921, 0.8062398447355968
518.4506729945265, 0.7923027883692576
494.3696308287722, 0.8615908044086605
484.45390758404983, 0.8490116607960508
446.20754649726314, 0.6198717364665938
407.96118541047645, 0.425520391157764
##END=

##END=

