##TITLE=JB 202.1
##JCAMP-DX=4.24
##DATA TYPE=INFRARED SPECTRUM
##DATE=25/1/2018
##SAMPLING PROCEDURE=Diamant-ATR
##ORIGIN=Rieke
##XUNITS=1/CM
##YUNITS=TRANSMITTANCE
##RESOLUTION=4
##FIRSTX=3997.453
##LASTX=373.96442
##DELTAX=-1.4165319
##MAXY=0.85669172
##MINY=0.26876548
##XFACTOR=1
##YFACTOR=7.9785634e-010
##NPOINTS=2559
##FIRSTY=0.7259838
##XYDATA=(X++(Y..Y))
3997+909917945+910069971+910239853+910033067+909555247+909287277+909482857
3988+910066535+910799475+911311809+911306804+910868429+910361623+910083792
3978+910136235+910423181+910652902+910551526+910175008+909914658+910142287
3968+910813819+911421328+911464807+910951203+910301186+909837785+909554351
3958+909295494+908939744+908483216+908166762+908454155+909612024+911148502
3948+911937845+911389204+910208999+909592002+909974049+910802986+911394508
3938+911443590+910882399+909975618+909408151+909666036+910304623+910484365
3928+910183748+910127271+910736722+911501861+911565286+910820542+910037175
3918+910048680+910842282+911575073+911700280+911496706+911388831+911279760
3908+910774748+909863559+909148324+909344800+910418624+911589491+912343200
3898+912680796+912565301+911926490+911126538+910918108+911578136+912377116
3888+912843805+913430844+914270315+914512437+913929357+913616190+914167819
3878+914625841+914172451+913225552+912512035+912455782+913295103+914737302
3869+915543081+915035529+914047243+913545966+913555977+913592433+913446458
3859+912953025+911887194+910607033+910536958+912629622+914735061+915135560
3849+914600740+913979261+913532370+913295626+913255285+913345082+913558591
3839+913896337+914086165+913881919+913582273+913609914+913929208+914200241
3829+914347188+914488681+914413228+913889688+913484259+914085792+915090512
3819+914868636+913793467+913474024+914096549+914435864+913980456+913161006
3809+912634030+912952278+913763659+913867202+913106396+912679377+913257153
3799+913953562+914218469+914471050+914822467+914884249+914586396+914248576
3789+914050829+913931225+913911876+914102376+914378490+914564358+914880813
3779+915588129+916286481+916352147+915785652+915001836+914402022+914260230
3769+914473516+914597976+914534027+914508553+914455885+914281820+914397540
3759+915194428+916136695+916284239+915523434+914468959+914083027+915182774
3750+916889433+917449429+917048257+917063124+917854186+918100491+917211191
3740+915958820+915243062+915732461+917460784+919215478+919474633+918114685
3730+916236801+915017823+914972850+915630562+916050335+916026578+916105841
3720+916511794+916791045+916425658+915499602+914876629+915678747+917869276
3710+919581089+919558229+918372795+916963616+916082608+916249725+917205887
3700+917983278+918120811+917821016+917216122+916418635+915921542+916415498
3690+917978571+919359362+919290259+918338729+917657410+917500229+917294563
3680+916395402+914934153+914119708+915212881+917109965+917563953+917090093
3670+917513750+918940859+919784887+919574440+918998383+918563967+918307053
3660+918020033+917658680+917568958+917969382+918315346+918081142+917588905
3650+917561338+918224503+918864509+918929578+918689249+918635834+919037304
3640+919695912+920047479+919696585+918766719+917650911+916621462+915973911
3631+916423641+918374737+920168353+920061673+918996141+918339252+918502335
3621+919465818+920929383+921841767+921403990+920293859+919689786+919868633
3611+920239697+920361468+920128908+919403812+918257897+917230914+916951289
3601+917545799+918438909+918970144+919067560+919035885+918951019+918649954
3591+918290917+918414705+919233034+920022975+920046059+919606489+919261198
3581+919176855+919381923+919878419+920371105+920348394+919605294+918462442
3571+917505682+917319814+918262603+919864972+920815382+920528959+919651836
3561+918956697+918738107+918871308+919104913+919306171+919505412+919692326
3551+919633010+919162661+918610434+918554704+919075255+919527152+919355701
3541+918716741+918139861+918004195+918317587+918739377+918858757+918587425
3531+918200523+917958251+917827217+917661967+917476248+917383613+917514348
3521+918000684+918701426+919057699+918665044+917890941+917513825+917852916
3512+918592654+919252308+919561890+919535519+919348978+919145777+918954754
3502+918744681+918455868+918002701+917454733+917180786+917501125+918133511
3492+918418664+918202540+918047301+918416423+919099759+919655646+919936017
3482+919948194+919650865+919120602+918658993+918591011+918987998+919540001
3472+919768078+919433395+918678193+917823556+917222547+917203795+917830130
3462+918712632+919345018+919569136+919485914+919172896+918797872+918675055
3452+918859803+919008991+918917775+918828875+918951094+919051050+918856142
3442+918511822+918362336+918485899+918634938+918539314+918172956+917785606
3432+917681540+917912157+918248334+918472303+918497703+918209711+917614305
3422+917222397+917707015+918953634+920023946+920255161+919818355+919177901
3412+918601619+918291216+918482314+919113206+919670811+919698004+919337174
3403+919061659+919007945+918974925+918954231+919180740+919701441+920247018
3393+920496761+920327029+919916444+919604099+919511687+919431304+919195233
3383+918890208+918609463+918360767+918288900+918582195+919102000+919463950
3373+919514003+919429436+919349202+919183429+918889909+918753646+919136066
3363+919941770+920623686+920827409+920731188+920635788+920573334+920489215
3353+920475395+920605831+920732308+920647891+920385897+920228940+920396281
3343+920815904+921242924+921524939+921697286+921867242+922052737+922167635
3333+922184369+922199310+922250409+922200953+921955470+921687649+921737403
3323+922329522+923417690+924714063+925837865+926517540+926691979+926396815
3313+925621890+924367875+922778057+921101431+919613736+918604458+918156371
3303+917867184+917151352+915905106+914512587+913233994+912062604+911171511
3293+911033081+911908859+913432413+914887462+915882620+916590384+917349547
3284+918295847+919398433+920525597+921396744+921756303+921644917+921325698
3274+920999831+920784528+920845862+921282667+921899141+922310771+922348348
3264+922225009+922288584+922706638+923313027+923684316+923509354+922936434
3254+922464217+922515690+923134704+923950269+924471119+924568237+924554416
3244+924706592+924959621+925140335+925205778+925219524+925291540+925488913
3234+925717663+925819786+925801259+925809925+925910330+926033968+926175387
3224+926444254+926803813+926922895+926537262+925860725+925368936+925268307
3214+925396054+925514986+925498550+925315073+925023495+924800274+924846815
3204+925191584+925620695+925884556+925948878+925944993+925945516+925953435
3194+926060339+926403464+926940749+927447630+927762739+927892728+927921789
3184+927990443+928258414+928693053+929032293+929114544+929065985+929064342
3174+929124704+929168930+929098557+928839477+928487014+928293077+928364496
3165+928542446+928665785+928710983+928638667+928401700+928092342+927785674
3155+927413489+927075967+927088966+927414908+927600627+927567533+927785450
3145+928358370+928642253+928101979+927072904+926409441+926589557+927290747
3135+927836698+927951746+927880401+927854553+927844169+927832440+927903859
3125+927958843+927708279+927124526+926635426+926648649+927107194+927709325
3115+928308467+928899989+929474254+930018113+930468366+930686134+930682025
3105+930674331+930761737+930825685+930870060+931101724+931551080+931869477
3095+931619062+930727521+929613655+928765891+928181765+927365976+925895912
3085+923762981+921100235+917836704+913843147+909349208+905036431+901616914
3075+899365649+898122392+897621563+897646963+898002564+898661769+899859232
3065+901622592+903267394+903780698+902531764+899213398+893635625+886424481
3055+879611892+875608996+875460331+878385369+882760376+887265670+891392877
3046+895203405+898740285+901826689+904404643+906704242+908865038+910653126
3036+911828177+912585172+913355541+914326942+915407266+916491399+917514423
3026+918367565+918960955+919297057+919412777+919292351+918863015+918101089
3016+917188555+916464878+916128029+916067667+916027848+915762717+914966874
3006+913256929+910305893+905792157+899214594+890322415+880158665+871222858
2996+865925233+864882412+866939366+870555809+874800603+879224766+883293926
2986+886222849+887371528+886591224+884041136+880012242+875287387+871352249
2976+869697287+870830129+874106435+878402851+882797879+886727862+889825321
2966+891890494+893006975+893423460+893223248+892254760+890380835+887630011
2956+884082000+879768551+874813676+869609881+864701324+860350000+856287115
2946+852091477+847910631+844699469+843593522+844934195+847748594+850059474
2936+849909689+846543736+840983070+835587953+832877321+834207163+839090245
2927+845755961+852500642+858477494+863413617+867168415+869763925+871459303
2917+872626061+873685915+875072607+877026318+879381275+881634781+883299380
2907+884250238+884738142+885065653+885351254+885598606+885858658+886286200
2897+887092352+888353464+889789313+890883158+891370689+891474979+891552823
2887+891720537+891980514+892503008+893539703+895095754+896794942+898102520
2877+898733861+898883347+899021479+899467996+900172026+900826226+901155007
2867+901137750+900918264+900506186+899737984+898573318+897212100+895840348
2857+894444766+892960209+891434638+889937455+888419579+886813774+885221117
2847+883843239+882662437+881238242+878910627+875375689+871204256+867710556
2837+866164665+867059494+869989238+874024034+878208914+881922250+884942463
2827+887305787+889209296+890964588+892831864+894827111+896758336+898484642
2817+900046221+901467129+902522650+902889456+902531540+901804800+901179287
2808+900962191+901249585+901996122+903068601+904285337+905511412+906737711
2798+907968567+909040448+909726025+910033067+910243289+910625485+911203635
2788+911791496+912208580+912448983+912627904+912805256+912960421+913074422
2778+913156823+913280386+913613426+914230945+914884772+915182849+915041879
2768+914774282+914716758+914951260+915386497+915919525+916483256+917066635
2758+917674219+918193724+918422773+918368088+918357181+918703369+919375274
2748+920098055+920683003+921192871+921801725+922496939+923014800+923173177
2738+923135600+923187446+923396772+923658542+923926587+924216895+924464918
2728+924548440+924426893+924172818+923907612+923758573+923782479+923883332
2718+923913962+923863012+923828349+923861145+923959009+924117461+924303703
2708+924467384+924575035+924578322+924475078+924424876+924588258+924878939
2698+925098276+925220345+925321647+925388210+925390152+925400910+925505274
2689+925686062+925859754+925942304+925890309+925741121+925618678+925675305
2679+926011183+926574914+927100023+927238528+926870899+926224842+925619798
2669+925200474+924983004+925011766+925336663+925893521+926482578+926899811
2659+927130652+927372625+927780744+928243771+928516149+928513908+928391839
2649+928355756+928456982+928560375+928481635+928140976+927628866+927153064
2639+926869405+926761082+926774977+926971827+927328324+927551994+927432838
2629+927292241+927713060+928802497+929996075+930656401+930663424+930330085
2619+929953642+929657433+929510934+929560165+929788318+930158262+930608515
2609+930993848+931214679+931392703+931686522+931940821+931817556+931302981
2599+930766294+930456861+930289819+930183288+930223405+930408826+930564289
2589+930561599+930406808+930200396+930191132+930651396+931541443+932497605
2580+933248475+933837681+934381839+934794366+934874077+934647643+934467901
2570+934637857+935084076+935578405+936063994+936509914+936723424+936624139
2560+936444322+936388143+936374696+936333981+936450747+936878215+937409972
2550+937639991+937417144+937087690+937203335+937906617+938735854+939196715
2540+939330140+939477086+939710468+939815056+939702549+939564866+939611931
2530+939766871+939679390+939119917+938364640+937987673+938222399+938738244
2520+939104154+939249457+939368837+939551195+939641738+939492625+939247216
2510+939176768+939253118+939193502+938976556+938956236+939365999+940009217
2500+940527303+940812904+941128238+941830325+942905643+943852018+944190362
2490+943972967+943605862+943317721+943050573+942797767+942772218+943145972
2480+943778059+944325878+944579505+944575621+944407980+944067545+943574784
2470+943176153+943191692+943597943+943984397+944062839+943990822+944027503
2461+944126712+944083458+943897664+943791432+943952050+944348216+944757231
2451+944972085+945023632+945143909+945450353+945743574+945730351+945403213
2441+945092437+945168562+945734833+946528360+947092615+947176285+946992434
2431+946955454+947177257+947338397+947039723+946212653+945189181+944380040
2421+943925678+943729501+943691998+943735253+943763268+943794943+943973939
2411+944331332+944733624+945106780+945503245+945962462+946448126+946864238
2401+947078794+947028816+946814484+946646321+946730141+947151184+947748832
2391+948183098+948260493+948163151+948251529+948611836+948864192+948569477
2381+947861713+947422068+947675172+948288807+948746456+949148748+950040588
2371+951571612+953179808+954055885+953777904+952671957+951671942+951551964
2361+952154543+952594935+952212963+951077507+949764922+948882271+948492754
2351+947985276+946903758+945611718+944944444+945369297+946362887+946951346
2342+946968379+946929009+947015892+946934761+946422427+945520278+944590935
2332+944205154+944626047+945258134+945124485+944056265+942976240+942913935
2322+943939648+945218167+945994362+946224456+946344584+946737836+947427297
2312+948132597+948566863+948629391+948349842+947847519+947429090+947509773
2302+948210739+949138065+949758199+949910973+949794207+949580324+949308320
2292+949064479+948978567+948994629+948928290+948888995+949346644+950445494
2282+951504601+951667161+950928692+950072039+949760365+950186190+951353769
2272+953054302+954657940+955479557+955421436+955047756+955088247+955896267
2262+957194582+958350359+959022414+959379135+959609603+959590179+959238986
2252+958835425+958719033+958854549+958842148+958312707+957382094+956716763
2242+956902108+957705048+958366794+958678841+959174366+960119770+961114854
2232+961814102+962225657+962327631+962215497+962344738+962843774+963146558
2223+963052802+963300004+964293444+965054399+964274020+962009831+959724725
2213+958746450+959027195+959479091+959301814+958764753+958688403+959387427
2203+960383108+961034022+961185451+961346218+962326435+964244437+965946986
2193+966241776+965617608+965654288+966978153+968895258+970642780+971868183
2183+972227145+971639284+970951241+971453191+973421021+975537442+976141290
2173+974895718+972820908+970982319+969722179+969084563+969434038+971193588
2163+974135360+977640117+981485757+985273948+987584231+987308640+984870984
2153+981435480+978280720+976607829+976693144+977568474+978211991+978450154
2143+978350122+977670447+976277181+974519199+973014471+972253217+972323217
2133+972922732+973612941+973986247+973772588+973088356+972446556+972213250
2123+972181425+971960968+971536413+971017132+970155996+968712004+967143701
2113+966352341+966710108+967694957+968481088+968645665+968378218+968165007
2104+968300822+968690862+969062151+969215597+969059835+968617501+968113535
2094+967862373+967978093+968351847+968831907+969223292+969369267+969436727
2084+969686245+969799425+969127668+967799097+966796244+966709809+967104033
2074+967260392+967035751+966857951+967120841+967705042+968171731+968391217
2064+968860445+970337382+973076701+976325964+978709682+979303445+978299098
2054+976696505+975595787+975578157+976343893+977017442+977204581+977377749
2044+977836519+978216175+978531807+979643507+982003021+984736513+986288156
2034+985456305+982385366+979182048+978365960+980020772+981784805+982062935
2024+981706289+982108058+983228573+984179356+984688477+985191622+985984850
2014+987012431+988148560+989144988+989952485+991175945+992941920+993703697
2004+992134796+989349608+987343901+986527963+986114465+985761927+985832973
1994+986609691+987632864+987815371+986678794+985124760+984247264+984117200
1985+984147755+983856925+983130783+982446924+982737456+984360817+986407686
1975+987537614+987193742+986021307+985495227+986595945+988448728+988984818
1965+987423463+985178175+983948290+983849902+983799028+983293866+982971509
1955+983400695+984121309+984171288+983096567+981183496+979083511+977268081
1945+975416866+972565488+968599796+965127312+963701399+964165547+965557619
1935+967542258+970186924+972973757+974997168+975927183+976184471+976377660
1925+976827764+977414878+977917948+978625190+980121327+982267032+984023295
1915+984763631+984977963+985446743+986508688+987935573+989050261+989167176
1905+988189573+986681707+985364118+984665468+984669128+985289337+986430397
1895+987991528+989776179+991581748+993267787+994475111+994711630+994186223
1885+993813813+994058177+994506562+994775354+995049973+995429031+995614452
1875+995562905+995701559+996311608+997219809+998053378+998431241+998129952
1866+997290331+996260136+995275884+994385314+993616440+993078333+992808121
1856+992709285+992716308+992831056+993070115+993496388+994124366+994853870
1846+995772305+997166767+998757407+999702214+999579173+998358627+995983275
1836+992602381+988961435+986216289+985376669+986588773+988736645+990718744
1826+992494431+993999682+994533456+993796183+992487110+991793315+992559724
1816+994542720+996719279+998445510+999821968+1001096452+1002232506+1003075040
1806+1003616957+1004053464+1004616822+1005331011+1006054539+1006697533
1798+1007192535+1007503760+1007869222+1008764872+1010253015+1011505685
1789+1011804285+1011383989+1010928656+1010920214+1011432398+1012423672
1781+1013828892+1015277441+1016289109+1016764688+1017002327+1017414256
1772+1018071818+1018482701+1018426074+1018286225+1018309533+1018455508
1764+1018819028+1019535234+1020400777+1021205884+1022053946+1022878626
1755+1023363169+1023502570+1023680146+1024172533+1024672316+1024638325
1747+1024144070+1023623967+1023270533+1023174162+1023521097+1024138766
1738+1024469863+1024421080+1024475018+1024984961+1025611296+1025850206
1730+1025541595+1024556970+1022781060+1020354460+1017877657+1016222696
1721+1016028236+1017827380+1022119762+1027865549+1032342006+1034538885
1713+1035102617+1034579152+1033484709+1032635825+1033062322+1035210866
1704+1038193428+1041304484+1045243954+1049739910+1051540324+1048747142
1696+1043289721+1038980007+1038350310+1041581568+1047519798+1053997778
1687+1059462297+1064291590+1069131567+1072689216+1073741823+1073052810
1679+1071711015+1070171101+1068422458+1066742843+1065436310+1063722630
1670+1059337612+1049322677+1032067462+1003757479+952104565+862890825+744729561
1660+631314518+546040025+492301133+466474788+468157615+498022080+533778532
1650+557566898+578992201+609415654+647617755+680704663+705219806+725976192
1640+745217466+763074961+781627072+804078836+826990714+843242777+853562662
1630+861664825+868775864+873623535+873991387+867346962+851580264+829224572
1621+807264449+790875225+783770611+788806766+801863654+816119797+830234149
1611+845135453+860359039+874010662+884176876+889845641+890657695+886169584
1601+875693937+858507526+833813387+801440519+763981145+727834354+700254697
1591+684772329+679030278+676179722+669881858+659942674+653150630+657274102
1581+673233691+694905001+716083028+733903244+747413747+757895595+769021856
1571+784305207+802846112+816985117+821567059+819874595+818096667+820513929
1561+829879445+849842752+875177943+890601666+897954677+904127484+910657384
1551+916982740+922583000+926957857+930056886+932627967+935413155+938755800
1541+943371584+949022196+952830781+954214785+955137702+957072737+959940326
1531+962388441+963919242+965331409+967477562+970338876+973432078+976886781
1521+980875932+984664048+987807751+990598468+992822988+993784529+993086999
1511+990667795+986922410+983488101+983897042+989241359+994670616+998220047
1502+1001029963+1003920487+1007137925+1010771998+1014475920+1017573529
1493+1020077226+1022645244+1025675095+1028561435+1030400622+1031202217
1485+1031309719+1030646704+1028726087+1024844215+1018202106+1007989573
1476+992915399+969079707+929937879+877660647+828219926+792005601+769071237
1466+758276745+757195301+757960888+753028351+740286796+720497853+700756348
1456+697694299+714798981+740323253+766521073+789746044+808664738+824268950
1446+836981967+844320261+842732386+831603510+816348995+805822175+805167900
1436+808673702+803487463+787699772+771493653+767348069+781899749+809072408
1426+837385305+859937623+874285804+881213887+884295136+887482093+891976854
1417+894904282+891897516+879431477+857738652+834452945+821260839+824462514
1407+841308415+863255913+880363808+886355975+879909446+863122339+843042640
1397+830258951+831895759+846939304+867892839+888479344+907537513+925709819
1387+941712439+952813226+957920052+957494751+951272265+937436941+913176396
1377+874089626+813531907+729204163+632724669+541987338+467817367+416512433
1367+392345569+393561633+414216680+446670903+479655763+503084494+514877917
1357+518706076+519618572+521395043+524402744+525944003+523343824+516938794
1347+510705849+509582383+515650190+527595603+543485865+562144656+582017569
1337+601164452+618734404+634908997+649971442+664074961+677428731+690488383
1327+703850147+717804104+732117248+746264919+759786179+772549249+784667755
1317+796142371+806877920+816916537+826199652+834394525+841354733+847390902
1307+852936103+858330771+863908619+869991255+876737057+883897700+890512168
1298+894572438+892720328+880937550+857583936+827144085+799949911+786140285
1288+788879529+803348435+821671124+837819496+848618396+852562872+848669644
1278+835427858+810762033+775225441+736958420+711447297+711735886+737055688
1268+773417407+805566083+826156397+835229813+835905155+832558252+830670880
1258+835320730+848408621+866660340+881880414+883662899+863565868+819587873
1248+759106654+696988402+648356224+621303730+615166521+624042974+641095997
1238+660512382+677169128+686133398+684355395+673858532+662044751+656837221
1228+661024566+671560576+683478646+693641424+701598284+708313904+714405654
1218+719027863+719962211+714556411+700709881+677874278+648339191+617844394
1208+593912668+582255247+584047368+596372362+615004670+636723008+659707724
1198+682831692+705025720+724925004+740376668+748153486+745472288+733433269
1188+718580748+709046919+708183019+712422435+715226598+712568261+705596997
1179+699669226+700792505+711519314+729004175+746869215+759431251+764084538
1169+759890842+746538716+727439533+711835245+709135371+720752077+740352986
1159+761339317+781065433+798836791+813178921+821512449+821691071+814736840
1149+806290656+803576139+809979862+823235244+838658668+852687855+862942521
1139+866664374+861348221+847471435+829445403+812657548+799512432+789038504
1129+780490495+776403630+781102487+796350950+819171313+843625421+863496616
1119+872577054+863440437+829302939+771212759+704214787+652389675+633471953
1109+647462143+680106119+715233247+742900311+759196749+762478284+750566714
1099+720538792+671673830+609857951+548645770+503774105+484617847+490145081
1089+512379077+542623833+574767839+605281686+632462525+655930888+676072817
1079+693509120+708829599+722576696+735297931+747385882+758818363+769303722
1069+778708309+787120129+794573769+800985634+806379706+811003558+815081832
1060+818289857+818589652+810194940+783952296+735223523+674868258+628095587
1050+616339255+640470185+683976860+729520618+769144822+802139842+829047594
1040+848238217+855055437+843574322+811267419+762605583+706682325+651508891
1030+602775225+567481764+554183090+566767575+599592414+640755786+679800347
1020+712080431+737747689+758762334+776809731+792456153+805065104+812912968
1010+812937322+800644602+771824302+726406125+671675922+620933038+587173142
1000+576565713+586798379+610007661+636816390+660061681+677757139+692892273
990+708676900+722884784+727871633+718379490+699589590+684797207+683704706
980+695119706+711869984+729213501+746304812+762937203+778347330+791554676
970+800454027+802422903+798240563+793483659+792963407+794077721+787126404
960+762460131+719042132+668879303+631966104+622096285+635394138+654370803
950+664241780+664568021+665488847+675218779+693236817+713898177+732707202
941+748246420+760835126+771216868+779994373+787564330+794270612+800278243
931+805479872+809863022+813695065+817200121+820382670+823192064+825685899
921+828099126+830726984+833687508+836929598+840353224+843784321+847099399
911+850408874+853798359+857038059+859876513+862404713+864895934+867468808
901+870069323+872722581+875627299+878909955+882464466+886137161+889825620
891+893414421+896853885+900175163+903338812+906317415+909228857+911978560
881+913755442+913383929+910777661+907557460+904850638+901338560+896146419
871+892362112+893188137+894175600+882189921+843563116+776439115+699446079
861+644952769+636013525+669040070+721108201+770275423+805359371+820827096
851+810414501+771679372+717610018+676313221+670682930+699675651+743925351
841+785637812+818385182+842958670+861602595+876304957+888569215+899194871
832+908525126+916879198+924688887+932429772+940456855+948663457+956408451
822+963200719+969311669+975308767+981278298+986684621+990290305+989243749
812+977219821+943839094+880712984+794324699+712224837+668774042+679895822
802+732939537+801116445+863978096+914318725+953035625+983220878+1007593557
792+1027415445+1040889417+1041177708+1019681658+978446493+938540124+926689364
782+950211814+990722480+1022212771+1026994328+995577771+927200278+840453853
772+771887802+745913427+745463921+725896332+660424080+563017895+470100382
762+413662287+409267073+450304154+505182649+531423724+505502503+441177361
752+375919777+339532209+336859491+355749609+383369159+413333058+443455558
742+472301071+498480476+521530224+542086361+560931693+578362953+594434825
732+609211333+622372697+632257682+635818468+631248105+621086074+611460543
722+608336974+614915284+630604214+650783123+668333501+676461587+672181233
713+660066313+651394741+655752042+673269849+696530977+718506341+736676779
703+751132761+761156960+763092666+750246748+716921304+666362981+614599614
693+582133102+579797382+603206466+639443650+677140889+711269572+741561505
683+768912263+793865033+816463370+834272007+838948154+816325687+756727567
673+670317319+583677910+521991085+503824457+528348378+566656076+601415166
663+633655580+664183509+689855325+705785779+704514059+679735801+637853533
653+601554567+594594472+622404448+670872832+721724973+763564061+788238403
643+784369753+742890076+671229255+596964370+550182809+541558750+559797282
633+586229829+606844498+613974549+606093292+589441664+575662369+573891127
623+584638928+601917750+619842107+635948381+650064227+662479988+673350531
613+682717243+690707122+697826379+704873395+712270034+719482598+725483133
603+729917232+733257785+735606018+735797489+731401416+719524135+699568298
594+676762129+661097181+659830765+671480043+688953848+706396201+721408071
584+733423557+742392235+748750536+753356982+756918590+759798058+762375788
574+765040476+767793092+770325028+772558139+774822477+777332225+779718857
564+781475494+782598399+783181778+782643671+779974576+774297444+764937008
554+752132700+738175232+726763295+720895363+721840095+729232626+740857924
544+753158414+763536495+771868379+779258818+786147233+792024427+796304707
534+799088476+801281993+803959007+807398172+810772791+812937023+813766409
524+814537973+816289529+818509044+820207784+821467700+823031969+824893268
514+826418615+827245760+827290733+826444837+824562694+821610164+818061331
504+815208608+814707032+817201914+821120915+823712989+823553192+821293710
494+817955846+813683411+809197541+806769970+807494543+808420300+803430238
484+787444726+761728012+735142169+718562146+717981382+731519003+751726748
475+771621475+788312287+801877624+813135891+822590456+829324006+829268275
465+815359888+782277761+733139675+680402104+640078577+625024088+636432103
455+663215394+693988359+722638777+746839408+766793451+783120520+795705266
445+804604094+809352257+807962277+799765088+787394449+773956037+760463240
435+746023693+729314579+710494124+693114822+683804738+687779544+704612970
425+728681147+753042619+774409802+793832312+811437226+823104882+827110467
415+826104103+821347573+812727473+801324277+789743429+780884943+776835580
405+777424935+780303357+783970300+789733568+799247824+810085122+816956206
395+818907750+817786712+814133216+808477300+802024869+795284970+786586877
385+771879734+748722223+720851959+693976854+670635118+651205510+636507182
375+629738670+633451483
##END=
