##TITLE=SiO- R75
##JCAMP-DX=4.24
##DATA TYPE=INFRARED SPECTRUM
##DATE=1/8/2019
##SAMPLING PROCEDURE=Diamant-ATR
##ORIGIN=Rieke
##XUNITS=1/CM
##YUNITS=TRANSMITTANCE
##RESOLUTION=4
##FIRSTX=3997.453
##LASTX=373.96442
##DELTAX=-1.4165319
##MAXY=1.0008581
##MINY=0.54889446
##XFACTOR=1
##YFACTOR=9.3212171e-010
##NPOINTS=2559
##FIRSTY=0.9990589
##XYDATA=(X++(Y..Y))
3997+1071811639+1071885112+1072523093+1073342677+1073741823+1073419540
3989+1072575720+1071754664+1071400920+1071502976+1071763744+1072055398
3980+1072463688+1072935731+1073215810+1073167596+1072969749+1072905804
3972+1073015023+1073038938+1072708725+1072044463+1071378667+1071087397
3963+1071201027+1071316064+1071105429+1070812241+1070848817+1071174490
3955+1071499203+1071805117+1072229521+1072670486+1072821269+1072499625
3946+1071838816+1071216246+1070948892+1070912443+1070614906+1069930565
3938+1069384922+1069516457+1070229765+1070939939+1071228588+1071171165
3929+1070979713+1070667981+1070262760+1069992208+1070035371+1070237182
3921+1070340518+1070393976+1070681857+1071215479+1071570246+1071510266
3912+1071291126+1071191435+1071168991+1071107475+1071141111+1071530217
3904+1072201449+1072562483+1072248576+1071720453+1071506941+1071426306
3895+1071075823+1070543352+1070345249+1070747464+1071247899+1071334481
3887+1071122694+1070990648+1071024283+1070981504+1070810834+1070704365
3878+1070690873+1070599367+1070366799+1070078662+1069796153+1069592487
3870+1069705990+1070118244+1070223754+1069627849+1068852898+1068900857
3861+1069856197+1070802201+1071126659+1070912890+1070565285+1070585875
3853+1071298799+1072158542+1072630712+1072733792+1072465670+1071874114
3844+1071269832+1071021150+1071137082+1071360634+1071594226+1071837793
3836+1071901738+1071719366+1071563980+1071632273+1071722436+1071566090
3827+1071177943+1070662545+1069987221+1069120956+1068226811+1067688265
3819+1067790897+1068576271+1069897442+1071115660+1071527723+1071103191
3810+1070300488+1069792380+1070012287+1070378309+1069983640+1069232157
3802+1069337794+1070537405+1071553940+1071611235+1071075119+1070592333
3793+1070499421+1070639269+1070621365+1070207128+1069518823+1068900345
3785+1068575056+1068473256+1068465518+1068642966+1069110981+1069596836
3776+1069696398+1069407302+1068973690+1068560861+1068306231+1068425489
3768+1068856543+1069084571+1068745214+1068052049+1067472962+1067368668
3759+1067984587+1069086617+1069771086+1069456412+1068480673+1067732260
3751+1067918148+1068537393+1068630753+1068523645+1069197434+1070768055
3742+1071856017+1071744113+1070971144+1070067856+1069149028+1068037726
3734+1066867785+1066319456+1066577091+1067219995+1068069250+1069239127
3725+1070465722+1071026649+1070711207+1070117477+1069832793+1069934594
3717+1070151432+1070200030+1070007619+1069740265+1069700747+1070117029
3708+1070873756+1071589494+1072011787+1072248704+1072542148+1072821269
3700+1072724520+1072095811+1071136379+1070057752+1068968383+1068024489
3691+1067610252+1068078459+1068961733+1069276343+1068944659+1068433162
3683+1067984779+1067675796+1067550975+1067745240+1068696680+1070645792
3674+1072244036+1072090888+1070929708+1069994510+1069714175+1069643644
3666+1069405064+1069076386+1068890817+1069032328+1069512300+1070210965
3657+1070927854+1071276163+1070999920+1070429593+1070030767+1069822626
3649+1069459545+1069098767+1069225442+1069664490+1070005509+1070009282
3640+1069640190+1069146342+1068984945+1069419132+1070183340+1070680642
3632+1070655192+1070551345+1070929516+1071209724+1070413351+1069117951
3623+1068403747+1068706528+1069623373+1070191589+1069759256+1068755637
3615+1068048980+1068075197+1068619690+1069157277+1069482822+1069679133
3606+1069699340+1069515114+1069400780+1069617490+1069929031+1069759640
3598+1069040961+1068373374+1068200786+1068329060+1068376763+1068354574
3589+1068569046+1069180169+1069801524+1069864894+1069419516+1068805962
3581+1068189084+1067694468+1067503208+1067595033+1067650602+1067365215
3572+1066707603+1065889617+1065250869+1065070671+1065193446+1065105905
3564+1064752736+1064427383+1064187269+1063948307+1063737991+1063641114
3555+1063680824+1063846698+1064032650+1063958538+1063412510+1062521563
3547+1061635987+1061025502+1060658521+1060355421+1060149838+1060273891
3538+1060769146+1061266064+1061286015+1060741394+1059957107+1059299240
3530+1058911668+1058660492+1058346202+1058044444+1057953067+1057858300
3521+1057220959+1055909061+1054352700+1052969631+1051819194+1050790637
3513+1049825641+1049002859+1048593738+1048793886+1049209849+1049121349
3504+1048352025+1047378397+1046503371+1045529487+1044466847+1043744651
3496+1043507606+1043269283+1042532954+1041446271+1040578663+1040188470
3488+1039929237+1039390691+1038634092+1037892456+1037130038+1036252008
3479+1035431336+1034935633+1034903917+1035311055+1035837963+1035923969
3471+1035287523+1034282434+1033489898+1033083718+1032826147+1032585266
3462+1032504631+1032625871+1032661809+1032308831+1031676030+1031275158
3454+1031489438+1032064753+1032370474+1032183371+1031876370+1031800532
3445+1031903739+1032082594+1032396436+1032731701+1032667883+1031923946
3437+1030746652+1029666555+1028937069+1028384838+1027725884+1026746564
3428+1025246539+1023174781+1020855491+1018757963+1016976707+1015139116
3420+1012878016+1010213359+1007366713+1004432207+1001331700+997901427+993976731
3410+989581654+985040463+980717388+976661860+972662348+968631887+964890777
3400+962088573+960760561+960843625+961728882+962887184+964244355+965875404
3390+967641824+969336434+971013203+972913908+975022179+976904532+978178447
3380+978970599+979742161+980773276+981872941+982507916+982316912+981598680
3370+981104832+981244296+981714805+981929277+981554878+980672755+979711979
3360+979184304+979227339+979460547+979396730+978771666+977463924+975570701
3350+973684000+972496922+971917707+971130670+969732638+968207611+967105772
3340+966377181+965686126+964809566+963554132+961808813+959841733+958093921
3330+956584816+954903826+952812629+950532409+948462953+946878265+945816712
3320+945072646+944354734+943507077+942536518+941520750+940515596+939398795
3310+937941677+936284795+935077702+934799221+935197344+935626096+935667213
3301+935333931+934985621+935092857+935826308+936888884+937917634+938917288
3291+940099953+941479633+942871335+944181699+945489696+946925200+948575369
3281+950399212+952183920+953731073+955052627+956267328+957455365+958739255
3271+960290692+962104687+963966450+965764075+967666571+969827085+972045917
3261+973980321+975608045+977207376+978948794+980827054+982879309+985124934
3251+987375803+989377222+991055270+992512899+993881517+995185166+996319297
3241+997248867+998176327+999344157+1000769175+1002307567+1003813474+1005125820
3231+1006131741+1006935212+1007815289+1008949739+1010223910+1011324405
3223+1012059902+1012596274+1013291230+1014322537+1015609433+1017023835
3214+1018476668+1019838764+1020943160+1021701805+1022205245+1022660854
3206+1023155214+1023564207+1023804705+1024028768+1024389483+1024783129
3197+1025057581+1025342329+1025908371+1026787873+1027759711+1028647589
3189+1029432324+1030119734+1030698629+1031198488+1031663369+1032138865
3180+1032734834+1033502879+1034208897+1034485843+1034269005+1033839038
3172+1033483695+1033330739+1033420262+1033738708+1034209281+1034732863
3163+1035233042+1035670363+1036042268+1036339357+1036542830+1036722708
3155+1037060466+1037685658+1038489768+1039156012+1039445172+1039467489
3146+1039506815+1039579201+1039507007+1039440248+1039777495+1040478845
3138+1041020844+1041133835+1041070210+1041087603+1041130126+1041070657
3129+1040927740+1040793903+1040743386+1040832589+1041072448+1041389679
3121+1041711323+1042124665+1042811627+1043721183+1044466783+1044744305
3112+1044721093+1044798914+1045069850+1045235403+1045092039+1044883705
3104+1044989087+1045404858+1045785843+1045886876+1045671190+1045147735
3095+1044454761+1043941666+1043826436+1043885522+1043693750+1043051358
3087+1042120636+1041275921+1040850814+1040923519+1041287047+1041618795
3078+1041695849+1041529463+1041325606+1041283722+1041440452+1041669503
3070+1041766956+1041606581+1041322793+1041244844+1041581771+1042275000
3061+1043092602+1043693495+1043814159+1043635113+1043650971+1043992566
3053+1044311460+1044417993+1044462754+1044437304+1044091873+1043411880
3044+1042671076+1041975161+1041137352+1039998553+1038618297+1037168533
3036+1035844038+1034906730+1034596596+1034877763+1035420082+1035954791
3027+1036486239+1037099089+1037786755+1038460481+1038896970+1038752071
3019+1037885422+1036618222+1035466698+1034657664+1034015079+1033260079
3010+1032291886+1031192413+1030139429+1029370744+1029105052+1029420046
3002+1030257855+1031516679+1033084230+1034848540+1036698537+1038452104
2993+1039879871+1040893209+1041605174+1042188034+1042746787+1043246134
2985+1043529859+1043568802+1043648413+1044087652+1044849750+1045612936
2976+1046107871+1046246696+1046007349+1045301075+1043972295+1041885894
2968+1038889936+1034661053+1028761028+1020939579+1011408877+1001086087
2959+991761544+985637455+984141011+987030499+992710553+999373956+1005862085
2949+1011701554+1016689786+1020689362+1023738649+1026071879+1027896362
2941+1029245668+1030049842+1030202926+1029629466+1028452620+1027007908
2932+1025537873+1024043923+1022601193+1021603841+1021496989+1022378536
2924+1023929717+1025618956+1027005670+1027991896+1028796389+1029655620
2915+1030595358+1031449856+1031974207+1031933282+1031206673+1029890490
2907+1028242944+1026500375+1024833070+1023450576+1022535586+1022063287
2898+1021944605+1022303784+1023336882+1024947724+1026738507+1028287066
2890+1029363263+1030022090+1030526936+1031065994+1031586571+1031953233
2881+1032170070+1032377892+1032677219+1032989272+1033150861+1033196518
2873+1033462082+1034306413+1035723821+1037278647+1038455877+1039083498
2864+1039362235+1039555030+1039770717+1039983270+1040102975+1040063457
2856+1039913186+1039729536+1039435772+1038834368+1037860420+1036735049
2847+1035821465+1035339511+1035258684+1035447322+1035782331+1036111520
2839+1036313587+1036412702+1036470700+1036452923+1036410975+1036628261
2830+1037331274+1038380933+1039455019+1040416562+1041335326+1042240981
2822+1043013502+1043525319+1043812177+1044044361+1044351106+1044720070
2813+1045065309+1045350697+1045641071+1046017325+1046405280+1046543657
2805+1046263258+1045779193+1045547200+1045807648+1046387887+1046941140
2796+1047234009+1047202548+1046925793+1046641877+1046640726+1046963073
2788+1047313876+1047424949+1047374496+1047398348+1047561152+1047788541
2779+1048049693+1048339108+1048593098+1048745224+1048831358+1048963532
2771+1049147055+1049182800+1048910138+1048504087+1048296713+1048342625
2762+1048425754+1048432532+1048452483+1048540535+1048612154+1048602626
2754+1048565218+1048561509+1048558440+1048528450+1048563492+1048748741
2745+1048972293+1049018589+1048840054+1048591244+1048398321+1048223943
2737+1048004547+1047817636+1047813863+1048012349+1048245301+1048298631
2728+1048072329+1047660139+1047310359+1047234009+1047394319+1047580080
2720+1047693007+1047803824+1047905624+1047860223+1047668068+1047545229
2711+1047644153+1047885609+1048131159+1048342817+1048508883+1048556202
2703+1048447815+1048334888+1048451332+1048772337+1048940832+1048710821
2694+1048290574+1048050716+1048082688+1048226629+1048371273+1048554092
2686+1048834619+1049133371+1049218993+1048956818+1048543669+1048319093
2677+1048370186+1048517004+1048648411+1048830527+1049082087+1049290228
2669+1049399446+1049467356+1049491336+1049393627+1049209849+1049112972
2660+1049223214+1049504125+1049805626+1049952380+1049898794+1049809143
2652+1049848149+1049922454+1049803580+1049461985+1049128831+1049062839
2643+1049312801+1049645955+1049722178+1049461090+1049170587+1049178196
2635+1049475030+1049879419+1050309130+1050696254+1050916737+1051015851
2626+1051258907+1051797261+1052490426+1053071496+1053326892+1053208722
2618+1052908499+1052716536+1052756374+1052932990+1053052312+1052928003
2609+1052526555+1052056814+1051783385+1051750581+1051799819+1051827635
2601+1051942672+1052337278+1053028205+1053790814+1054325396+1054406030
2592+1053964042+1053223173+1052654381+1052599133+1052994889+1053552043
2584+1054044037+1054369774+1054562760+1054809780+1055266796+1055816340
2575+1056191378+1056361728+1056573323+1056932822+1057170890+1057008533
2567+1056657539+1056647755+1057108735+1057563513+1057622662+1057524251
2558+1057766347+1058508622+1059470868+1060124963+1060030197+1059308448
2550+1058636257+1058526207+1058846636+1059144429+1059099603+1058672833
2541+1058120411+1057817375+1057872624+1058056850+1058211661+1058461303
2533+1058883277+1059225511+1059178383+1058761461+1058227839+1057767946
2524+1057518176+1057640247+1058127125+1058682297+1058982008+1058981368
2516+1058896769+1058921196+1058979514+1058883980+1058691122+1058601918
2507+1058563871+1058391347+1058157627+1058037347+1057974744+1057885924
2499+1057862904+1057879530+1057694153+1057290403+1057037181+1057191544
2490+1057555264+1057759057+1057650223+1057288229+1056765030+1056193233
2482+1055750797+1055604938+1055808923+1056280774+1056802182+1057049842
2473+1056796683+1056187030+1055703093+1055680457+1055895504+1055862061
2465+1055527692+1055353569+1055610181+1055965269+1055940969+1055506206
2456+1055045674+1054939205+1055264238+1055796901+1056260503+1056556185
2448+1056653702+1056409751+1055802336+1055245310+1055302349+1056065471
2439+1057042105+1057679190+1057847174+1057764812+1057589922+1057316237
2431+1057038588+1056991716+1057226906+1057510758+1057623174+1057542731
2422+1057350256+1057133354+1056979630+1056964411+1057110846+1057346292
2414+1057535569+1057637753+1057778241+1058084154+1058489566+1058763060
2405+1058701736+1058314293+1057832274+1057504620+1057378840+1057288805
2397+1057082902+1056813756+1056627932+1056527410+1056427848+1056338197
2388+1056229618+1055935918+1055482035+1055229388+1055408562+1055855922
2380+1056398880+1057078937+1057840715+1058431440+1058770605+1059090459
2371+1059693206+1060753672+1062179648+1063520897+1064309980+1064620178
2363+1064874296+1064977631+1064259783+1062589536+1060818576+1059676324
2354+1058982456+1058291656+1057593567+1057113403+1056987495+1057232022
2346+1057736740+1058326187+1058969411+1059705163+1060364246+1060734552
2337+1060809304+1060652638+1060327350+1059980255+1059689433+1059306274
2329+1058693871+1057986382+1057470473+1057345652+1057573105+1057837006
2320+1057769289+1057333630+1056904431+1056934485+1057517537+1058239093
2312+1058557220+1058369350+1058050711+1057953451+1058055827+1058095601
2303+1057931389+1057740513+1057794994+1058044700+1058128596+1057913868
2295+1057783293+1058150721+1058826110+1059173843+1058928230+1058515592
2286+1058351893+1058214730+1057735589+1057174982+1057125233+1057602200
2278+1058047322+1058200662+1058399340+1058917871+1059505143+1059767318
2269+1059635591+1059269697+1058813193+1058430673+1058361420+1058723606
2261+1059340293+1059867584+1060078091+1059937540+1059478990+1058866843
2252+1058494107+1058620590+1059050110+1059579511+1060406130+1061578052
2244+1062478336+1062395335+1061363069+1060127265+1059441326+1059544214
2235+1060278304+1061483669+1062885538+1063814278+1063792216+1063401767
2227+1063826299+1065449035+1067368284+1068338651+1067993539+1067052267
2218+1066341645+1065895052+1065207898+1064052665+1062775809+1061933587
2210+1061698141+1061741048+1061906219+1062585572+1063810441+1064621457
2201+1064290988+1063601212+1063856993+1065017341+1065748554+1065106545
2193+1063394478+1061531308+1060277089+1059970792+1060491625+1061593143
2184+1063321388+1065520270+1067152661+1067215263+1065966415+1064231008
2176+1062338424+1060668689+1059972134+1060284314+1060807514+1061290811
2167+1062056426+1062381267+1060800416+1057895005+1056778075+1059411272
2159+1063923368+1067151638+1068203152+1067910091+1067343217+1067551998
2150+1068629730+1069236697+1068365189+1066837667+1065982145+1065798303
2142+1065366737+1064409159+1063694061+1064067948+1065506585+1067197614
2133+1068265434+1068231799+1067168008+1065707565+1064652598+1064398161
2125+1064763287+1065138325+1064881778+1064043713+1063446529+1063532599
2116+1063664774+1063109922+1062005334+1060874272+1060005386+1059638597
2108+1059881716+1060263277+1060195239+1059824101+1059652473+1059626767
2099+1059453411+1059421695+1060004746+1061007278+1061874758+1062422704
2091+1062604180+1062103362+1060816977+1059368109+1058591687+1058701289
2082+1059269441+1059863683+1060408752+1060958808+1061358337+1061219832
2074+1060294418+1058995820+1058272984+1058520964+1059023508+1059053754
2065+1058984885+1059662768+1061214908+1062949995+1063970368+1063880141
2057+1063328486+1063526269+1064898020+1066654464+1067707769+1067538250
2048+1066447858+1065382340+1065212054+1066168801+1067950313+1069876468
2040+1071002286+1070762236+1069623693+1068877005+1069664809+1071687905
2031+1072821269+1071145203+1067452755+1064952757+1065773684+1068836976
2023+1071399001+1071931536+1071101593+1070356120+1070085504+1069549580
2014+1068552740+1068030819+1068577167+1069678685+1070701296+1071335120
2006+1071121479+1070047649+1069091669+1068947281+1069013848+1068361991
1997+1066908135+1065209049+1063835507+1063219332+1063563677+1064635525
1989+1065807895+1066417228+1066317346+1066172894+1066844893+1068336797
1980+1069736044+1070368334+1070589456+1070913786+1070707243+1069031241
1972+1066520372+1064991571+1065296973+1066478360+1067200044+1067263606
1963+1067044977+1066590008+1066268620+1067048686+1068956681+1070522697
1955+1070732565+1070295948+1070233601+1070355800+1069841234+1068665667
1946+1067815964+1068063879+1068953036+1069436589+1069352821+1069434287
1938+1070083778+1070897544+1071093152+1070387261+1069513132+1069415487
1929+1070099700+1070850864+1071147569+1070797406+1069787328+1068513861
1921+1067497517+1066705237+1065790758+1064832284+1064186374+1063807563
1912+1063312116+1062588321+1062097031+1062406270+1063469997+1064655220
1904+1065406064+1065656473+1065653979+1065610880+1065674186+1065972745
1895+1066449648+1066935503+1067531920+1068482016+1069649015+1070547508
1887+1070871262+1070660179+1070232578+1070073419+1070336553+1070653209
1878+1070708138+1070621812+1070661970+1070911292+1071239394+1071514103
1870+1071832997+1072340529+1072785332+1072821269+1072479994+1071895088
1861+1071198214+1070609471+1070295436+1070163581+1069962154+1069480967
1853+1068707551+1067888733+1067337143+1067160782+1067194481+1067113718
1844+1066742005+1066382634+1066420489+1066805950+1067305682+1067704188
1836+1067832014+1067752722+1067759948+1068039260+1068431052+1068482975
1827+1067919299+1067111672+1066856339+1067473538+1068421844+1069080223
1819+1069249486+1069079903+1068954059+1069135663+1069484420+1069702345
1810+1069682586+1069519974+1069356786+1069222373+1068984817+1068576207
1802+1068133323+1067688457+1067088588+1066439929+1066081644+1066194443
1793+1066687140+1067150231+1067205927+1067130088+1067406971+1068115994
1785+1068961541+1069565950+1069790462+1069904476+1070324595+1071076078
1776+1071842269+1072396354+1072669527+1072744854+1072821269+1072898003
1768+1072779832+1072658848+1072753551+1072946218+1072966169+1072623359
1759+1071913824+1071037775+1070191909+1069387415+1068671614+1068265754
1751+1068280589+1068599036+1068995751+1069071335+1068593728+1067914951
1742+1067445530+1067031485+1066240931+1064790528+1062374425+1058281553
1734+1051630940+1042809965+1031824575+1015008860+987080888+945744645+894833898
1724+845081070+807324476+778964171+743545283+686584815+622420160+588865656
1714+589992817+606978051+630233104+656573382+683656383+710440633+735530400
1704+755746013+771302201+787224667+805972931+822592335+835055113+846200493
1694+855705106+862670585+868853887+875901600+883343790+890130159+896969218
1684+904831336+911148475+913953748+915346217+917471370+921669112+928782944
1674+937721961+945823682+952604359+959611083+966715707+972053015+975756461
1664+979334703+983645180+988259781+992179042+995091231+997283206+999218633
1655+1001762434+1005678498+1008949739+1010188420+1010845201+1012298290
1646+1014480673+1016032749+1016754306+1017217333+1017627989+1018028093
1638+1018704889+1020225504+1022511158+1024465066+1025713531+1026681852
1629+1027760990+1028920890+1029928218+1030844040+1031819715+1032642177
1621+1033015105+1032755552+1031089590+1026229056+1017123014+1004466802
1612+989545206+975396706+967250352+968547607+977354194+988964392+1000072876
1602+1009473130+1016828866+1021976449+1024841958+1025277041+1022833442
1594+1016918070+1007771806+997774624+991169028+991231630+997592636+1007015015
1584+1016268707+1023716460+1029093350+1032922705+1036209996+1039913058
1575+1043659092+1046314861+1048128409+1049976615+1052140518+1054132026
1567+1055655135+1056877318+1057822555+1058419994+1058828859+1059506678
1558+1060695801+1061719243+1062380052+1062882725+1063280528+1063682103
1550+1064248401+1064928457+1065520973+1065969037+1066355201+1066724356
1541+1067117683+1067565491+1067831247+1067817371+1067754449+1067959457
1533+1068523261+1069046268+1069210991+1069161178+1069229471+1069574455
1524+1069973984+1070041574+1069537559+1068667393+1067818905+1067069149
1516+1066372402+1065825736+1065590226+1065735445+1066278275+1067428073
1507+1069468370+1071423492+1072213982+1072374356+1072409782+1072475773
1499+1072640752+1072821269+1072670934+1071873410+1070210517+1067141407
1490+1061980523+1055413550+1050030393+1047586666+1048083647+1050865772
1482+1054939333+1059032652+1062213923+1064316439+1065466044+1065494308
1473+1064050555+1061427014+1058494043+1055431455+1051686892+1046563480
1465+1039948676+1032824101+1025968160+1018649192+1008135909+989987898+965359303
1455+941816048+919699346+896809164+874986033+859400495+854879318+861691457
1445+875593128+891998443+907345786+918736716+924324433+922781374+915036851
1435+907912596+907563775+913832828+922270388+924651001+914556175+894628826
1425+875058803+867124235+874831350+894265618+919885043+944505900+961955951
1415+973309345+982102376+989892428+996899215+1003115577+1008582950+1013511009
1405+1018115250+1022228841+1025616782+1028442581+1030928192+1032973861
1397+1034387688+1035189368+1035452054+1035180671+1034432449+1033247738
1388+1031453949+1028831815+1025571061+1022036494+1018235403+1013967258
1380+1009165234+1003955624+998516835+992988011+987702307+983389528+980667191
1370+979734104+980673458+983424953+987835632+994147081+1002583490+1012021599
1360+1020612947+1027727930+1033725408+1038813458+1042778056+1045378641
1351+1046695654+1047145700+1047339518+1047871094+1049088417+1050948645
1343+1053057556+1054913563+1056116243+1056367292+1055448528+1053240375
1334+1049588532+1044175513+1036738502+1027535967+1017524270+1007979244
1326+999912374+993743139+989298377+985951233+982783839+978842901+973444525
1316+966211436+957031792+946607457+936940616+930204380+926673650+924140016
1306+919473300+910587357+896795415+877868744+853516200+823827883+790148941
1296+755555905+724017655+698489224+679557628+665588751+654019030+642892833
1286+631609907+620550149+610464915+602401114+597728579+597582976+601834816
1276+608578342+615126643+619984171+623927539+629224562+637890853+650520464
1266+666318173+683835749+701746205+719265444+736075724+751998701+766890179
1256+780793961+793991404+806871424+819827795+833133434+846731558+860268358
1247+873473859+886389304+899156333+911739584+923885834+935272351+945704936
1237+955178087+963695642+971088339+977099181+981640117+984925809+987321322
1227+989006788+989813200+989404334+987480545+983707910+977599808+968749226
1217+957327922+944293283+930922100+918014200+905366045+891681531+874837681
1207+852619625+823982054+790297166+755469707+724202136+699403383+681066094
1197+667702329+658779617+655724767+660618679+673902193+693317981+714774194
1187+733793075+746554796+750771850+746623729+737523250+729538357+727757997
1177+731310213+732709333+723577264+701481792+672241027+647055917+636394345
1167+643770544+664398412+690175014+715478997+738514208+759316070+778042402
1157+794664427+809221536+821992146+833516081+844476596+855370609+866217749
1147+876726108+886667594+895894620+904214074+911540523+918010044+923790875
1137+928987185+933762543+938325859+942775929+947116524+951375014+955568856
1128+959562229+963038414+965580361+966666917+965532530+960959878+950986484
1118+932830862+903928878+864366282+819092426+777493880+749665983+741528581
1108+752222765+775518232+803768167+831353073+855701653+876266151+892978275
1098+905306192+912403335+914225131+912510443+910415472+911004023+915884827
1088+924802935+936161061+948077684+959236620+969004495+977184164+983908634
1078+989530306+994327598+998283691+1001121768+1002435009+1001802592+998831317
1068+993029320+983597669+969299985+948494350+919830753+884133320+846079573
1058+812774583+789192642+774986528+766133964+758989886+752119429+745278643
1048+738259130+731196710+725630479+724725527+731651169+747105811+768544312
1038+791966901+814259709+834088710+851446360+866815380+880507248+892440240
1028+902387097+910322624+916361986+920226766+920920059+917302235+909160869
1018+897776525+885755033+876374154+872345227+874453562+881332140+890682325
1009+900755537+910876581+920821967+929974625+937576103+943947787+950660236
999+958833063+967730324+975427975+980098911+980098144+973958900+962115047
989+948817465+940396594+939707714+942518422+940704298+929034824+908125469
979+881507030+851610379+819242057+786082095+756544880+736455622+729550571
969+735219307+749503626+767887084+787187387+805798617+823225008+839576993
959+855087651+869784608+883426343+895656041+906311346+915622332+923960458
949+931465122+938078136+943804230+948790991+953292729+957550195+961580913
939+965166636+968059066+970085807+971335615+972543538+974821392+978407626
929+981898263+983334151+982242736+980309482+979730267+980674098+980137406
919+973900710+961360878+948512446+943062787+945367177+947989120+946260811
909+944827544+950652242+963718215+978199677+989570848+997222458+1002245092
899+1005621139+1008114744+1010332425+1012556244+1014742976+1016734419
891+1018486708+1020113983+1021681406+1022820525+1022425216+1018986567
882+1011767865+1001784240+991439324+983287535+979205917+980117199+985666166
873+994148104+1003333055+1011612926+1018373333+1023610567+1027589233+1030734246
863+1033438934+1035866802+1038020922+1039940491+1041754039+1043613116
854+1045556728+1047386070+1048818761+1049862985+1050820307+1051910508
846+1053196572+1054746410+1056451379+1057832019+1058484707+1058604796
837+1058655056+1058545199+1057335229+1053278038+1043736849+1026631015
829+1004501204+986300885+981155349+989119011+1000706892+1006343400+1004191006
819+998596895+993255558+987702754+980530285+972927784+965084594+951752290
809+928742850+903392443+890932798+899515961+923892484+952971149+978742187
799+998458070+1012767519+1023526096+1032317656+1039962232+1046666623+1052283244
789+1056654981+1059974053+1062786168+1065540284+1068132236+1070052892
781+1071011941+1071253015+1071319390+1071667315+1072339059+1072821269
772+1072293146+1069415679+1062395463+1048409256+1024038616+988368359+947188782
762+911745915+889276939+874282765+851963804+812319869+760559163+712323113
752+679534480+664380507+666567303+688713228+730005413+779982305+824550910
742+856717101+878790705+896405734+913097779+929481800+945162745+960203599
732+974794663+988455133+1000390811+1010405130+1018967191+1026469810+1032799610
722+1037741738+1041431819+1044065208+1045611273+1046233331+1046359751
714+1046000955+1044614049+1041612400+1036225854+1026448260+1007426182+970881860
704+909898412+828539168+744712409+678685673+638515214+619456176+615908308
694+628091774+657127659+699336689+746979072+792143838+829197483+854540601
684+865320215+860646210+845716940+832297095+831161174+843591660+861971856
674+878011853+888631796+895296733+900529619+905451540+908758718+909471514
664+908965708+908640995+908966604+909706193+910404282+910851131+910973010
654+910481847+909397466+909306536+912874674+920833605+930463486+938404384
645+943917733+948509953+953732032+960187996+967759547+975965114+983920016
635+989347423+986989511+969171711+931100763+877690081+823888183+785923895
625+770811294+773941792+785827082+799213355+810953298+820706017+829213086
615+836925764+843552973+848741737+852878987+856800038+860878395+865075817
605+869653265+874917356+880578291+886252654+892123200+898302154+904130625
595+908891596+912832343+916867472+921411733+926127750+930828357+935686524
585+940445576+944464144+947784175+951209204+955180517+959289695+962775664
575+965008244+965854814+965873358+965876811+966166034+966217063+965220862
565+962919924+959715761+955916206+951059061+944156440+934664553+923264479
555+911871247+902937217+898368913+898501599+901858335+906269654+910472320
545+914303720+917483392+919090269+918433872+915571368+910548990+903065171
535+893818386+885257284+879657609+877204546+876980802+878825619+883023872
526+888945895+895396999+901850981+908171766+914102676+919716292+925206812
516+930025973+933613423+936495046+939463187+942386823+944691661+946467353
506+948267601+950033190+950794265+949615884+946937478+944379033+943000184
496+942319616+941030035+938345299+934514921+930512020+927628798+926993567
486+928901626+932424043+936079147+939349109+943226678+948759275+955307896
476+961188354+966077918+971366564+977817605+984291282+989172725+991650855
466+992415127+993747680+997523064+1003226202+1008897368+1013281958+1016081667
456+1017341898+1017712908+1018333815+1019982576+1022293937+1024087534
448+1024822967+1025092240+1025371488+1025404164+1025371232+1025792759
439+1025550726+1022078378+1014342168+1005269633+999724503+999704232+1002993634
429+1006466750+1009675388+1013903057+1018703034+1021774447+1022534051
421+1023738266+1029030876+1037049404+1041489178+1039799108+1032340356
412+1019514114+1002242790+982524478+964105467+952609347+952170300+961237272
402+974114734+987257249+1002147576+1020383768+1037321362+1049131964+1058406118
392+1066709201+1072079889+1072821269+1071986209+1070313533+1068657674
384+1066468960+1064253772+1062792434+1061234219+1058433423+1056164458
375+1060594960+1072821269
##END=
