##TITLE=JPK-930, X19796
##JCAMP-DX=4.24
##DATA TYPE=INFRARED SPECTRUM
##DATE=18/11/2021
##SAMPLING PROCEDURE=Diamant-ATR
##ORIGIN=Angelika Moesle
##XUNITS=1/CM
##YUNITS=TRANSMITTANCE
##RESOLUTION=4
##FIRSTX=3997.453
##LASTX=373.96442
##DELTAX=-1.4165319
##MAXY=0.97173017
##MINY=0.26149261
##XFACTOR=1
##YFACTOR=9.0499425e-010
##NPOINTS=2559
##FIRSTY=0.94128507
##XYDATA=(X++(Y..Y))
3997+1040100616+1039298484+1038685507+1038531588+1038865903+1039555082
3989+1040277060+1040577259+1040317631+1039905072+1039752206+1039725928
3980+1039485729+1039062435+1038704080+1038512883+1038606078+1039178220
3972+1040009463+1040425644+1040109968+1039494818+1039128955+1039115322
3963+1039326014+1039747399+1040417939+1041236800+1041938427+1042212807
3955+1041931643+1041343891+1040918950+1040907227+1041083539+1041005097
3946+1040581671+1040263888+1040582462+1041490105+1042269646+1042368702
3938+1041956934+1041472585+1041122924+1041021102+1041396317+1042197593
3929+1042820713+1042825257+1042487583+1042334520+1042433181+1042431732
3921+1042205497+1041973267+1041891862+1041929996+1042084179+1042396628
3912+1042769406+1042944467+1042665608+1041897987+1040967885+1040515019
3904+1041126283+1042736870+1044629412+1046042150+1046447728+1045757758
3895+1044464757+1043358475+1043116103+1043737181+1044302869+1044141968
3887+1043606248+1043316455+1043217399+1042874588+1042541985+1042795356
3878+1043322778+1043309737+1042532962+1041176338+1039637146+1038934531
3870+1040188542+1042660734+1044191628+1044248006+1043996940+1044249455
3861+1044573232+1044441113+1043924887+1043159440+1042183169+1041487470
3853+1042081544+1043632922+1044715560+1045047504+1044875341+1044277644
3844+1043325412+1042300996+1041633881+1041765934+1042942228+1044600828
3836+1045581183+1045635387+1045472840+1045512489+1045513608+1045245616
3827+1044888381+1044610839+1044305833+1044081112+1044475756+1045411391
3819+1045645200+1044750532+1043716105+1043457795+1043759113+1043929432
3810+1043647477+1043027914+1042572743+1042654280+1042893358+1042919374
3802+1043035686+1043490792+1043979619+1044363264+1044634879+1044420367
3793+1043545589+1042538494+1042047230+1042273137+1043004204+1043875359
3785+1044443682+1044360959+1043816545+1043586884+1044358654+1045810580
3776+1046833217+1046813327+1045936244+1044694154+1043598542+1043042470
3768+1043113666+1043599925+1044106864+1044211189+1043896106+1043607367
3759+1043622779+1043584711+1043098452+1042495750+1042474938+1043458651
3751+1044987306+1045619185+1044822453+1043588201+1043056696+1043696347
3742+1044581860+1044712793+1044274219+1043889059+1044050881+1044965703
3734+1046347025+1047476556+1047824703+1047381320+1046353677+1044962608
3725+1043632856+1043018562+1043419397+1044419642+1045340787+1045858791
3717+1046080152+1046217474+1046398595+1046604018+1046566872+1046115850
3708+1045739251+1045939340+1046461822+1046644721+1046164456+1045394003
3700+1044959051+1045016153+1045361138+1045754136+1045860701+1045319579
3691+1044192945+1043357224+1043849871+1045240479+1046162941+1046118945
3683+1045424036+1044644429+1044329477+1044794923+1046094840+1047778006
3674+1048428524+1047355173+1045869263+1045626298+1046888871+1048150851
3666+1048420950+1047939829+1047131308+1046279780+1045606671+1045245089
3657+1045219667+1045370622+1045346385+1045019183+1044652266+1044516920
3649+1044571190+1044784451+1045407702+1046304346+1046926675+1046878662
3640+1046235586+1045385309+1044611761+1044084207+1044064449+1044565394
3632+1045063508+1045204848+1045496550+1046315411+1046731197+1046202919
3623+1045270973+1044623880+1044607348+1045105791+1045645069+1045953763
3615+1046216487+1046600132+1047007290+1047355173+1047752386+1048214868
3606+1048498667+1048405143+1047992584+1047394690+1046674622+1045941908
3598+1045497670+1045603115+1046119143+1046637805+1047007686+1047431112
3589+1048086372+1048878625+1049425805+1049434631+1049025958+1048489052
3581+1048129709+1048229621+1048776934+1049324180+1049403412+1048939613
3572+1048087953+1046979365+1045930382+1045645596+1046541647+1047709905
3564+1047982244+1047487292+1047008212+1046991352+1047383494+1047981454
3555+1048635265+1049176913+1049418626+1049311864+1049050195+1048977088
3547+1049334126+1049935181+1050155094+1049587694+1048523761+1047551244
3538+1046965666+1046691153+1046591372+1046612382+1046674754+1046740418
3530+1046960924+1047463121+1048035329+1048342377+1048366351+1048361806
3521+1048473442+1048589754+1048508744+1048197086+1047918687+1047992321
3513+1048388876+1048734651+1048735968+1048431159+1048016097+1047675986
3504+1047668215+1048244704+1049291447+1050300188+1050811145+1050644975
3496+1049862997+1048822313+1048094144+1048033616+1048482399+1048969580
3488+1049108219+1048816846+1048290083+1047830959+1047624351+1047604658
3479+1047612759+1047653396+1047823517+1048031641+1048035592+1047823583
3471+1047692913+1047825756+1047991662+1047840707+1047397061+1047089157
3462+1047250123+1047724461+1048113507+1048295418+1048448415+1048638097
3454+1048686176+1048457109+1048066086+1047782485+1047802770+1048058249
3445+1048271576+1048304441+1048310632+1048451313+1048659766+1048824420
3437+1049018779+1049350657+1049694193+1049794171+1049616805+1049419417
3428+1049444247+1049665740+1049829144+1049624642+1048923608+1047949247
3420+1047044898+1046219055+1045211302+1043959465+1042656321+1041452497
3411+1040509026+1040189991+1040734998+1041800512+1042698341+1043057684
3403+1043027124+1042969626+1043224709+1043983439+1045076483+1046004806
3394+1046440022+1046581032+1046849815+1047425975+1048202091+1048978076
3386+1049556673+1049803919+1049730944+1049471514+1049176979+1048961742
3377+1048886133+1048908131+1048883301+1048743213+1048640073+1048769096
3369+1049107363+1049494829+1049837179+1050030945+1049931230+1049609889
3360+1049391821+1049443325+1049591251+1049642557+1049611931+1049605345
3352+1049715730+1050009210+1050407214+1050653669+1050594459+1050410704
3343+1050404447+1050642011+1050966381+1051255647+1051475823+1051554989
3335+1051423595+1051202364+1051183133+1051492881+1051821993+1051687635
3326+1051045942+1050421637+1050265940+1050455820+1050643658+1050803966
3318+1051108841+1051473320+1051612355+1051509808+1051488007+1051712728
3309+1051889238+1051660632+1051131563+1050766820+1050861858+1051314922
3301+1051808426+1051978481+1051532596+1050539003+1049587892+1049341239
3292+1049865631+1050638850+1051199005+1051505790+1051707986+1051923289
3284+1052269064+1052773171+1053209901+1053302898+1053087530+1052812886
3275+1052577627+1052373257+1052355738+1052682611+1053168408+1053456883
3267+1053489551+1053547246+1053864700+1054374867+1054772475+1054767996
3258+1054355832+1053831835+1053492449+1053402613+1053461494+1053502328
3250+1053286499+1052675498+1051919205+1051545505+1051806582+1052387220
3241+1052791612+1052873083+1052850822+1052934862+1053100702+1053207991
3233+1053197980+1053127508+1053072118+1053073699+1053172162+1053403930
3224+1053690364+1053814448+1053630232+1053249813+1052891656+1052616617
3216+1052371347+1052187329+1052146429+1052250820+1052470601+1052771458
3207+1052993874+1052931569+1052657517+1052537319+1052758615+1053055718
3199+1053089308+1052905948+1052749856+1052584476+1052184431+1051664056
3190+1051500192+1051938503+1052708099+1053427377+1053969025+1054281145
3182+1054207050+1053711110+1053061119+1052576507+1052356199+1052367066
3173+1052555234+1052742084+1052683928+1052398021+1052187263+1052209591
3165+1052276177+1052216308+1052177450+1052388010+1052811634+1053200154
3156+1053348409+1053224061+1052976289+1052809131+1052756376+1052697957
3148+1052640525+1052705399+1052767902+1052474553+1051750994+1050936151
3139+1050275424+1049545740+1048305824+1046299868+1043505215+1039989836
3131+1035945388+1031786209+1028063101+1025336682+1024106382+1024552596
3122+1026262898+1028558844+1031133386+1034027819+1037127017+1040108980
3114+1042740756+1044895363+1046484874+1047627051+1048618865+1049538363
3105+1050072964+1049960406+1049495619+1049353094+1049855488+1050632791
3097+1051086908+1050968357+1050436390+1049760186+1049076342+1048325582
3088+1047362088+1046149768+1044864407+1043775842+1042974105+1042274717
3080+1041484638+1040662023+1039960001+1039346168+1038617208+1037518632
3071+1035785542+1033283250+1030139003+1026570605+1022638452+1018261928
3063+1013389530+1008108130+1002691186+997588337+993345513+990468797+989235928
3053+989618849+991448361+994548020+998616442+1003162494+1007678183+1011745288
3043+1014984179+1017120541+1018193563+1018647615+1019170756+1020316358
3034+1022173071+1024416855+1026669266+1028751754+1030702649+1032627397
3026+1034464418+1035945652+1036930748+1037662013+1038476395+1039398067
3017+1040259936+1041089862+1042066989+1043122426+1043875623+1044089279
3009+1044017819+1044161529+1044740851+1045513477+1046068692+1046204500
3000+1046004477+1045644344+1045225726+1044784188+1044329741+1043806073
2992+1043086926+1042114080+1040938379+1039530318+1037696327+1035338339
2983+1032635498+1029777092+1026646083+1022919155+1018350644+1012856378
2975+1006426280+998982765+990313495+980251903+968867541+956231079+942094809
2965+926201936+908849102+890806431+872842597+855677470+840203610+827346247
2955+817655919+811049904+806794501+803788168+801155207+798618338+796096354
2945+792939132+787762913+779137704+766464161+750270102+731792676+712321724
2935+692792878+673666911+654988343+636695923+619147941+603431841+591062976
2925+583261567+580455653+582385275+588498577+598168685+610712941+625422473
2915+641562855+658199111+674081380+688030338+699575798+709002218+716710958
2905+722833613+727518634+731227976+734557229+737909534+741386121+744926725
2895+748616836+752874676+758153969+764413419+771086810+777636711+783950365
2885+790209880+796672514+803646433+811393506+819825278+828327655+835941291
2876+841736678+845082463+845657437+843280942+837781473+829000961+816844039
2866+801334153+782676398+761243222+737478073+711946640+685626247+660162191
2856+637795488+620971262+611800716+611525150+620151413+636459742+658414677
2846+683737393+710297590+736239474+760065874+780838324+798258929+812411599
2836+823474555+831727315+837606148+841596787+844290144+846634169+849776506
2826+854410616+860426310+867317310+874783152+882799007+891233348+899663672
2816+907663983+915102624+922002515+928249846+933637877+938136179+941925610
2806+945196378+948072040+950740633+953476602+956446447+959593000+962758718
2796+965812669+968657442+971261358+973682771+975954677+978030579+979901057
2786+981621040+983196391+984614662+985969375+987334429+988551294+989344864
2776+989669233+989812022+990148445+990869567+991913610+993044195+993964220
2766+994481763+994648196+994676912+994721434+994790853+994817659+994712938
2757+994421631+993995900+993545470+993121780+992735698+992433458+992236926
2747+992066343+991808692+991435255+991007152+990613825+990322320+990176634
2737+990220432+990511673+991099491+991978945+993065205+994236493+995401656
2727+996507807+997507261+998393038+999268211+1000301057+1001537285+1002771010
2717+1003635119+1003849894+1003421133+1002654237+1001978033+1001679284
2708+1001775771+1002141107+1002662931+1003226577+1003696700+1004038655
2700+1004383705+1004911983+1005688034+1006568015+1007283539+1007727712
2691+1008102400+1008651227+1009341328+1009953976+1010382341+1010712573
2683+1011044385+1011338986+1011525441+1011706561+1012102720+1012775302
2674+1013577171+1014356449+1015061632+1015712216+1016360166+1016991649
2666+1017470531+1017712969+1017842454+1018026933+1018279974+1018527549
2657+1018745486+1018940437+1019100745+1019233655+1019382107+1019553282
2649+1019686587+1019757586+1019845973+1020022483+1020248455+1020458620
2640+1020638884+1020770740+1020858863+1021053156+1021559765+1022337924
2632+1023024797+1023262296+1023036982+1022638847+1022355772+1022256716
2623+1022161677+1021786660+1021074495+1020393219+1020162900+1020334405
2615+1020525141+1020552868+1020520794+1020560508+1020838841+1021576758
2606+1022723809+1023869937+1024774024+1025666518+1026749881+1027752628
2598+1028321017+1028564574+1028855749+1029272392+1029540582+1029465433
2589+1029234060+1029220032+1029518584+1029797245+1029752459+1029569824
2581+1029683370+1030171078+1030661881+1030853078+1030915646+1031312464
2572+1032272533+1033503031+1034439324+1034764155+1034637503+1034416141
2564+1034274208+1034213813+1034288303+1034546547+1034850171+1035068503
2555+1035376144+1035999461+1036751867+1037171078+1037066095+1036639046
2547+1036158122+1035758209+1035503784+1035486726+1035820975+1036539199
2538+1037462912+1038234353+1038575584+1038515583+1038313717+1038158941
2530+1037958984+1037515931+1036969409+1036854810+1037458697+1038322871
2521+1038767637+1038754794+1038851940+1039456355+1040378356+1041144264
2513+1041524419+1041709886+1041944091+1042120008+1041989865+1041640599
2504+1041414561+1041457964+1041605824+1041612147+1041398886+1041175746
2496+1041268413+1041772059+1042505168+1043214501+1043594392+1043352745
2487+1042556738+1041658052+1041010630+1040685865+1040719981+1041097238
2479+1041559523+1041845495+1042024706+1042284531+1042556079+1042636036
2470+1042532106+1042467693+1042636892+1043078101+1043687850+1044292594
2462+1044746976+1044945022+1044746119+1044102715+1043368288+1043207256
2453+1043960321+1045226450+1046227617+1046474797+1045993807+1045123245
2445+1044293846+1043825699+1043727236+1043792703+1043951759+1044281925
2436+1044663660+1044807898+1044652793+1044393100+1044200519+1044205459
2428+1044524560+1045047701+1045464870+1045637824+1045657319+1045557933
2419+1045304563+1045034199+1045049348+1045548252+1046424281+1047312560
2411+1047864286+1048017875+1047987777+1048016097+1048166262+1048306746
2402+1048264594+1048046064+1047875745+1047920993+1048002859+1047742178
2394+1047038180+1046221887+1045655475+1045347768+1045071346+1044702519
2385+1044354505+1044263944+1044557886+1045111126+1045673323+1046100109
2377+1046364742+1046460834+1046490011+1046676927+1047060441+1047299256
2368+1047039826+1046491987+1046380219+1047000375+1047541562+1047012955
2360+1045695651+1044798216+1044831411+1045245287+1045503070+1045636836
2351+1045716792+1045469481+1044639357+1043466291+1042741481+1043167212
2343+1044446843+1045646320+1046341031+1046757147+1047292604+1048173178
2334+1049246529+1050058277+1050228003+1049701306+1048656209+1047325733
2326+1046005267+1045100457+1044915516+1045337033+1045964499+1046598815
2317+1047314800+1048147492+1048975508+1049542249+1049531909+1048889558
2309+1048050016+1047608610+1047805273+1048356735+1048647120+1048189841
2300+1047135524+1046211349+1045990119+1046359407+1046736466+1046645313
2292+1046147858+1045847462+1046287288+1047262835+1048004703+1048112190
2283+1047909137+1047782485+1047660179+1047397654+1047246896+1047555261
2275+1048205845+1048687625+1048666286+1048330720+1048166921+1048470413
2266+1049099789+1049689187+1049996960+1050004205+1049883743+1050016257
2258+1050757599+1051901752+1052590470+1052195101+1051185372+1050678960
2249+1051141113+1051835890+1051694024+1050623109+1049733776+1050107213
2241+1051657799+1053552383+1055293245+1056799902+1057806733+1057913890
2232+1057188487+1056322074+1056066464+1056501284+1057080605+1057523395
2224+1058103770+1058754683+1058730841+1057768401+1056805632+1056866422
2215+1057746996+1058464035+1058777208+1059491810+1060951112+1062036845
2207+1061624879+1060453723+1060333064+1061860533+1063973317+1065443289
2198+1065926584+1065790249+1065646078+1066020766+1067056379+1068383167
2190+1069231270+1068755945+1066698551+1063881374+1061689226+1060961189
2181+1061544198+1062593576+1062938956+1061666701+1058980919+1056279132
2173+1054911904+1055045275+1055991315+1057263899+1058752180+1059968716
2164+1060072909+1059370755+1059909769+1063281701+1068127557+1071318895
2156+1071497908+1069714236+1067655985+1066585729+1066856093+1067750827
2147+1068160422+1067538949+1066113368+1064432506+1062936387+1061797240
2139+1061060574+1060965470+1061802640+1063180274+1063872351+1062964510
2130+1060931353+1059198592+1058783860+1059525926+1060520441+1061044043
2122+1060915019+1060215171+1059026561+1057478675+1055833115+1054437962
2113+1053597498+1053431724+1053878465+1054838468+1056152611+1057493823
2105+1058564672+1059345728+1059888101+1060098332+1060076005+1060289661
2096+1060917654+1061372167+1061021386+1060011987+1058854332+1057659597
2088+1056306135+1055035198+1054431969+1054929621+1056453402+1058383156
2079+1059850559+1060309946+1059939144+1059413368+1059156243+1058837340
2071+1057878786+1056535269+1055892588+1056560428+1057980608+1059239163
2062+1059903644+1059922546+1059445706+1058912093+1058719710+1058740194
2054+1058540434+1058077162+1057866931+1058364781+1059302984+1059977278
2045+1060305994+1060878664+1061674012+1061802904+1060948411+1059818353
2037+1058718262+1057188487+1055600491+1055563740+1058005767+1062024397
2028+1065945222+1068588458+1069748945+1070042426+1069961613+1069242730
2020+1067867336+1066900747+1067007904+1067079430+1066078000+1065168052
2011+1066121469+1068701016+1071012111+1071615735+1070271493+1067681474
2003+1065511456+1065522389+1067729224+1069947980+1069825477+1067196006
1994+1064208510+1063425741+1065751523+1069714894+1072844257+1073741823
1986+1072853741+1071578259+1070755117+1070344666+1070308574+1070577751
1977+1070001394+1067132186+1062630986+1059010557+1057903879+1059004563
1969+1061237084+1063532569+1064669873+1063771845+1061288720+1058853871
1960+1057981860+1058857757+1060316796+1060918576+1059907859+1057390683
1952+1054020925+1050761156+1048683410+1048441236+1049787914+1051926318
1943+1054175700+1055922687+1056530527+1056012391+1055160270+1054615131
1935+1054220618+1053418156+1051855122+1049540142+1046925556+1044920917
1926+1044434856+1045799120+1048448942+1051060366+1052643291+1053370341
1918+1053677389+1053291109+1052027219+1050641880+1050030681+1050316522
1909+1050952221+1051353913+1051385395+1051444341+1052011544+1053095499
1901+1054344899+1055631775+1057112614+1058764760+1060205621+1061061431
1892+1061353726+1061381717+1061369269+1061327183+1061166546+1060872736
1884+1060522285+1060119803+1059483182+1058443683+1057034502+1055341983
1875+1053415917+1051493540+1050046225+1049531909+1050104512+1051228051
1867+1051934090+1052014047+1052077537+1052583159+1053478618+1054396337
1858+1054954649+1055095857+1055143607+1055338294+1055553597+1055608394
1850+1055459744+1055015308+1054164504+1053043271+1052088141+1051699029
1841+1051808887+1052074376+1052236330+1052172971+1051935473+1051729655
1833+1051684605+1051749611+1051865528+1051981181+1051871456+1051296283
1824+1050316917+1049252325+1048398294+1047957414+1048105406+1048957791
1816+1050444030+1052215913+1053851462+1055194781+1056334522+1057344185
1807+1058298985+1059344608+1060528608+1061719786+1062633027+1062932172
1799+1062649361+1062283169+1062165474+1062227845+1062362335+1062481808
1790+1062392170+1062108437+1061872981+1061789929+1061775571+1061734671
1782+1061693178+1061802245+1062121017+1062430831+1062549383+1062586463
1773+1062651864+1062603389+1062337439+1061972893+1061633507+1061427820
1765+1061420773+1061596690+1061928239+1062283893+1062458230+1062475486
1756+1062475617+1062443279+1062373070+1062337966+1062172653+1061572585
1748+1060623778+1059611744+1058723596+1058111212+1057657226+1056985962
1740+1055981041+1054778995+1053228277+1050751803+1046628848+1040894515
1731+1033873505+1024640522+1011916133+994688372+970899776+938438024+898958225
1721+855385504+804056489+736051241+656875023+596557900+573382611+584126795
1711+621685732+676055327+735509000+792409865+841490684+877556267+901834744
1701+921730571+941014081+955588464+964482324+971406715+977080718+980911905
1691+984154814+988150326+992711790+997093846+1001654058+1006900025+1010987085
1681+1012412271+1012468254+1012569681+1013404547+1015371710+1018424804
1673+1021919964+1025680679+1030074722+1034349818+1037007412+1038202081
1664+1039081601+1040411682+1042193773+1043839135+1044938963+1045615694
1656+1046296311+1047421562+1048740117+1048926901+1047947996+1046589924
1647+1045188975+1043844009+1042543105+1041260246+1039984040+1038723509
1639+1037564867+1036557245+1035359547+1033299782+1030350156+1026860068
1630+1022716498+1017553781+1011437581+1005291743+1000637414+999329660
1622+1002261964+1008056758+1015067889+1022515290+1028511819+1030265260
1613+1027438204+1020908786+1010797403+997260938+981945081+968547452+961738715
1604+964762566+976873122+993140024+1008089030+1019223578+1026785117+1031834288
1594+1035250348+1037555317+1038909108+1039269900+1038652115+1037259399
1585+1035462160+1033623888+1031874991+1030083284+1027844176+1023828379
1577+1014873596+998495914+976505546+950318129+920887605+897228165+893168503
1567+908420934+930782697+949470354+959841958+962016586+954221500+933284396
1557+906623892+878786699+849827418+826251622+816966411+824880575+844932561
1547+869610292+894621021+917734993+937142323+954280183+970998569+982733514
1537+987636933+988667408+987523387+983731585+975595928+960339149+933217941
1527+891255280+842365264+803821428+790825030+809363444+846411819+883146099
1517+914754874+940912917+959614997+972075872+981521128+989639200+997357689
1507+1005604521+1012062347+1014271882+1014000794+1012622107+1009990200
1499+1004998855+995967673+983047873+969354195+956831871+944650382+932099013
1489+922277950+920276538+926473419+936924649+947259699+954215639+955966182
1479+951861536+941416563+923598415+897358637+865245821+837939476+824274909
1469+820265631+817834075+811874759+802315891+794916043+794942321+803313501
1459+820834283+848604955+878386391+898503778+910574684+919557194+927052016
1449+933002178+937372774+940534409+943087348+945514491+947781655+949411737
1439+950120214+950083858+949488071+948158978+945963208+942900366+938670319
1429+932849905+925503075+916761752+906188677+893436297+878115962+857362744
1419+826072939+785355792+746086817+716634427+700790160+702356093+722036486
1409+754117030+790410891+825864156+858010430+883715212+900717989+909782563
1400+912727051+911429374+908587960+906730391+906372168+906120575+904700329
1390+902046621+898809575+895537226+892299191+889419841+888175775+890065024
1380+895226753+901869189+907765147+911967203+914923348+917449679+919844352
1370+921701592+921942712+918935590+910328888+892502902+862483968+822866452
1360+781217820+744357744+718649274+711387868+725744380+755812842+790619146
1350+821954067+846966838+865691838+878062745+883180413+880221699+868776876
1340+848495953+819259195+781189368+734478788+681330931+628667291+587054620
1330+565166799+564755426+580578353+604328090+628845118+650350018+668508804
1320+685047914+701874115+719760562+738473115+757673704+776985337+795437801
1310+811594253+824156752+832309337+836118262+836921909+836864939+837787400
1300+840685719+846042795+853998254+863746870+873096955+879229818+880146353
1290+875685460+867806993+860114652+856382455+858711464+866842380+878940026
1281+892715043+906124132+917670448+926360795+931387968+931831351+926692805
1271+915489168+899132825+879730501+858633023+835116700+808241684+779471953
1261+751666967+726136917+703101979+684434278+672962057+668929003+669439103
1251+671979199+677162268+687468470+703794846+723139080+739093863+745071556
1241+738666090+723984023+709397455+702116158+704426001+714427790+729102612
1231+746418168+765699372+786827608+809021357+830410670+848998546+863897365
1221+875451519+884313831+890578812+893632631+892371508+885169640+869682016
1211+843111809+803379692+751380204+693509785+641669156+608414031+599940041
1201+613089568+638821155+668286783+696491090+722214313+746043809+768587219
1191+789788496+809227505+826706464+842464188+856902962+870180656+882106271
1181+892430849+901141876+908412372+914379988+919109465+922722188+925447290
1171+927550722+929282627+930888801+932556754+934262313+935724448+936604758
1162+936700653+935864338+933826703+930114726+923912379+914208351+900986508
1152+886715682+875670970+870453259+869128315+866771446+860472611+852605670
1142+848646514+851809532+860356694+869965485+877498045+882012418+883460985
1132+881686928+876270643+866730546+853514104+839202839+827667719+821043987
1122+817865887+814548884+808173254+797793483+784150651+768704783+752270920
1112+734108051+712635819+687115253+658451559+628703581+600209614+574918774
1102+554101999+538516899+528682400+524824901+526647695+533361295+543997828
1092+557604865+573147023+589476362+605664297+621311175+636371817+650783785
1082+664452698+677477812+690100773+702340418+713782738+723832935+732184949
1072+739028331+744875814+750275239+755591546+760905680+766086245+770968588
1062+775468998+779641020+783742175+788138523+792996300+798146371+803334511
1052+808465549+813444314+817885975+821234657+823239823+824215040+824803253
1043+825555396+826702710+828204296+829920328+831735416+833623216+835685023
1033+838113483+841083723+844718839+849090028+854111800+859437921+864469902
1023+868406336+870438374+870153258+867727168+863661381+858528236+852878668
1013+846887869+839940492+831036621+820155905+809370755+802205967+801109762
1003+805102245+809957782+810532229+802672599+783727027+753311999+715285246
993+678602997+654079317+648280044+659911059+681923557+706571913+728702831
983+746064358+758386725+766516982+771803915+775752995+779767805+784760532
973+790879432+797655107+804378357+810384040+815135845+818158775+819080117
963+818033637+815977955+814162669+813156892+812903719+813924644+817755239
953+825555593+836649636+848939731+860410240+869783114+876040653+877858508
943+873686354+862758810+846678889+829989878+818220751+814480321+817809377
933+824823472+832610918+840099153+847476477+855099927+862928404+870564499
924+877629308+884035827+889838261+894941966+899168654+902575427+905501144
914+908248047+910833917+913112607+915034984+916672311+918030384+918946720
904+919174800+918527312+917015386+914995335+913187558+912369553+912837107
894+914139657+915378915+915662912+914239636+910633170+905194294+899415965
884+895081001+892741454+891281361+889284758+886605825+884164917+882375581
874+880458538+877442392+873256341+868471145+863209108+856605727+847417333
864+835204494+821008158+806827431+794224427+783218112+772475311+760556085
854+746919641+731898582+716085863+699874087+683297765+665963307+647017011
844+625369586+600237803+571663352+540683954+509240394+480018981+456188070
834+440894771+436549103+444208645+463378543+492186244+527721771+566546606
824+605380234+641545862+672789959+697013112+712719003+719923307+720607151
815+718272742+716820816+719283129+726803637+737950369+749044016+756773833
805+761871808+769290493+783199407+802307856+821223197+835229587+842165966
795+841374240+834071406+824311199+816068384+808427876+795643685+772443302
785+738185496+696622419+653532926+614241953+581496666+555099083+534095326
775+519369559+513863570+520084951+536975006+558896680+577734700+586127877
765+579307614+555141761+513804821+458896739+399894451+350943380+321572923
755+307692691+297618520+288943947+293031337+319585869+363083969+409054788
745+448744094+482776817+514249850+543715544+570328002+594186477+616175132
735+636580336+654792601+670045955+681865664+689971552+694228075+694884060
725+692949762+690258249+688836620+690005800+693878678+699449344+705090350
715+708993458+709432889+705511339+698085870+689136621+679910422+670918954
705+664160403+663573837+672139244+689509399+712756083+738221588+762608210
696+783639299+800614019+814138235+824924702+833063455+838450366+841243767
686+841688862+840081305+837170406+834302976+832969273+834138190+837806435
676+843008537+848153537+851538510+851788588+847172854+835418743+818757723
666+803978311+792692940+783764041+778172432+778098600+784608193+797240441
656+814268048+833048834+851228893+867672306+882053318+894017594+903389612
646+910794531+917160084+922808994+927552895+931384412+934664071+937670404
636+940227492+941978892+942874614+942926908+941298933+936107896+926170388
626+913586681+903389151+898679629+896469896+890364695+878261253+866625299
616+864954646+875065173+887799967+888838807+865145777+812293706+744260993
606+692412658+684001763+719494414+775394179+827057508+863979033+887526377
596+902458258+912410124+919481190+924937453+929651190+933934848+937251719
586+938684348+938002743+936051716+933998207+932660947+932373987+932726546
577+932612209+931197298+928750001+926157611+923961577+922108421+920356824
567+918719365+917361358+916106689+914366354+911752822+908871100+907430042
557+908906995+912735745+916433891+917555980+914249976+903622499+881735074
547+848167039+811266985+785716847+781592970+796573194+819777002+841248839
537+857013017+867794809+875721618+881995228+886516253+889268490+891207398
527+893116603+894351317+893912808+892440860+891920288+893802226+897903908
517+902836306+907236671+910501117+912669817+913996737+914639418+914729517
507+914481481+913895178+912611859+910317428+906900512+902011978+894863788
497+884594600+870291041+850248473+822218502+786695291+749659891+718832831
487+698046419+688175432+691483873+710683738+743132976+779965983+811634363
477+832887143+844301143+850101271+853995883+856521226+855864978+850498024
467+840375576+827495358+816351787+812178843+817146543+828769786+842913432
458+856602763+867690549+875083746+879602004+883032158+886667867+890690185
448+894238890+895857381+894515049+890159338+882982564+873220315+862555165
438+854984405+854746314+862166777+873112433+883288953+890329459+893053442
428+892159564+890552402+890761909+892598731+894558716+896422410+898784679
418+900511380+899336338+894911999+888471100+881853098+876704146+873513532
408+871293327+867918102+861842473+854288179+847980255+843150667+836423071
398+825722092+816953107+817160637+824953747+835362958+845493177+854727214
388+862669699+868108904+869342827+865537260+858884615+853684422+852987933
378+856842237+861507961+859615748+847231866
##END=
