##TITLE=X9304
##JCAMP-DX=5.0
##DATA TYPE=LINK
##BLOCKS=1


$$ === CHEMSPECTRA SPECTRUM ORIG ===
##TITLE=X9304
##JCAMP-DX=5.00
##DATA TYPE=INFRARED SPECTRUM
##DATA CLASS=XYDATA
##ORIGIN=ComPlat
##OWNER=
##XUNITS=1/CM
##YUNITS=TRANSMITTANCE
##XFACTOR=1
##YFACTOR=9.0740504e-010
##FIRSTX=3997.453
##LASTX=373.96442
##MAXX=3997.453
##MAXY=0.9743187418489879
##MINX=373.96442
##MINY=0.44297623565139665
##NPOINTS=2559
##XYDATA= (X++(Y..Y))
2559I00288278I00131286H99884698H99840228I00100282I00501563I00792294I00848653
2551I00723520I00548727I00413543I00321713I00245253I00159138I00018699H99791554
2543H99554292H99508049H99807056I00339120I00824415I01208158I01643728I01981096
2535I01832315I01310826I01012673I01121976I01285406I01289084I01070938I00281841
2527H98555194H96249846H94593550H94600250H95703594H96402043H96302330H96482115
2519H97675252H99241097I00273301I00330777H99167922H96859421H94362529H93198426
2511H93842946H95058482H95359328H94638940H94152857H94586982H95020318H94508157
2503H93629529H93940425H95989135H98707194I00832560I01831264I01539285H99628847
2495H95759822H90346497H85196313H82495727H82728981H85018762H88541354H92195255
2487H94424144H94304594H92671814H91966402H93229233H94408576H93481996H90900040
2479H88791162H87868260H87590011H88638834H91360177H93689764H93593927H91203908
2471H88086538H85407300H84083577H84883512H86503155H86867192H86202309H86919084
2463H89904818H93083671H94351560H93083277H89109940H82443046H76941569H78644174
2455H85312776H91886329H96087271H97294531H95587065H91588505H86485748H81808051
2447H79268594H79976699H82914218H86122039H88957744H91570178H93557011H94145763
2439H93310028H91864981H90078428H87014133H82717946H80414437H82146273H85413080
2431H88522436H92237229H96377607H99216399H99661362H97783504H94724661H92393892
2423H91265063H89735411H87289559H86245465H88106178H91375154H94918898H98505798
2415I01388074I02821888I03053106I02788519I02214678I01234170I00293402H99810340
2407H99152748H97726422H96705385H97930118I00935951I03415698I03708596I01573443
2399H98158117H95566765H94939720H95558951H96621503H97701002H97819698H96164519
2391H93685034H92618213H93347141H93728322H91597176H86414740H80713575H78792036
2383H80243191H81520342H81617099H82382023H84935602H87401752H87776167H85136604
2375H79951213H75380454H75768598H81310012H88122009H92967602H94696219H93596751
2367H91159307H89447111H89656390H91771049H95079371H98332121I00151649H99586939
2359H96183699H90478265H85747427H86470574H92094754H98313861I02187024I02905573
2351I01310367H99760812I00229357I02093683I03633647I03941982I02564527H98889212
2343H93031515H87546263H86655023H90813202H96312643I00580979I02732620I02329762
2335H99406957H94272604H87150631H80299485H78584399H81447364H83701936H84404655
2327H87309659H93666708I00108953I04179374I05759408I05710931I04739487I03045487
2319I00863301H98947477H97504269H95043506H89679643H81554236H75777794H78429838
2311H86593212H94143332H98787726I00977202I02034828I02822939I03158862I02478149
2303I00801359H98668044H96047268H92285772H88677195H89369075H94369952H99139742
2295I01066931H99784591H96033408H91932442H90107528H90615090H91655243H92654472
2287H94043816H95341002H95668123H95831617H97478914I00155525I01801508I01425516
2279H99918067H98691232H98012752H97445676H97277058H98280163I00045893I00711039
2271H98707588H94911738H93104493H95241355H98792324I01158433I01948712I01963229
2263I01984380I02400441I03274800I04253995I04442713I02597633H97752369H90651153
2255H85348050H85965836H90858460H95756537H98810782I00551157I01909563I02856505
2247I02729467I01399438H99742485H98759678H98262887H97184965H95247858H93815686
2239H94527798H97225428I00247618I02176055I02754625I02662332I02612675I02584364
2231I02033645I00715374H99065582H97810042H97242375H97071918H97068634H97445414
2223H98411997H99715028I00828290I01377761I01326591I00852660I00102318H99207465
2215H98510724H98382438H98662001H98765984H98482019H98307620H98826416H99876487
2207I00707164I00865995I00690413I00851938I01465125I01966448I01877442I01320285
2199I00760239I00454335I00279542I00099100I00162291I00829276I01831789I02372393
2191I02141438I01662646I01446273I01384067I01242446I01094585I01054188I01124210
2183I01355296I01743243I02100120I02346643I02700368I03319532I03962936I04191198
2175I03824271I02999966I01828045I00391012H99179351H98890066H99524930I00423199
2167I01227535I02041462I02896443I03669512I04212349I04293735I03854355I03326758
2159I03227177I03564019I03976467I04190147I04101732I03666622I02947219I02276227
2151I02135197I02625353I03288988I03734740I04103440I04646802I05247969I05664950
2143I05914100I06149522I06396111I06529849I06393024I05900766I05168816I04545053
2135I04302866I04260629I04058445I03849623I04165580I05002694I05699895I05840137
2127I05714543I05768998I06006193I06111030I05923428I05632106I05569638I05902474
2119I06494576I07001482I07076759I06579312I05701669I04908959I04581444I04637606
2111I04650021I04301618I03560472I02598356I01799406I01531863I01654632I01623890
2103I01231214I00783557I00582687I00690282I01087885I01646815I02033580I01963492
2095I01567268I01358581I01753491I02665751I03680351I04513655I05113377I05489369
2087I05748372I06147026I06824193I07562185I08011549I08110868I08164403I08509653
2079I09163041I09770120I09891706I09389858I08572778I07908024I07608757I07561660
2071I07576439I07598707I07692180I07850091I07901524I07726337I07484083I07406113
2063I07443817I07377473I07206359I07168392I07362628I07560543I07515942I07330901
2055I07319735I07593452I08011221I08456118I08891360I09244559I09474397I09661211
2047I09879751I10082461I10202668I10291148I10511462I10983357I11605806I12064432
2039I12088540I11697505I11143765I10659455I10366031I10405247I10905781I11690083
2031I12267799I12353124I12192128I12147264I12184048I12098393I11988104I12059834
2023I12195675I12170451I12106341I12283892I12682284I13020703I13093418I12917311
2015I12703435I12665468I12764918I12764458I12560040I12259063I11988170I11854300
2007I11989287I12409617I12875535I13043493I12803016I12420521I12281265I12486668
1999I12818059I13089740I13378499I13868590I14570914I15247227I15628145I15716494
1991I15788421I16016355I16183003I15944428I15351603I14894225I14953212I15395219
1983I15790655I15849838I15613300I15395285I15522521I15963608I16315165I16274373
1975I16006567I15911453I16147532I16515970I16727350I16637687I16279891I15849970
1967I15642136I15790392I16067131I16146809I16043418I16044403I16233516I16386435
1959I16380326I16391887I16512554I16436882I15819425I14789717I13830951I13254023
1951I13022214I12971766I12970255I12934259I12893336I13004412I13354786I13742602
1943I13778533I13288114I12555902I12040457I11881297I11870590I11914272I12193179
1935I12706719I13026943I12811161I12237583I11634643I11019748I10303695I09637432
1927I09273329I09262622I09428876I09550003I09512036I09320493I09004473I08581121
1919I08127290I07805687I07763516I07984880I08199677I08017461I07318158I06527679
1911I06353020I07125104I08426428I09439189I09637498I09071933I08040189I06694527
1903I05082110I03444994I02257244I01842562I02050527I02472368I02897757I03392051
1895I04042808I04784614I05403976I05685904I05637821I05468480I05303737I05155219
1887I05182085I05634668I06505414I07464049I08077499I07971218I06993205I05434586
1879I04004187I03440988I04048460I05511111I07180478I08577442I09612340I10433820
1871I11174834I11817253I12237320I12348266I12141680I11641671I10947361I10306913
1863I10017431I10209959I10708457I11090821I11000698I10473495I09858074I09443984
1855I09342958I09586722I10068207I10538460I10904861I11340497I11903697I12322516
1847I12323239I11929643I11350350I10797726I10453001I10382387I10442951I10365240
1839I09900377I08887090I07316450I05395042I03453665I01723997I00200652H98709953
1831H97058189H95119046H92904674H90652006H88739335H87405562H86638667H86399369
1823H86788827H87897360H89614679H91643222H93598525H95138817H96148491H96789858
1815H97254002H97530544H97522070H97232457H96707290H95977902H95192418H94558014
1807H94090060H93725301H93673342H94266692H95465478H96848976H98104713H99274006
1799I00529021I01893141I03230855I04438246I05520110I06458054I07175552I07714644
1791I08263065I08938129I09719344I10590943I11551615I12487391I13208958I13643086
1783I13929678I14332733I15045305I16028047I17038969I17848823I18414059I18849235
1775I19315021I19944564I20754221I21567951I22132399I22327554I22137588I21461735
1767I20197984I18556994I17075885I16215649I16049067I16362591I16926973I17595271
1759I18281765I18999526I19841961I20772416I21457728I21444394I20470385I18437378
1751I15089315I09930593I02618719H93356928H82826329H71888209H61459162H52406124
1743H45242834H39979669H36425613H34490082H33980154H34273249H34491133H34043148
1735H32937571H31662522H30814701H30700800H31208889H32055067H33052064H34074875
1727H34943453H35526096H35969417H36746690H38391951H41113754H44668139H48608435
1719H52580457H56385832H59918606H63111713H65886526H68145893H69853490H71090704
1711H71993702H72660884H73137837H73474745H73782948H74196644H74754129H75352143
1703H75861151H76266111H76669954H77197288H77902503H78724706H79486478H79986881
1695H80179869H80260664H80480452H80851912H81129176H81085626H80704248H80103935
1687H79412054H78711175H77965760H76945642H75286916H72678882H68993452H64240083
1679H58470341H51874914H45000843H38685768H33638713H30136024H28085869H27204811
1671H27187469H27949832H29709913H32667335H36668457H41313508H46282198H51382196
1663H56326648H60652723H63989816H66375434H68188064H69780972H71290063H72704106
1655H73897309H74668211H74997828H75214726H75698838H76489972H77339763H78011609
1647H78371179H78339978H77970226H77539649H77420558H77816388H78684178H79895444
1639H81359934H82962433H84526832H85954735H87324570H88774214H90326265H91864916
1631H93255770H94465067H95565454H96619992H97613769H98526686H99377332I00152043
1623I00795053I01337430I01923291I02637834I03396058I04062911I04596618I05035538
1615I05441746I05898073I06468564I07118930I07749130I08319752I08871785I09418038
1607I09881131I10166540I10286813I10399794I10685992I11212933I11951911I12840721
1599I13743719I14459443I14878723I15067310I15138186I15139172I15107051I15139369
1591I15319482I15581113I15719384I15562852I15076900I14310597I13376003I12472545
1583I11804838I11513976I11715569I12398319I13245877I13853679I14159780I14408864
1575I14780915I15323292I16078363I16986945I17774531I18118993I17909912I17362017
1567I16901092I16780885I16782002I16486542I15850824I15262729I15041758I15138909
1559I15363755I15676491I16144313I16753296I17402743I18014157I18544053
1552I18945597I19225030I19508863I19966307I20636116I21355848I21901246
1545I22194604I22361120I22583076I22899293I23147261I23192717I23206380
1538I23492446I23967428I24173094I23989433I23918754I24406348I25247798
1531I25932847I26261084I26334916I26198616I25821113I25359925I25117738
1524I25213049I25540564I26011080I26539991I26892204I26916508I26838144
1517I26956183I27183394I27206842I26929514I26482975I26020802I25724291
1510I25778088I26154080I26635631I27146413I27826141I28693471I29412546
1503I29527432I28994514I28461071I28751210I29944347I31229643I31782070
1496I31475378I30700207I29915905I29438558I29302520I29294703I29326299
1489I29670104I30613368I31919159I32827412I32741690I31883359I31060105
1482I30763594I30779031I30760967I30821268I31269449I31952331I32234128
1475I31763021I31000593I30701717I31046639I31626983I32125613I32618065
1468I33258778I33951315I34348064I34127356I33348572I32500028I32081406
1461I32191431I32575700I32959968I33214965I33231715I32817756I31879024
1454I30624601I29412480I28478018I27968353I28051907I28752064I29831628
1447I31061091I32438677I33956242I35321085I36137967I36315256I36140266
1440I35992930I36074842I36316176I36469029I36396839I36307965I36524994
1433I37011866I37383194I37424183I37332944I37344570I37358167I37113089
1426I36556721I35847237I35105369I34355487I33642784I33090094I32911294
1419I33385225I34678798I36672659I39051708I41547482I44084837I46792255
1412I49813787I52961111I55735463I57899388I59749591I61611290I63405003
1405I64868179I65839492I66125098I65365757I63295963I60081573I56172281
1398I52041822I48360201I45967030I45383401I46536207I48771336I51131139
1391I53047752I54546859I55540176I55655917I54931455I54045405I53553212
1384I53236602I52585316I51702221I51209240I51339695I51715358I51902697
1377I51761470I51364524I50829241I50226104I49600305I49021603I48501297
1370I47925617I47229138I46555979I46114103I45964599I45964599I45813979
1363I45303855I44648890I44341410I44559228I44986258I45266873I45285659
1356I44949671I44080633I42694310I41156382I39901893I39103403I38730696
1349I38825153I39495291I40627077I41860218I42980508I44105265I45358638
1342I46599529I47614721I48349166I48805493I48928787I48775146I48700854
1335I49160268I50174211I51136525I51465616I51383902I51584641I52163343
1328I52481924I52186662I51725868I51647175I51914455I52208601I52533883
1321I53085981I53688199I53932095I53947071I54445175I55738682I57147404
1314I57686234I57111342I56049316I55286362I55236768I55989146I57368572
1307I58793124I59532890I59378657I58765798I58166471I57762102I57695036
1300I58106104I58794700I59207937I59036888I58637446I58534449I58628972
1293I58490176I58372465I59031370I60372960I61311166I61232342I60694957
1286I60557015I61215067I62641524I64346559I65349993I64906606I63309954
1279I61521956I60136881I59225935I58975471I59735534I61480704I63658029
1272I65401097I65867737I65009997I63925637I63700857I64323897I65535887
1265I67780146I71179247I74498867I76245351I76322862I75840588I75521284
1258I75006299I73602832I71150476I68172231I65547776I63943833I63219700
1251I62757593I62595477I63370189I64931961I66119449I66176925I65490300
1244I64841707I64617518I64654762I64451724I63582226I62141843I60878093
1237I60757032I62098950I64143192I65781162I66582082I66707741I66212659
1230I65107279I63900282I63380830I63789665I64621393I65292648I65662465
1223I65873780I66083321I66436454I66980933I67535528I67882026I68034617
1216I68138731I68263076I68494031I69067150I70105332I71225688I71763204
1209I71536912I71005637I70577029I70289124I70181660I70307450I70418067
1202I70291488I70193484I70464179I70914595I70990135I70272899I68801775
1195I67325921I66971540I68057936I69540293I70130687I69622599I68722031
1188I68036522I67698300I67542162I67207290I66450840I65746282I66105195
1181I67842614I70005422I71437265I72058861I72727225I73957410I75159612
1174I75239356I73978364I72690638I72887239I74185803I74637861I73518753
1167I72463755I73106699I74810617I75668160I75110215I74496897I74974441
1160I75679327I75300051I74545374I75238896I77655387I80243320I81564875
1153I81370770I80204696I78871383I77952354I77329382I76433216I75162239
1146I74266204I74631029I76337444I78371571I79437670I79407782I79661794
1139I81581100I84795752I87426316I88224675I87768085I87235496I86759591
1132I85871638I85116370I85600089I87026808I87819321I87265515I86272000
1125I85900869I86270818I87061097I87966920I88469031I88042263I86868634
1118I85744600I84998462I83905432I81461353I77394544I72206131I66642120
1111I61227350I56138781I51765346I49040587I48324074I48749002I49567396
1104I50958382I53245798I56256492I59647645I63310414I67150931I70485462
1097I72158902I71953171I71466759I72458369I74536309I76105569I76972637
1090I78457884I81040891I83479583I84445444I84041666I83705415I84637250
1083I86639913I88713714I90151076I90785480I90695752I90043021I89193295
1076I88782423I89255829I90118955I90230754I89282563I88474417I89076043
1069I90721041I92268625I93299515I93882421I93976879I93671172I93340438
1062I93213663I93175827I92920174I91951751I89802869I86972026I85590892
1055I87394787I91163377I94421514I95950574I95991497I95351772I94723674
1048I94531408I94943134I95900783I97064756I97720574I97177080I95338109
1041I92627473I89877818I88708985I90149696I92558830I93749405I93408162
1034I92622809I92357631I92292404I91149448I88376806I85555816I84927717
1027I86116191I87346047I88467783I90293548I92576171I94422828I95708649
1020I97032700I98527800I99450570I99302709I98826085I99433032A001571141
1013A004231002A006069513A006308219A005001050A003184806A002435253A003330368
1006A004747958A005192461A003991573A001871265A001398713A004476342A009123889
999A012347541A013344208A013116209A012721759A012561614A013032393A014186380
992A014890873A013675993A010043243A005163559A002091382A003040492A006698597
985A010843047A013992407A014885027A013080081A009944647A007743873A006896643
978A006385270A006048362A005822662A004323292A000143305I94342098I90822593
971I91724277I95023797I98317340A000782635A002441099A003608355A004644304
964A005132752A003764756A000014098I96798789I98620156A004480941A011184751
957A017264601A021643620A023662245A023894251A023158886A020680255A014453266
950A004190473I94813139I91876802I93085376I93484030I90613314I83893542
943I72803948I56188046I35253755I13879756H89729762H51747876G96880837
936G43449518G01007817F64123625F35651103F18123924F05928887E95054680
929E86369029E80372996E75534300E73071894E76861241E85250315E94076273
922F01258875F06291479F10164905F14231054F18330578F22003265F26898255
915F35612676F47021575F57806579F67312134F77390938F89373218G01844932
908G12700090G20795609G25910190G30801763G43070373G61005070G73693879
901G81544911G90732410H05785750H23114092H37510432H48377480H56178590
894H60964736H64158172H70602584H83902938H99014149I11051080I20000201
887I27113306I33220417I38155804I41506297I44180608I47305992I49706389
880I49639257I48029796I48687585I52267325I53038030I44342789I20258219
873H76902026H16315955G46877915F79384733F24348157E90210598E79350513
866E86264324F02220992F21060855F40805884F61684998F83692022G05968757
859G27332443G46709757G63511421G77792480G89980294H00363755H08700936
852H14707874H19776474H28281091H42634340H57225705H66896528H71001041
845H68707451H55429956H24658063G76369964G23226091F81431469F57281544
838F53076136F72003691F98355314G19508079G37130042G52353906G65413320
831G77310141G87604924G94397937G97135111G97088408G95935208G96730808
824H05129932H18768245H28968899H33796691H35957593H39169684H43839367
817H47054873H47563750H46761516H46337244H46151021H46033639H47708721
810H51673058H55955714H60520561H66778948H73522039H77589899H77097182
803H72071735H64686623H62766397H73839110H87969550H96259436H98825824
796H97321397H93568177H90620083H91231759H94047364H95433555H93632222
789H90481943H90878035H96533151I03524935I08449878I10969629I12388269
782I13678689I14338120I13161535I09752516I05431170I03553838I06881669
775I12746788I16332243I15886886I12960205I11285517I12539349I13710350
768I11369202I04820085H98435907I00238093I08497764I16175317I21235049
761I24174605I26270937I29348961I34184175I39552965I43994057I46956997
754I48221996I47575703I45606409I44578737I45998034I47972057I48667682
747I48854167I50426909I53260709I55371164I56068036I56448955I56919667
740I56264177I54113916I52052332I49298802I41671631I26929186I07746503
733H90421117H79906743H76318529H77283141H81545960H88296605H95052571
726H99103811H99274663H94990562H84342646H64874028H38438785H12389519
719G92860535G81988626G80563483G87419161G97398056H05010645H08365144
712H08298210H06459830H04085970H01773987H00370389H01326791H04981086
705H09611620H13652745H17021630H19928079H22091018H23911400H27275687
698H33606855H41709863H49482925H56145155H62170025H68222353H74382472
691H80399986H86281396H92209312H98191289I03919451I08658960I11563701
684I12787054I14330631I18770476I26334194I34773453I42170194I48213654
677I53423678I58243259I62884368I67486131I72114695I76651231I80654717
670I83026672I80529518I65215006I26241444H60876847G85178777G28841403
663G13250875G34668555G72809339H10135473H39463961H60659161H76049804
656H87995627H97914287I06264146I13044219I18300092I22425362I25980338
649I29098168I31171707I31172824I28360570I23030864I16768733I11772651
642I09625543I10421077I12932748I15619540I17467904I18193416I18207868
635I18496627I20104906I23500920I28477492I34498356I40922274I47093101
628I52552538I57230761I61350973I65160354I68836917I72545864I76377119
621I80268084I84160297I88130677I92252860I96493608A000841228A005367123
614A010124761A015061856A019991594A024661868A028958844A032957010A036626084
607A039595790A041309956A041282959A039066222A033977587A024910559A010328193
600I88339956I56888729I14253646H60004393G96390287G29551347F68915617
593F23739896E98725396E92387397E99307974F13695972F31450621F50273078
586F68904451F86527004G02660763G17316238G31047301G44736259G59166428
579G74579864G90470779H05818331H19660077H31518931H41306611H48873744
572H53612662H54369638H49804988H39129418H22797284H02688349G81508915
565G61625812G44392650G30768592G22239867G20526687G26340505G38633090
558G54987623G72670542G89528894H04308320H16617918H26768847H35369367
551H42874492H49537970H55552396H60967692H65636259H69456085H72572141
544H75264582H77721930H79959226H81923988H83615492H85064874H86291643
537H87384739H88527232H89842284H91279908H92706234H94071536H95479864
530H97101805H99023870I01157447I03230264I04851746I05577849I04758930
523I01148514H92846410H78399228H58994194H39791279H27881583H27560965
516H37445336H52300237H67039988H78944166H87425465H93014765H96643968
509H99221194I01361143I03354872I05315955I07165436I08526075I08991992
502I08557342I07500111I05900503I03645865I01000324H98948331H98682824
495I00653563I04267592I08537570I12725112I16375071I19207228I21212256
488I22691854I24065696I25551271I27010112I28159174I28884883I29277491
481I29478101I29556926I29522900I29526775I29927597I30903311I32154778
474I33250436I34107913I35023326I36330167I37992637I39566496I40673452
467I41329270I41762147I42112061I41991986I40195908I35867206I30588867
460I28185186I31301373I38622641I46271489I51418650I53606419I53370406
453I50639997I42563331I21893429H83086187H34612522G99141715G94021945
446H14921291H43622469H66899812H83023259H95410104I06492605I16581065
439I25039373I31543233I36386264I40004431I42777010I45094576I47273017
432I49515040I51725474I52871054I50503303I41700730I26231394I09635790
425I00931681I04843995I17425668I30650744I39520187I43875164I45932413
418I47963321I51227304I55684490I60516486I64962703I68635784I71277646
411I72653853I72926585I72841455I73172057I74158346I75703500I77766660
404I80327399I83221302I86147326I88794838I91044943I93043271I94991873
397I96961890I98946686A000939233A002907870A004774298A006451023A007935810
390A009320556A010633506A011757147A012586313A013178283A013711464A014349809
383A015099954A015818306A016424202A017005597A017684997A018561589A019720110
376A021083113A022368803A023381564A024242786A025279259A026797744A028932635
369A031596831A034547816A037499129A040233413A042728596A045169325A047758047
362A050541859A053435630A056370982A059391661A062529000A065585609A068130977
355A069638098A069484851A067001819A061641307A052671100A038244741A015183179
348I81191642I39083829H98923041H73611636H70061258H84687174I07829268
341I31383679I51884436I68646425I81466213I90041247I94257099I94521883
334I91616419I85436988I73447942I51333586I16750012H73013426H28409246
327G91091323G64390903G46621671G34396743G25478692G19001305G14268496
320G10296540G06327342G01858266F95706160F85356989F67478782F39309536
313F00803139E56906080E17405873D92677670D88179166E02402454E29242821
306E61887907E95426599F27298945F56422753F82413295G05376195G25775137
299G44058501G60355230G74642135G87168828G98448324H08788825H18171414
292H26624795H34318967H41202366H46902939H51158204H54187488H56565617
285H58916421H61812886H65626668H70116632H74351600H77350536H78750587
278H78832302H78217998H77687116H78035782H79768275H82712888H86030800
271H88860396H90976500H92752412H94697598H97185162I00438832I04499270
264I09011107I13248636I16410608I16581591I08964929H89035780H61038240
257H39688151H37941010H54593564H77579455H96655857I09167376I16843944
250I22048582I26704077I31928024I37799189I43689139I48752681I52248076
243I53833039I53932420I53807027I54749109I56941278I59452489I61375802
236I62579055I63404083I63985478I63972472I62971403I61358790I60475300
229I61638287I64916656I69188145I73408530I77409586I81476723I85718916
222I89966692I93987060I97814112A001864565A006417588A011129377A015511089
215A019643584A023999613A028855584A034270945A040311646A046134923A047058350
208A035416262A009365026I68649972I09630863H35410421G63222792G14714708
201G00702436G16482474G48117230G82877567H14157680H39974480H60539151
194H76881794H90041841I00789929I09399051I15042152I15816338I10165949
187H98624363H84623064H73909067H71741398H78920651H90934920I02030689
180I09893808I15805040I21263295I26166364I30090238I33564288I37410980
173I41537301I45037231I47547391I49804854I52471809I55166615I57211711
166I58689207I60123613I61655694I63125571I64621919I66505229I68987472
159I71820680I74381485I76118378I76950632I77258703I77576497I78288083
152I79466901I80914640I82335646I83509274I84475463I85686664I87657272
145I90247701I92651054I94184515I94749226I94608262I94167765I93788949
138I93513064I93329272I93637737I94808410I96447101I97479174I96477055
131I90947792I75620537I42854915H89632808H27383873G80600990G69105253
124G91246344H27967764H61607351H86521876I04927286I19746978I32196095
117I42294211I50025628I56198753I61877191I67033417I70532034I71614029
110I70977063I70418461I71374994I73318736I74266467I73257516I71377425
103I70073999I69089612I67109088I63545047I58038972I49437007I36528936
96I18887465H96103693H66821382H29963662G88769816G53485494G35484321
89G38235093G57592372G86922568H20108455H52929780H82749016I07796819
82I27736938I43586996I56298203I66219293I73903350I80263223I85625641
75I89624595I92191246I93918615I95539571I97656660A000545571A003800555
68A006883965A009630270A011753074A013008220A013861296A014352568A012917966
61A008819956A005110024A005063912A007386339A010195571A014251476A019350686
54A022280586A020582316A015621574A011053508A009946224A013320036A019401200
47A024760596A026998615A026194475A024171647A022148095A020110618A018809492
40A019908762A023165257A025379104A023324942A017015713A008548143I99089621
33I91535099I92738746A002871348A014587793A023058188A027361995A028275109
26A025846466A019625126A011017381A002410620I93724707I82190149I64438258
19I37408024I03091402H76640789H73868866H94371331I28366810I64687934
12I94189508A012934519A022902444A029389553A036967459A045983252A054080807
5A060251043A065503041A070681535A073741823A072408510
##END=


$$ === CHEMSPECTRA PEAK TABLE EDIT ===
##TITLE=X9304
##JCAMP-DX=5.00
##DATA TYPE=INFRAREDPEAKTABLE
##DATA CLASS=PEAKTABLE
##$CSTHRESHOLD=0.93
##MAXX=3997.453
##MAXY=0.9743187418489879
##MINX=373.96442
##MINY=0.44297623565139665
##$CSSOLVENTNAME=- - -
##$CSSOLVENTVALUE=0
##$CSSOLVENTX=0
##NPOINTS=25
##PEAKTABLE= (XY..XY)
395.2123983815777, 0.7929530133074847
500.03575839718496, 0.6673821797163778
549.6143746207972, 0.6978899828626751
634.6062881470175, 0.7929894918974977
657.2707984206409, 0.6358209246888925
735.180052486317, 0.7603518956966904
810.2562427677872, 0.44297623565139665
859.8348589914253, 0.7894979706179404
974.573942251784, 0.8175099480350723
1005.7376438780293, 0.7204995147636029
1104.8948763252538, 0.7509329905482636
1167.2222795777948, 0.6538095472383025
1209.718236340891, 0.5375353096702808
1311.708532572322, 0.64720743875941
1375.452467716966, 0.7262601248453605
1388.2012547458949, 0.7082872385141543
1507.1899336825645, 0.7828785769804408
1522.7717844956996, 0.7676951880381405
1542.6032309851444, 0.7222356192526483
1559.6016136903827, 0.5926045773101254
1600.6810385613758, 0.5257055754227855
1684.2564201954651, 0.5200083248979458
2739.5726798123533, 0.7505940783954438
2825.981125230649, 0.753782092652032
2835.8968484753714, 0.7567577949995762
##END=


$$ === CHEMSPECTRA PEAK TABLE AUTO ===
##TITLE=X9304
##JCAMP-DX=5.00
##DATA TYPE=INFRAREDPEAKTABLE
##DATA CLASS=PEAKTABLE
##$CSTHRESHOLD=0.93
##MAXX=3997.453
##MAXY=0.9743187418489879
##MINX=373.96442
##MINY=0.44297623565139665
##NPOINTS=187
##PEAKTABLE= (XY..XY)
3993.2034043236904, 0.8165195580819491
3973.3719578342457, 0.8162181371831669
3960.6231708053165, 0.817583440584072
3949.290915668491, 0.811758696021492
3943.624788100078, 0.8133092516057432
3930.8760010711494, 0.8104927534724671
3923.7933416106334, 0.8113588089721993
3918.1272140422207, 0.8108839385074261
3902.545363229085, 0.8007810704582641
3891.2131080922595, 0.8093748086854661
3881.297384847537, 0.8054036494350555
3869.9651297107116, 0.8022218935510281
3864.299002142299, 0.8041444416462373
3852.966747005473, 0.7957411994961078
3838.801428084441, 0.7978527537093137
3820.3865134870994, 0.7988924974225625
3800.555066997654, 0.8041836016181436
3779.3070886161063, 0.8136749857441404
3767.9748334792807, 0.8120728124241888
3758.0591102345584, 0.8099662652719936
3749.5599188819388, 0.7974203225782615
3735.394599960907, 0.7943246358770881
3724.0623448240813, 0.8070887913348395
3711.3135577951525, 0.8037316794268321
3701.39783455043, 0.8164474956032924
3688.649047521501, 0.804555236611516
3674.483728600469, 0.7972319117179709
3648.9861545426115, 0.7946851841956818
3629.1547080531664, 0.8063901656760628
3617.822452916341, 0.8076880570491412
3595.1579426426897, 0.8141937247055723
3586.6587512900705, 0.8104075181948447
3566.8273048006254, 0.803369282724172
3545.5793264190775, 0.8110528583074574
3524.331348037529, 0.8140045997175154
3508.749497224394, 0.8151967520886875
3503.083369655981, 0.8151288618584048
3496.000710195465, 0.8172910202358815
3483.2519231665365, 0.816754459839464
3467.670072353401, 0.8176211115043075
3446.422093971853, 0.8156573762943327
3430.840243158718, 0.8195928926747721
3419.507988021892, 0.8186020245191928
3392.593882071931, 0.8201577042197049
3385.511222611415, 0.8218499411194967
3377.012031258796, 0.8217184535921755
3365.6797761219705, 0.8208217613760778
3355.7640528772477, 0.8180545562067896
3348.6813934167317, 0.8171932691205425
3338.7656701720093, 0.8178973192466482
3307.6019685457386, 0.8235260243947664
3296.269713408913, 0.8233848802630095
3290.6035858405003, 0.8231691710294957
3283.5209263799843, 0.8233065004304644
3255.1902885379204, 0.8260707247741963
3245.2745652931976, 0.8276870245758106
3241.024969616888, 0.8275426019896441
3235.3588420484753, 0.8276498908393587
3225.443118803753, 0.8281572454971587
3216.9439274511337, 0.827421187565672
3207.028204206411, 0.8278086177585756
3185.780225824863, 0.830179630831894
3177.281034472244, 0.8306342952012364
3168.7818431196247, 0.8311026686459231
3158.8661198749023, 0.8308582890427655
3153.1999923064895, 0.8312224143520267
3147.5338647380768, 0.831528126369243
3130.535482032838, 0.8283640140688134
3117.7866950039092, 0.8274359691937736
3100.7883122986705, 0.8250694858864149
3088.0395252697417, 0.8237091895465206
3079.5403339171226, 0.8224292983672208
3063.9584831039874, 0.8183364860453125
3046.960100398749, 0.8213424077029038
3032.794781477717, 0.8197869058537796
3011.546803096169, 0.8257544033772523
3000.2145479593432, 0.8251423831777083
2981.7996333620013, 0.8260855662910305
2956.3020593041438, 0.8043232548834197
2929.387953354183, 0.8109236946444437
2869.893613885848, 0.8312275402830976
2835.8968484753714, 0.7567577949995762
2825.981125230649, 0.753782092652032
2739.5726798123533, 0.7505940783954438
2699.909786833464, 0.7961758365288123
2629.0831922283032, 0.830372750216937
2613.501341415168, 0.827112375852839
2590.836831141517, 0.8318915956246604
2583.7541716810006, 0.8303135030196603
2545.507810594214, 0.8383685339301201
2532.759023565285, 0.8394564980545995
2522.843300320563, 0.8410176031298457
2512.9275770758404, 0.8400068873038267
2498.7622581548085, 0.8424902552691979
2484.5969392337765, 0.8432466971475031
2471.8481522048473, 0.8445795762441137
2469.015088420641, 0.8445771924910737
2459.0993651759186, 0.8445234287424537
2443.517514362783, 0.8457753654946862
2427.935663549648, 0.8420431604726991
2412.3538127365127, 0.8493247020863672
2405.2711532759968, 0.8496105664331436
2398.188493815481, 0.8505406375436377
2384.023174894449, 0.8465284100485218
2348.6098775918686, 0.8578456627997411
2328.7784311024234, 0.8631320584705696
2300.4477932603595, 0.8569001549147064
2284.8659424472244, 0.8518089647531079
2265.0344959577797, 0.8608559363719042
2257.9518364972632, 0.8632905476496661
2249.452645144644, 0.863529442896762
2228.2046667630957, 0.8667866576765108
2215.455879734167, 0.8690173024493815
2206.956688381548, 0.8697789900362229
2202.707092705238, 0.8696320049382236
2194.207901352619, 0.8716142766183556
2180.042582431587, 0.8701791756217738
2168.7103272947616, 0.8744670146941192
2143.2127532369036, 0.873463987311004
2133.2970299921813, 0.8752987975054908
2124.797838639562, 0.8717957730522413
2112.049051610633, 0.8741766205813832
2079.4688180922594, 0.8803477279995664
2073.8026905238466, 0.8803584571567593
2063.8869672791243, 0.8774348489325616
2048.305116465989, 0.8763230436480612
2032.7232656528536, 0.8826243872820155
2025.6406061923376, 0.8824185125043252
2018.5579467318216, 0.8842633958021608
2012.8918191634086, 0.884307384076285
1995.8934364581703, 0.8840540638112682
1988.8107769976543, 0.8887195576020213
1974.6454580766222, 0.8938995591245048
1966.146266724003, 0.8946114174709797
1940.648692666145, 0.8605140443009329
1923.6503099609067, 0.8815138333090654
1909.4849910398748, 0.8926192514462916
1896.736204010946, 0.897226154093612
1889.6535445504296, 0.8969466678968617
1868.4055661688817, 0.8943301427788957
1857.0733110320562, 0.9024428120574963
1844.3245240031274, 0.8971595160822844
1828.7426731899918, 0.8937283744414937
1749.4168872322125, 0.8990774146340688
1733.8350364190774, 0.9045002450044966
1715.4201218217354, 0.9000340091938821
1684.2564201954651, 0.5200083248979458
1617.6794212666146, 0.8602470149605719
1600.6810385613758, 0.5257055754227855
1559.6016136903827, 0.5926045773101254
1542.6032309851444, 0.7222356192526483
1522.7717844956996, 0.7676951880381405
1507.1899336825645, 0.7828785769804408
1497.2742104378417, 0.8081531520394183
1490.1915509773257, 0.8080278031071927
1473.1931682720874, 0.8198893065125435
1464.6939769194682, 0.8269050710048057
1457.6113174589523, 0.8152452701287712
1436.363339077404, 0.8571155066306345
1408.03270123534, 0.7951758498599861
1388.2012547458949, 0.7082872385141543
1375.452467716966, 0.7262601248453605
1311.708532572322, 0.64720743875941
1281.9613628381544, 0.8253988022309368
1209.718236340891, 0.5375353096702808
1167.2222795777948, 0.6538095472383025
1104.8948763252538, 0.7509329905482636
1075.1477065910867, 0.8154693238590329
1051.066664425332, 0.843453764255416
1024.1525584753713, 0.8422399158297375
1005.7376438780293, 0.7204995147636029
974.573942251759, 0.8175099480350723
951.9094319781075, 0.8827612393879332
859.8348589913994, 0.7894979706179404
810.2562427677872, 0.44297623565139665
763.5106903283813, 0.7964177126014647
735.180052486317, 0.7603518956966904
713.9320741047691, 0.8654893034872161
698.3502232916339, 0.871540128015512
657.2707984206409, 0.6358209228740824
633.1897562548866, 0.791022538121846
566.6127573260355, 0.9013519877923308
549.6143746207972, 0.6978899828626751
526.9498643471461, 0.8805626024204435
500.03575839718496, 0.6673821797163778
419.29344054730245, 0.8997239461694989
395.2123983815477, 0.7929530133074847
##END=

##END=

