##TITLE=X8193
##JCAMP-DX=4.24
##DATA TYPE=INFRARED SPECTRUM
##DATE=31/10/2018
##SAMPLING PROCEDURE=Diamant-ATR
##ORIGIN=ComPlat
##XUNITS=1/CM
##YUNITS=TRANSMITTANCE
##RESOLUTION=4
##FIRSTX=3997.453
##LASTX=373.96442
##DELTAX=-1.4165319
##MAXY=0.95245254
##MINY=0.39375782
##XFACTOR=1
##YFACTOR=8.8704055e-010
##NPOINTS=2559
##FIRSTY=0.94341481
##XYDATA=(X++(Y..Y))
3997+1063553187+1064434852+1064933304+1064605326+1063875185+1063182406
3989+1062637253+1062420415+1062766805+1063522882+1064259272+1064746301
3980+1064927526+1064712905+1064213310+1063868936+1063989282+1064372361
3972+1064601092+1064551301+1064457564+1064567159+1064841852+1065040413
3963+1065027444+1064912407+1064942443+1065274117+1065735007+1065843594
3955+1065306774+1064526775+1064326870+1065063730+1066159075+1066677484
3946+1066397885+1065964881+1065988668+1066302267+1066187162+1065395404
3938+1064485114+1064027449+1064048884+1064432500+1065188645+1065871346
3929+1065692204+1064755910+1064034975+1064055402+1064354756+1064351799
3921+1064132408+1064082818+1064302545+1064463477+1064196713+1063637719
3912+1063355970+1063783800+1064803887+1065930612+1066883100+1067768797
3904+1068623718+1069048592+1068757503+1068051217+1067303472+1066675199
3895+1066411862+1066759865+1067462993+1067668676+1067039194+1066343995
3887+1066164249+1066138983+1065704098+1065033694+1064424303+1063763642
3878+1063267206+1063585172+1064822097+1066267594+1067194011+1067649996
3870+1067936448+1068034418+1068123519+1068534147+1068921459+1068343986
3861+1066777873+1065469453+1065445599+1066884578+1069573720+1072709238
3853+1073741823+1071362920+1068337871+1066668345+1066462863+1067193205
3844+1068180971+1068919174+1069447058+1070121897+1070840748+1070962102
3836+1070259982+1069135408+1067803537+1066294607+1064987665+1064507288
3827+1065106399+1066445661+1068094289+1070020029+1071930113+1072603406
3819+1071650111+1070293849+1069142262+1067778540+1066085899+1064576298
3810+1063751748+1063927194+1065173526+1067044771+1068781089+1069904521
3802+1070036290+1069194270+1068519700+1068757503+1069121498+1068464600
3793+1066772027+1064938478+1063640205+1063110305+1063365243+1064128376
3785+1064785744+1064996064+1065124743+1065478323+1065570581+1064776874
3776+1063440636+1062549026+1062862423+1064562523+1066907290+1068291641
3768+1067819059+1066374233+1065303548+1065250599+1066206514+1067675530
3759+1068596639+1068129365+1067038119+1066844933+1068180231+1070515793
3751+1072173560+1071643661+1069957135+1068760930+1068060893+1066835795
3742+1065060773+1063783532+1063335879+1063641817+1064714652+1065740920
3734+1064759538+1061755454+1059376080+1059224287+1060732410+1062640008
3725+1064015421+1064416844+1063838295+1062642830+1061411079+1060731403
3717+1060991649+1062210027+1064048145+1065877931+1066745821+1066085160
3708+1064585638+1063193358+1062303496+1061971351+1061922097+1061441183
3700+1060166495+1058795986+1058164287+1058584322+1060307738+1063617829
3691+1067896870+1070809032+1069896726+1066199056+1062690942+1060481975
3683+1059379373+1059272600+1060391060+1062879020+1066244143+1068879596
3674+1068982875+1067255898+1065410792+1063756721+1062303697+1061598889
3666+1061679187+1061883527+1061673476+1061076717+1060488694+1060305991
3657+1060862500+1062191818+1063780105+1065332980+1067324840+1070064311
3649+1071807818+1069888193+1065714983+1062441111+1061056626+1060942731
3640+1061327892+1061926330+1062461269+1062321773+1061305315+1060196329
3632+1060026864+1061011270+1062116425+1061691887+1059798266+1057958334
3623+1057293642+1058431655+1061170118+1063883518+1064862951+1064522743
3615+1064032220+1063504673+1062825533+1062507163+1062981761+1063780306
3606+1063883182+1062936674+1061664337+1060977470+1060974380+1060959462
3598+1060570471+1060077730+1059534795+1058751839+1058118057+1058461692
3589+1060072355+1062036060+1062685835+1061706737+1060311703+1059229931
3581+1058541385+1058361034+1058609655+1058675103+1058162069+1057583655
3572+1057679542+1058634047+1060460137+1063210426+1065783589+1065973684
3564+1063688249+1061085923+1059658165+1059272600+1059205540+1059250695
3555+1059480972+1059639821+1059439512+1059160586+1059386496+1060231069
3547+1061018392+1060718098+1059148827+1057544346+1057311717+1058613082
3538+1060256737+1060802764+1059912363+1058542191+1057824482+1058143994
3530+1059103874+1059941056+1060163941+1059940115+1059734230+1059785163
3521+1059969143+1059865596+1059082909+1057851360+1057008802+1057026609
3513+1057469894+1057715021+1057707697+1057801300+1058262324+1059040509
3504+1059692837+1059584922+1058596485+1057390201+1056599585+1056208443
3496+1055915742+1055725916+1055901362+1056437444+1056931864+1057078148
3488+1057097097+1057458337+1058220395+1058901012+1058995421+1058465119
3479+1057641308+1056853045+1056387384+1056484816+1056959280+1057160529
3471+1056724568+1055951355+1055176329+1054376306+1053651541+1053376378
3462+1053561500+1053726732+1053653691+1053723507+1054328530+1055247220
3454+1055797345+1055697560+1055565186+1056116453+1057005913+1057117188
3445+1056049191+1054522791+1053364955+1052821616+1052593758+1052165659
3437+1051375312+1050723521+1050803349+1051500765+1052119564+1052255297
3428+1052223514+1052529386+1053114116+1053394386+1053047526+1052436925
3420+1052140596+1052371209+1052961919+1053567480+1053812943+1053555049
3411+1053030794+1052593825+1052426779+1052582201+1053073194+1053754013
3403+1054265165+1054268592+1053704961+1052789161+1051886666+1051367316
3394+1051322833+1051387609+1051122390+1050612045+1050347095+1050487801
3386+1050609491+1050307786+1049832987+1049838564+1050505474+1051260342
3377+1051537521+1051460515+1051441701+1051517497+1051433906+1051101627
3369+1050726679+1050642686+1050935857+1051194827+1051050693+1050939620
3360+1051576360+1052677013+1053118416+1052483223+1051548608+1051038666
3352+1050801871+1050445267+1049971543+1049539815+1049191947+1048902068
3343+1048456901+1047434261+1045670461+1043416205+1040768119+1037491895
3335+1033656542+1029925139+1026948067+1024745416+1022773513+1020502862
3326+1017885014+1015114096+1011943435+1007537663+1001065580+992193630+981000967
3316+967723648+952801330+937086313+921690203+907462815+894815785+884064996
3306+875568867+869412465+865185164+862080824+859220470+856091268+852731521
3296+849429763+846395306+843765900+841637366+839994046+838829356+838301473
3286+838544786+839457293+840973681+843473602+847581028+853469523+860590104
3276+868276871+876500189+885740233+896162640+907284950+918481644+929389535
3267+939743268+949275813+957998658+966220564+974032313+981037588+986868900
3257+991761297+996244141+1000341488+1003531769+1005626370+1007302548+1009503788
3247+1012493761+1015674434+1018299002+1020284747+1022101430+1023836336
3238+1024928052+1025173986+1025369053+1026312470+1027752928+1028879854
3230+1029321997+1029202726+1028764413+1028371256+1028409355+1028802782
3221+1029018007+1028835103+1028747480+1029266158+1030196271+1030974724
3213+1031411357+1031732011+1032094864+1032420625+1032652851+1032942394
3204+1033428818+1033910875+1034044189+1033939836+1034162856+1034979543
3196+1035985653+1036603981+1036610297+1036179376+1035682469+1035344076
3187+1035036457+1034650019+1034488751+1034854426+1035502320+1036006148
3179+1036350051+1036680986+1036833653+1036625282+1036277548+1036097869
3170+1036060777+1036034235+1036023349+1035941170+1035633014+1035309336
3162+1035410531+1035933577+1036374443+1036297303+1035629654+1034675889
3153+1034029675+1034029541+1034270569+1034151029+1033660372+1033106820
3145+1032504955+1031712390+1030713605+1029564907+1028544619+1028241166
3136+1028868566+1029674905+1029589366+1028360437+1026701193+1025443438
3128+1024858237+1024711752+1024683127+1024590398+1024395868+1024257850
3119+1024444988+1024936116+1025278810+1025046786+1024224588+1022986387
3111+1021394875+1019514894+1017614688+1015981381+1014567397+1013116591
3102+1011748838+1011065062+1011438397+1012604431+1014178204+1016107103
3094+1018342007+1020491371+1022112382+1023150880+1023947544+1024862067
3085+1025844860+1026354870+1025852319+1024427047+1022789237+1021584700
3077+1020905427+1020540155+1020436271+1020679988+1021182404+1021652298
3068+1021865642+1021805973+1021592697+1021356775+1021095790+1020616085
3060+1019732942+1018476464+1016976807+1015337317+1013890207+1013311524
3051+1014073447+1015852770+1017770917+1019228106+1020279237+1021116553
3043+1021546130+1021377740+1021090347+1021430757+1022346355+1022993174
3034+1022833653+1022063128+1020984717+1019590018+1017858875+1016113553
3026+1014975876+1014953365+1016047366+1017861831+1019936677+1021741130
3017+1022731315+1022887140+1022835333+1023073270+1023491895+1023885926
3009+1024361061+1025002101+1025588175+1025831892+1025697569+1025419785
3000+1025217998+1024986982+1024427651+1023524820+1022568434+1021652970
2992+1020554467+1019130069+1017447642+1015551333+1013382818+1010777266
2983+1007380830+1002810163+996950360+989876277+981616473+972189290+961574907
2973+949442590+935255116+918885889+900910434+882162572+863205399+844409561
2963+826394998+810077578+796335270+786007541+780132687+779626104+784603839
2953+794258207+807204188+821623014+835392066+846615571+854148729+857617064
2944+857181641+853371082+846900276+838450914+828637025+818211728+808161111
2934+799436116+792715546+788555170+787541535+790037424+795809403+803940932
2924+813177819+822589211+831917684+841129103+849889914+857849491+865109032
2914+872015060+878745373+885284383+891513556+897262017+902459479+907152643
2904+911288962+914722826+917500799+919956237+922511191+925444788+928754005
2894+932154271+935264389+937807651+939635622+940608605+940525686+939128300
2884+936044522+930703801+922479273+911063859+896740651+880511122+864289858
2874+850863300+843050207+842261473+847504560+855797290+863870965+869864217
2864+873802110+876947976+880800262+886201123+892925658+900096904+907051044
2854+913755420+920463425+927167868+933519672+939231780+944372463+949194372
2844+953823499+958132308+961808544+964660701+966926851+969059551+971229142
2834+973345850+975426071+977541099+979568169+981351456+982961447+984568817
2825+986176389+987606634+988695931+989429969+989887096+990131349+990261775
2815+990480427+990983247+991836556+992980482+994258262+995460917+996430742
2805+997110082+997494639+997574332+997315296+996762483+996203757+996029789
2795+996294941+996614251+996624868+996400235+996326522+996672778+997368581
2785+998160138+998844250+999299966+999469768+999451625+999460696+999614237
2775+999853383+1000044956+1000097100+1000060008+1000088163+1000256352
2766+1000582986+1001203532+1002146008+1003000795+1003284425+1003063488
2758+1002789803+1002673690+1002580692+1002364996+1002016120+1001607306
2749+1001255876+1001056442+1001002753+1001041256+1001135060+1001169128
2741+1000916206+1000311586+999666514+999341694+999268989+999059744+998529777
2731+997830480+997135482+996524613+996129372+996083612+996332973+996732178
2721+997274777+998024270+998899686+999711737+1000321463+1000669735+1000776844
2711+1000775836+1000815548+1000932602+1001086478+1001221809+1001238339
2703+1001041457+1000669063+1000245399+999835980+999500140+999415944+999727393
2693+1000271605+1000660932+1000684719+1000444766+1000095151+999706831+999442554
2683+999549595+1000017944+1000499866+1000718384+1000730076+1000657304
2674+1000439995+1000047442+999683313+999566192+999672763+999809707+999774631
2664+999434557+998858428+998354802+998219404+998499674+999067673+999778394
2655+1000514179+1001216231+1001863520+1002357067+1002544340+1002438844
2646+1002275022+1002270789+1002420163+1002534798+1002423792+1002023108
2638+1001404982+1000722483+1000176188+999988109+1000286253+1000935491
2629+1001559060+1001855255+1001865402+1001796661+1001688410+1001502482
2621+1001429508+1001710719+1002166166+1002340940+1002178597+1002086003
2612+1002234168+1002332340+1002252378+1002315406+1002712797+1003172344
2604+1003427012+1003493939+1003303911+1002603673+1001509269+1000680285
2595+1000605900+1001064707+1001598436+1002127328+1002695797+1003001467
2587+1002701912+1001983934+1001442477+1001504027+1002087616+1002723885
2578+1003040171+1003109584+1003144928+1003134042+1003165221+1003610656
2570+1004418608+1004871368+1004709159+1004758682+1005671996+1006699675
2561+1006529874+1004950456+1002913374+1001283695+1000261458+999775303+999696282
2551+999751113+999713282+999555575+999224103+998662487+998189569+998328327
2541+999127947+1000058798+1000586346+1000610402+1000463514+1000605429
2533+1001162005+1001823741+1002318229+1002709908+1003087476+1003325346
2524+1003317082+1003076389+1002570142+1001872256+1001404848+1001488976
2516+1001716162+1001323340+1000210995+999155564+998998731+999852779+1001031916
2506+1001685319+1001592389+1001204674+1000818773+1000152871+999026550+997976158
2496+997760462+998512374+999639905+1000398402+1000460624+1000106910+999962105
2486+1000478296+1001588827+1002773407+1003403427+1003166699+1002342419
2478+1001602199+1001348538+1001327641+1001104957+1000804125+1001002216
2469+1001861101+1002715351+1002747672+1001949799+1001167582+1001109593
2461+1001527814+1001603006+1000992741+1000108657+999407411+998937584+998697294
2451+998856479+999311255+999496713+999049329+998317844+997907283+998016005
2441+998387862+998607925+998356885+997676536+997023468+996834852+997124798
2431+997630507+998124592+998423878+998386988+998088643+997747158+997398886
2421+996978716+996720217+996964807+997543624+997885042+997776925+997515940
2411+997348759+997225389+997056797+996900905+996934435+997263690+997660611
2401+997677813+997212353+996643346+996251734+995892241+995420936+995073202
2391+995226944+995936859+996659876+996367444+994252886+990523365+986167318
2381+981838821+977388701+972550933+967496328+962432718+957149246+951295760
2371+944892888+938379816+932133507+926062175+920120730+915168060+912336532
2361+911522935+911710947+912791912+915679413+920627918+926840158+933526593
2351+939971529+944920303+946977812+945482792+941192462+936392256+933293427
2342+932146342+931881258+931800153+932084791+933120198+934707007+936244696
2332+937523013+938743004+939839424+940506603+940888539+941619553+943175855
2322+945615099+948919545+952942103+956891419+959707358+961198951+962208556
2312+963548557+965315784+967291114+969442092+971824556+974234772+976228311
2302+977624622+978829025+980337417+982049611+983402918+984031526+984027360
2292+983792917+983842171+984482673+985534745+986524325+987142048+987368898
2282+987355862+987402294+987800155+988393822+988524248+987724561+986277249
2272+984857016+983919311+983618815+983916690+984519093+985069890+985506859
2262+985832351+985669134+984691717+983313347+982200598+981397619+980644229
2252+980033225+979682333+979553453+980117353+982055189+984813676+986720735
2242+987085402+986968886+987317830+987491999+986473324+984760860+983895524
2232+984388130+985283637+985668328+985506456+985168465+985165912+986089103
2223+987931992+989673416+990052261+988786241+986908075+985767441+985705420
2213+986070020+986357144+986688415+987255338+987858346+987926482+986940732
2203+985163896+983583202+982823092+982751059+983119153+983766577+984314887
2193+984295267+983476026+982001500+980320887+978849049+977941312+978382178
2183+980824043+984301852+986839939+987810234+988051599+987716833+985856340
2173+982455334+979368130+978522750+979955010+982151412+983834376+984809913
2163+985671688+987116715+988626922+988235242+985558599+983245278+983377652
2153+985487775+988172953+990263320+991030351+990735230+990224146+989530559
2143+988089631+985917218+983265571+980238103+977910470+978184894+981307846
2133+985077685+987444627+988369162+988645132+988424665+987376155+985517408
2123+983622578+982804950+983327122+984053566+983767316+982516079+980556943
2113+976526388+967911391+952989409+931479230+904209638+873569548+844072108
2104+821371907+809950109+811089937+822521276+840087582+860027280+879763175
2094+897430273+911920796+923188113+931693179+937803552+942048929+945231752
2084+947824402+949878887+951764646+954192937+957154891+959625111+960860087
2074+961401410+962169448+963207476+964156067+965302883+967086573+968993633
2064+969919243+969410443+967928929+966272036+965203233+965230783+966248786
2054+967245287+966654913+963838436+960507314+959750699+962774606+967459908
2044+971056249+973138150+974801561+975865862+974660922+970957405+967321486
2034+966260949+967420666+969079306+970713823+972265288+972907940+972604085
2024+973171949+975775753+978527185+978552719+975839589+973231081+972959277
2014+974715283+976602050+976701229+974737121+972839737+973025666+974128671
2004+973518406+971143266+969343786+969621234+971359365+972959008+973371048
1994+972873671+972561953+972965728+973488572+973265283+971768986+968840630
1985+965231253+962706067+962658090+965103919+969469978+974996561+979796968
1975+981640125+980313495+977383796+974206818+971708981+970742986+971066328
1965+971251383+970613367+969918840+970130571+971354326+972636808+972439927
1955+970016004+966532080+964250140+964577312+967034026+969812269+971451826
1945+971989184+972081106+971697490+970828122+970398948+971032865+971970705
1935+972101534+971301712+970182379+969299706+969026424+969465274+970272353
1925+970993758+971440066+971504506+971025003+970144212+969449013+969341904
1915+969450155+969211815+968693674+968335525+968125138+967652690+967062248
1905+967004729+967467031+967607737+967023947+966365370+966347630+966819540
1895+967084288+966768338+966113187+965422826+964624684+963766806+963550640
1885+964464626+965716468+965870412+964556616+962739799+961304044+960214545
1875+959080295+958004504+957674845+958612013+960125311+960276163+958197084
1866+955483887+953875105+953638982+954080184+954404736+954267255+953940620
1856+953993906+954715244+955940880+957345052+958668994+959852633+961148421
1846+962700490+963776684+963430765+962254517+961591034+961778642+962045608
1836+961590765+960708630+960429233+961156417+962145124+962597346+962812571
1826+963194238+963281189+962627314+961639078+960943678+960727915+960795849
1816+960908938+961099100+961548298+962078130+962074434+961289665+960321453
1806+959937769+960397719+961428019+962449785+962909735+962757740+962429425
1796+962282470+962374661+962497225+962057501+960629877+958829859+957528831
1786+956834102+956279004+955689234+955297085+954960908+954297896+953618756
1776+953744545+955028506+956808098+957498660+956216312+953942569+951830900
1766+950258001+949360478+949148680+949142296+948714802+948004551+947439912
1756+946919689+946433265+946604544+947866600+949500311+950032898+949156071
1747+947841268+946677921+945641238+944643393+943645615+942659126+942039051
1737+942347005+943575262+944336849+943102949+940653088+938232860+936261696
1727+934933924+934226832+933822385+933554009+933747530+934890247+936857312
1717+937988271+936543042+933468134+930707362+929263342+929173906+929994961
1707+931204470+932285166+933050584+934005626+935705591+937533092+938014275
1697+936941104+935012878+933170393+932393283+932994342+934552929+936380967
1687+938475098+941525749+944951146+946154137+944959881+943333226+942324025
1677+942254814+943008607+944027081+945047503+946432525+948082497+948812436
1667+948130340+947157492+946855921+947096344+946967666+946186256+945553951
1657+945926682+947840394+951321563+953986985+952990215+951120381+950712105
1647+951238980+950848040+949005420+947076320+946016186+946165224+947607631
1638+949863567+951133887+949488014+946279523+943653275+941890416+940366905
1628+938456015+935957034+932421035+926351181+916911768+905123759+890510739
1618+869949017+844520231+824246507+815091329+814888535+820777769+830526748
1608+841647109+852201621+861582507+869912530+877183494+883282108+888476815
1598+893270099+897850376+901957801+905170526+907276013+908423837+908965697
1588+909221643+909391243+909536249+909570922+909419935+909259675+909456153
1578+910141474+910705441+910198657+908998219+908095926+907544524+906676029
1568+905290402+904205808+904103538+904993535+906827890+910455476+917407466
1558+925015076+927705831+927595228+927675190+928591662+930027147+931400948
1548+932592718+934327221+937338227+941351848+945273278+948006097+948293422
1538+946521895+944969019+944562087+944873065+944916070+944382744+944088026
1528+944602068+945514441+945988501+945737730+944564909+941858834+937505340
1519+930468148+916670875+892166288+858109133+820334484+787107926+767901123
1509+772387931+806990777+851953672+878575303+890913169+899057130+906399925
1499+913084815+918135456+920327422+919971759+918406856+915302718+906955762
1489+886944568+851228975+800264697+735488094+660098855+585203365+530819066
1479+513041567+532664474+578031312+633256354+683286622+714965614+724926190
1469+721651243+713505669+704201454+695113605+687183795+680795235+675634529
1459+671389219+668466306+667751822+668727224+670315377+672365360+675276044
1449+679588952+685579717+693011680+701805483+712401320+724536863+736771383
1439+748532716+761429981+776528618+791286040+803798009+815518017+827675331
1429+839148801+848235776+855140728+861020152+866179246+870422674+874195200
1419+877918002+880714857+881883848+882274116+882591209+882597525+881689453
1409+879508775+876020887+870918707+863316943+852791257+839626423+823042239
1400+801682241+776968006+753434722+735565234+726776605+728103369+737339785
1390+751588272+767912412+781518986+787577148+785628898+779027935+772100538
1380+768469861+769636231+774478232+779986067+782500973+780092437+774178005
1370+767921953+764397847+765389846+770312078+776417142+779701631+777322124
1360+770325382+761791355+753918728+747838458+744022121+742335393+742450297
1350+744366092+748374674+754658813+762913712+772221288+781294286+788225982
1340+788903711+776288934+743937254+690950946+624238792+558824980+513660432
1330+501576865+521380628+560325208+603962112+643688706+677284971+705411903
1320+728757041+747402430+761484543+771692060+778811231+783093431+784462998
1310+783146649+779783273+775095216+769552304+763150843+755688038+747591853
1300+740364902+735966589+735764399+739969459+747745259+757645427+767803825
1290+775620613+777731946+771522057+757595702+740290248+725144910+716268121
1281+715850236+724401330+740137648+758863604+775875752+788316561+795655325
1271+798548403+797769076+794017112+788310178+782202426+777292625+774398875
1261+773340420+773570898+774842428+777084455+779828831+782097400+782801536
1251+780962880+775574114+765662120+751013688+733352907+716781154+706197815
1241+704485016+711039884+722727504+735798803+747159252+754768475+757744136
1231+756560094+753098479+750041848+749669453+752784746+758467826+764836429
1221+770296959+774297746+777118590+779214132+780790996+781733270+781702226
1211+780274535+776912570+770650942+759879927+742908566+719438849+691888382
1201+665067451+644059219+631907214+628711019+632259047+639498698+648210389
1191+657984633+669582616+683172525+697370079+710116222+720143791+727374841
1181+732411103+736167569+739712775+743869925+748838252+754324652+759984214
1171+765583435+770820609+775289544+778802428+781598074+784012254+785966351
1162+786773160+785162161+779482576+768628172+753631200+738360140+727896005
1152+725526711+730965000+741223586+752969263+764124632+773881473+782014414
1142+788475141+793298999+796493111+798015077+798086572+797525360+797483430
1132+798674931+800945449+803616448+806015509+807576179+807741882+806021893
1122+801899214+794499975+782811749+766913021+749191899+733967069+725249398
1112+724340586+729463126+737717219+747246471+757514867+768118902+778071414
1102+786268258+792160448+795747315+797029932+795534979+790345177+780742817
1092+767205790+752163999+739804361+734457256+738127780+749100245+763152187
1082+776326294+786678214+794098619+799393783+803522845+806979689+809611984
1072+811156931+811839430+812264303+812827733+813455535+813964134+814472262
1062+815187485+815926428+816241640+815945847+815149991+813977035+812658805
1052+811752009+811861335+813128229+815072246+816915739+818148229+818849677
1043+819380920+819783956+819571485+817991195+814366833+808412219+800576683
1033+792104878+784535300+779059583+776348200+776687064+779907987+785274377
1023+791768836+798478722+804652661+809733809+813589119+816497854+818781542
1013+820555488+821806591+822554000+822917189+823037132+822933249+822550977
1003+822041840+821867671+822476592+823897899+825700404+827308648+828371537
993+828921999+829225787+829456266+829548726+829372608+828920319+828293659
983+827675196+827336399+827456544+827927110+828508010+829092606+829650728
973+830071234+830234719+830161275+830029438+830104159+830559203+831313064
963+832124779+832849207+833508995+834181146+834888305+835545001+835996686
953+836137392+835917396+835212857+833852226+831859426+829554639+827322087
943+825266795+823034310+819939445+815578157+810701282+807283881+807088814
933+810069112+814636957+819376754+823877606+828053571+831564843+834182825
924+836158357+837907979+839545923+840885858+841781768+842329810+842776387
914+843322951+843946520+844282361+843784110+842166929+839624877+836497020
904+832751707+827775451+820605481+810462672+797278016+781791125+765059247
894+747778184+730057667+711782119+692968272+673816637+654915235+637678118
884+624258346+616796145+616829138+625103255+641226616+663277311+688196490
874+712965960+735472169+754505810+769543502+780780580+789027282+795229712
864+799998470+803499596+805746595+807025248+807925190+808884465+809974837
854+811257656+812965281+815129026+817419970+819583849+821707546+823908919
844+826060098+827995313+829780817+831561752+833283287+834814256+836234489
834+837692082+839052175+840003857+840442640+840417307+839807782+838490694
824+836855975+835686850+835256130+834746591+832628472+827212492+816700044
815+799309588+774045026+741446471+703476286+662751779+621921373+583459589
805+549589370+522207395+503106491+494433874+498361117+515282451+541794823
795+570572202+592969623+603584342+604214630+603404528+610690812+630112706
785+658364621+688313208+714136764+733838727+748186058+758529779+765807463
775+770634681+773394377+773862457+770567284+760627807+740855492+709781255
765+669328955+625595122+588697368+570334735+578027011+609422843+652699011
755+693938702+724862355+744464869+755329418+759988850+760087022+757086230
745+752900858+749826085+749507043+751566232+753277688+750875401+741395538
735+723650830+698201617+666895221+632221687+596576715+561875194+529703495
725+501393322+477839746+459709372+447969004+443900585+448484355+461910948
715+483560488+511994905+544889587+579309225+612247921+641298851+665402552
705+684817794+700096178+711468117+719318704+724640544+728595370+731777186
696+734082443+735188404+735013899+733816619+731945576+729409773+725779835
686+720697478+714286071+707033183+699676613+693153058+688087702+684126492
676+680081827+674915409+668263579+659804407+648964182+637083577+628780230
666+624785154+620840811+614928126+607978891+601396877+595426001+589741241
656+584502925+580155613+576670077+573496930+570509711+568546610+568465708
646+570179448+573098464+576944702+581873721+588151006+595714671+604057327
636+612754100+621978354+632245205+643678291+655650953+667140953+677214820
626+684913681+688808569+687128359+678695057+663946035+645114314+625378822
616+607653063+593710313+583902538+577201454+571537726+565022101+557450373
606+550251912+544811238+541245101+538792385+536759737+534829831+533041639
596+531864921+531859243+532977267+534516199+535912107+537241626+538826150
586+540696219+542652130+544867043+548235929+553738255+561433992+570387954
577+579591108+588969306+599521668+612040490+625780580+639033709+650962963
567+662053959+672774779+682862690+691925340+699884514+706714612+712256045
557+716659531+720885892+726192882+732669870+738528128+741620977+741909243
547+741506611+742085361+743481202+744987847+746569011+748383745+750257140
537+751936477+753207066+753895747+754199401+754536988+754776404+753935997
527+750397914+742038862+726986723+705456588+681708012+664586739+663297939
517+678889251+702164237+722725152+736547691+744840892+750025855+753629655
507+756329078+758718732+760898133+761331876+758363472+753608556+750738928
497+751014427+752755113+754302545+755575553+757008620+758904593+761736054
487+765461409+768763973+770258187+770431147+771090397+772899352+774621962
477+774808025+773554637+772078095+771125607+770750390+771138844+772313681
467+773396460+773486501+772891826+772390283+772039257+771793928+772243798
458+773443833+774014116+772920384+770326525+766367734+761171885+755860729
448+752404086+752401600+756007079+761783157+767489890+771554244+774010017
438+775819241+777796251+779805918+780544995+778761372+774865275+770516686
428+765621669+756064061+736314390+706211859+671258659+634115442+596113943
418+570116217+568919408+587891969+617385243+649994213+680385212+705782819
408+724731190+736600506+743259593+748532313+754713375+760091659+760710726
398+757856755+761034673+772341298+782333120+784843859+781646656+776438376
388+770796217+766270503+766384130+773039991+782776875+790643925+793866864
378+790866677+781406098+771064392+770018167
##END=
