##TITLE=X8229
##JCAMP-DX=4.24
##DATA TYPE=INFRARED SPECTRUM
##DATE=31/10/2018
##SAMPLING PROCEDURE=Diamant-ATR
##ORIGIN=ComPlat
##XUNITS=1/CM
##YUNITS=TRANSMITTANCE
##RESOLUTION=4
##FIRSTX=3997.453
##LASTX=373.96442
##DELTAX=-1.4165319
##MAXY=0.93667519
##MINY=0.55475497
##XFACTOR=1
##YFACTOR=8.7234675e-010
##NPOINTS=2559
##FIRSTY=0.8887009
##XYDATA=(X++(Y..Y))
3997+1018747306+1019737497+1020497223+1020464836+1019900798+1019298771
3989+1018836745+1018599993+1018821645+1019543244+1020392683+1020998195
3980+1021301019+1021299994+1020915998+1020275912+1019728888+1019465967
3972+1019398665+1019397982+1019373179+1019217394+1018949895+1018779488
3963+1018825608+1018964175+1019115724+1019435630+1019970833+1020403752
3955+1020410653+1020141172+1020131675+1020751808+1021748013+1022401900
3946+1022351953+1022037855+1022092107+1022534864+1022777288+1022464283
3938+1021856584+1021344885+1021127947+1021431523+1022431007+1023587370
3929+1023908916+1023298621+1022621503+1022503366+1022683748+1022569233
3921+1022000207+1021206387+1020440443+1019821198+1019377142+1019173733
3912+1019338196+1019981151+1021083808+1022459773+1023907549+1025339678
3904+1026588145+1027213404+1026956153+1026149146+1025277091+1024611657
3895+1024366842+1024699388+1025376165+1025699351+1025400353+1025154991
3887+1025462598+1025798903+1025357102+1024454505+1023839291+1023423181
3878+1022880119+1022621503+1023120220+1024134736+1025109007+1025899070
3870+1026521663+1026876758+1027173843+1027481245+1026954172+1024776666
3861+1021921016+1020212369+1020322101+1021852416+1024375178+1027418384
3853+1029102913+1027931450+1025736179+1024303230+1023997126+1024557269
3844+1025434584+1026079931+1026418353+1026733203+1026995441+1026948296
3836+1026738806+1026474176+1025719780+1024323864+1023112499+1023029277
3827+1023972118+1025083316+1026053557+1027529962+1029659844+1030804933
3819+1029770329+1027817071+1026257375+1025196739+1024257382+1023274297
3810+1022344164+1021772064+1021939191+1022860715+1024082397+1025245456
3802+1026047407+1026185496+1026091615+1026356791+1026650049+1026274389
3793+1025268892+1024273644+1023683574+1023527516+1023770964+1024252463
3785+1024506092+1024277060+1024026164+1024198280+1024351263+1023718694
3776+1022472345+1021529504+1021591340+1022772915+1024422938+1025359698
3768+1025145220+1024565809+1024363835+1024642540+1025336740+1026305887
3759+1026959365+1026631465+1025702015+1025329908+1026332945+1028693020
3751+1030968370+1031134404+1029733227+1028695753+1028433242+1027697294
3742+1025745540+1023633900+1022261489+1021901270+1022614465+1023638820
3734+1023287142+1021423666+1019895742+1019760455+1020624857+1021740975
3725+1022562058+1022755765+1022367259+1021851050+1021635000+1021814495
3717+1022372178+1023423181+1025091789+1027069713+1028212205+1027529210
3708+1025628086+1023582724+1021997884+1021348096+1021767213+1022438045
3700+1022318473+1021616689+1021218822+1021572960+1022835434+1025195167
3691+1028389376+1030922523+1030714536+1027924276+1024739769+1022512726
3683+1021594414+1022039222+1023664306+1026074943+1028736408+1030580957
3674+1030526091+1029464635+1028734973+1028013852+1026638161+1025287613
3666+1024635776+1024234493+1023518906+1022626559+1022110282+1022324349
3657+1023415391+1025297316+1027386134+1029194812+1030974930+1033132894
3649+1034642096+1033266542+1029603680+1026241182+1024408931+1023819203
3640+1023706600+1023655970+1023593793+1023352052+1022752007+1022017220
3632+1021689525+1022091697+1022904444+1023214989+1022659287+1021850776
3623+1021611701+1022692494+1025169271+1027706450+1028619842+1028023828
3615+1026976925+1025948880+1025255227+1025382519+1026326932+1027167898
3606+1026830501+1025455492+1024230188+1023948135+1024227592+1024203336
3598+1023771989+1023364625+1022955757+1022245910+1021431797+1021089001
3589+1021604253+1022819650+1023914382+1024272004+1024096678+1023626931
3581+1022951589+1022425336+1022325716+1022266340+1021822216+1021424896
3572+1021807662+1023060092+1024930948+1027239846+1029112478+1029057954
3564+1027176507+1025042525+1023719446+1023270265+1023351028+1023719719
3555+1024151339+1024317510+1024062993+1023635199+1023413752+1023612241
3547+1024190080+1024676362+1024473227+1023794058+1023594681+1024301043
3538+1025188745+1025218535+1024235586+1023069248+1022619179+1023150898
3530+1024160632+1024732185+1024408931+1023703252+1023408627+1023696624
3521+1024091212+1024055135+1023442244+1022629975+1022256842+1022573810
3513+1023077379+1023027090+1022319635+1021684264+1021890474+1022919886
3504+1024064632+1024584258+1024252668+1023391955+1022476445+1021837248
3496+1021561822+1021521988+1021618055+1021907624+1022372178+1022766970
3488+1022916948+1023029823+1023439716+1024053290+1024297148+1023790710
3479+1022880393+1022213728+1022091423+1022415634+1022872330+1023076832
3471+1022875063+1022441461+1021880294+1021090778+1020217425+1019704837
3462+1019697800+1019925943+1020268943+1020903221+1021830142+1022659697
3454+1023008710+1023034606+1023379315+1024345182+1025257413+1025124312
3445+1023908847+1022483482+1021484545+1020888599+1020405323+1019872716
3437+1019449910+1019533610+1020245370+1021109909+1021564692+1021632746
3428+1021758467+1022148066+1022525025+1022428343+1021671419+1020614540
3420+1019937900+1020063826+1020835987+1021688159+1022031637+1021646001
3411+1020837627+1020206014+1020266620+1021157806+1022470637+1023436368
3403+1023555940+1023032830+1022437089+1022051657+1021699569+1021121661
3394+1020371228+1019780202+1019597018+1019774531+1020137551+1020561997
3386+1020914973+1021057161+1021113872+1021503950+1022353457+1023091796
3377+1023051551+1022330772+1021597079+1021246768+1021139153+1020969088
3369+1020613173+1020251178+1020147458+1020257943+1020396851+1020840975
3360+1022060745+1023689792+1024553306+1023999995+1022553449+1021077249
3352+1019995021+1019460432+1019583352+1020223028+1020939570+1021274645
3343+1020970386+1020125935+1019238302+1018755232+1018564327+1018319033
3335+1018125737+1018444755+1019438909+1020727348+1021669915+1021877492
3326+1021589017+1021395105+1021525951+1021682761+1021534492+1021080255
3318+1020587278+1020368017+1020568009+1021092486+1021692190+1022036284
3309+1021880840+1021380210+1021051831+1021245333+1021806227+1022280279
3301+1022335077+1022024395+1021673332+1021457351+1021288515+1021148992
3292+1021183224+1021374675+1021484818+1021370371+1021075199+1020660866
3284+1020263135+1020269831+1021037278+1022304398+1023195447+1023082708
3275+1022267228+1021551778+1021369278+1021617714+1022066894+1022497148
3267+1022613918+1022301460+1021950465+1022120121+1022785692+1023283042
3258+1023109287+1022448909+1021774182+1021229959+1020635243+1019973293
3250+1019660698+1020180802+1021432207+1022599775+1022891803+1022449866
3241+1022239761+1022844863+1023683096+1023831160+1023342350+1023078267
3233+1023435069+1023945266+1024023295+1023591333+1023085100+1023125549
3224+1023961186+1025069583+1025626309+1025455014+1025136133+1025089671
3216+1025104361+1024981168+1025019568+1025428230+1025770206+1025541311
3207+1024970304+1024726787+1025035829+1025489792+1025658286+1025556479
3199+1025478177+1025644826+1026103230+1026681548+1026983143+1026780964
3190+1026397924+1026259084+1026232231+1025966713+1025630956+1025675641
3182+1026098926+1026511141+1026713457+1026764633+1026628595+1026181259
3173+1025539261+1025048948+1024933407+1025192366+1025751211+1026432224
3165+1026933537+1027106404+1027081533+1027019766+1026933537+1026644037
3156+1025802456+1024396496+1023242046+1023254208+1024267631+1025321504
3148+1025861695+1025946557+1025700171+1025233430+1024722209+1024231760
3139+1023856167+1023954763+1024722688+1025687940+1026120107+1025856161
3131+1025443808+1025523409+1026196496+1026930326+1027085633+1026556920
3122+1025823705+1025426863+1025524434+1025877069+1026102205+1025939109
3114+1025383749+1024628260+1023893269+1023344605+1023173856+1023568648
3105+1024396632+1025094932+1025207398+1024909903+1024662697+1024571207
3097+1024482109+1024419248+1024480401+1024527205+1024356866+1024053837
3088+1023959068+1024340194+1025120896+1025850558+1025981950+1025271215
3080+1023879399+1022016059+1019597496+1016473937+1012879607+1009290606
3071+1005913760+1002822383+1000549698+999915010+1001197777+1003887393
3063+1007161202+1010295078+1012845922+1014693068+1015743387+1015754251
3054+1014845642+1013873966+1013722964+1014380131+1015103985+1015398815
3046+1015494063+1015789644+1016129502+1016003986+1015416034+1015040988
3037+1015391094+1016289591+1017303903+1018225426+1018984673+1019491726
3029+1019731211+1019801998+1019753828+1019429617+1018606826+1017465700
3020+1016703447+1016759475+1017140806+1017088673+1016654798+1016441345
3012+1016587291+1016778811+1016984885+1017490025+1018383807+1019472868
3003+1020533368+1021450177+1022220493+1022853472+1023273545+1023470326
2995+1023662256+1024087249+1024714625+1025313988+1025703450+1025898182
2986+1026054445+1026172309+1025945737+1025065825+1023454133+1021031607
2978+1017649636+1013471863+1009093347+1005220721+1002493116+1001409590
2969+1002016400+1003754634+1005845843+1007807778+1009600468+1011407233
2961+1013314780+1015163839+1016677483+1017700949+1018299219+1018619193
2952+1018691278+1018466209+1018070802+1017849492+1018002476+1018264167
2944+1018078933+1017117234+1015529456+1013705814+1012006732+1010760793
2935+1010047667+1009185109+1006924108+1002593557+996817142+991038063+986707102
2925+984742775+985241424+987663745+991341776+995555762+999291597+1001510236
2915+1001768101+1000355376+997953622+995363695+993415699+992841890+993984656
2905+996505572+999483595+1001963584+1003430081+1003852409+1003527379+1002954732
2895+1002662908+1002951452+1003772945+1004892070+1006133499+1007429658
2887+1008723972+1009953717+1011068127+1012001266+1012727306+1013329607
2878+1013830852+1014025447+1013720436+1013077481+1012497592+1012200712
2870+1012051965+1011809951+1011437912+1011070382+1010760793+1010514065
2861+1010497804+1010850848+1011311507+1011425408+1011162077+1011045033
2853+1011611325+1012855078+1014244913+1015268379+1015858244+1016259801
2844+1016684315+1017190890+1017740852+1018304548+1018933906+1019624417
2836+1020171509+1020414616+1020515466+1020721266+1021011997+1021237407
2827+1021425374+1021735099+1022157769+1022412354+1022194733+1021487825
2819+1020535828+1019617721+1018970734+1018732479+1018800601+1018965883
2810+1019235979+1019797420+1020713204+1021848590+1022951384+1023688084
2802+1023807245+1023371116+1022731509+1022277750+1022203958+1022422330
2793+1022703153+1022926308+1023135798+1023387036+1023660616+1023910351
2785+1024110206+1024255401+1024352015+1024402303+1024369780+1024201423
2776+1023941918+1023728670+1023564139+1023273408+1022853130+1022588569
2768+1022678214+1023073143+1023747255+1024685586+1025585928+1026023288
2759+1025936718+1025647149+1025452213+1025394545+1025337902+1025163259
2751+1024926233+1024817799+1024947209+1025235958+1025552038+1025826985
2742+1025988168+1025923736+1025652547+1025415385+1025438479+1025685822
2734+1025949495+1026091546+1026105212+1026029232+1025912462+1025814276
2725+1025761050+1025719165+1025673933+1025710010+1025931183+1026314087
2717+1026718171+1027006715+1027110982+1027050718+1026954172+1026991000
2708+1027244424+1027651652+1028027449+1028156997+1027941904+1027473182
2700+1026931487+1026455933+1026142245+1026081092+1026270153+1026532254
2691+1026686673+1026793057+1027003436+1027208143+1027150065+1026879901
2683+1026746527+1026898212+1027115218+1027165575+1027030356+1026738191
2674+1026275687+1025774647+1025517191+1025591053+1025765081+1025825687
2666+1025806555+1025823022+1025915537+1026064626+1026196633+1026230386
2657+1026193080+1026220821+1026471648+1027032543+1027724556+1028098441
2649+1027933910+1027578952+1027486574+1027692648+1027987751+1028236324
2640+1028334305+1028179134+1027817413+1027428155+1027160177+1027122939
2632+1027436081+1028098372+1028871148+1029508159+1030038989+1030508258
2623+1030582119+1029962053+1029091570+1028753421+1029026455+1029350665
2615+1029518203+1029820002+1030266176+1030453665+1030325689+1030412942
2606+1031089445+1032055039+1032784154+1033127428+1033201085+1032993644
2598+1032469236+1031919752+1031786788+1032095352+1032429607+1032513307
2589+1032442316+1032287350+1031916131+1031385437+1031153468+1031644669
2581+1032686857+1033573260+1033784595+1033492088+1033146286+1032888285
2572+1032752793+1032972326+1033543607+1034058791+1034532227+1035656134
2564+1037575297+1039161503+1039252104+1038034453+1036507281+1035199506
2555+1034213141+1033946325+1034780663+1036262261+1037375441+1037554867
2547+1036990214+1036222221+1035824560+1036156833+1037091270+1038110295
2538+1038742660+1038863325+1038688955+1038523741+1038432046+1038295598
2530+1038150471+1038099841+1038010197+1037795651+1037748505+1037973368
2521+1037912626+1037169299+1036382858+1036508989+1037551382+1038638871
2513+1039148384+1039307107+1039824819+1041098294+1042621024+1043286459
2504+1042563288+1041092759+1039777264+1038757145+1037766612+1036950038
2496+1036707683+1037095096+1037778637+1038291293+1038226519+1037579055
2487+1036917651+1036880140+1037582539+1038689023+1039710714+1040110152
2479+1039644505+1038805930+1038402666+1038583390+1038776755+1038639418
2470+1038499963+1038733436+1039136085+1039154807+1038598217+1037963051
2462+1037922602+1038498801+1039029701+1039058124+1038827658+1038708428
2453+1038709521+1038820006+1039185417+1039667736+1039839168+1039603031
2445+1039255247+1038935751+1038572116+1038208686+1037901899+1037505535
2436+1036954343+1036548618+1036696546+1037484080+1038572799+1039434537
2428+1039706272+1039436655+1039016513+1038806887+1038812353+1038849728
2419+1038985766+1039404746+1039825844+1039632616+1038766506+1037941870
2411+1037840746+1038492789+1039446972+1040204579+1040527833+1040497428
2402+1040289031+1039954230+1039490701+1038976816+1038557836+1038392417
2394+1038594459+1039116476+1039746448+1040238880+1040251452+1039157267
2385+1036368372+1032041989+1027012386+1021791810+1016136676+1009836605
2377+1003332101+997127278+991054257+984505613+977154813+969318756+961691848
2367+954739120+948575566+943513713+940089516+938395354+938163999+939606173
2357+943380339+949694622+958052968+967504544+976427338+982724607+984798120
2347+982235593+976298337+970023274+966312788+965511930+966028207+966587530
2337+967286581+968765788+970820237+972561614+973786781+975129607+976800334
2327+978245240+979186715+980143973+981890747+984889815+989192420+994359838
2317+999349743+1003052713+1005239853+1006673417+1008195191+1010073084
2309+1012284071+1014928385+1018026185+1021132320+1023555325+1025066918
2300+1026188092+1027620016+1029508295+1031322440+1032401046+1032654949
2292+1032770489+1033541898+1035006756+1036494299+1037467887+1037954647
2283+1038157031+1038151291+1038096630+1038281932+1038708018+1038946820
2275+1038608261+1037677240+1036383199+1035146758+1034630139+1035324203
2266+1036988301+1038799029+1039966392+1040030756+1038961237+1037349613
2258+1036110985+1035629077+1035586304+1035760469+1036202407+1036549302
2249+1036423785+1036623026+1038346023+1041081349+1042958969+1043384644
2241+1043566599+1044234630+1044551803+1043730788+1042399441+1041687749
2232+1041848590+1042442282+1043146662+1043704277+1043810184+1043692593
2224+1044049942+1045020114+1045933848+1046214466+1045907748+1045439367
2215+1045287955+1045696618+1046562045+1047616737+1048547279+1049039710
2207+1049065470+1048943985+1048917406+1048893696+1048527260+1047414763
2198+1045679331+1044263395+1043969658+1044435374+1044590339+1043730036
2190+1041931880+1039858641+1038159012+1036923118+1036127521+1036438749
2181+1038632790+1042296336+1045925034+1048175992+1048454833+1046798934
2173+1044081578+1042071267+1042230947+1044277197+1046603929+1048197241
2164+1049453839+1051336447+1054120695+1056363795+1055606256+1051616928
2156+1047240120+1044955341+1045272582+1047476872+1049914840+1050868067
2147+1050244038+1049335087+1048956352+1049018051+1049052214+1048196626
2139+1045994386+1043772126+1043725049+1046284160+1049659434+1051992111
2130+1052776775+1052402891+1051399512+1050122553+1048777472+1047800536
2122+1047925642+1049211826+1050393264+1050234131+1049221323+1048754719
2113+1049057885+1049090887+1048282855+1047273122+1046946930+1047340218
2105+1047603550+1047063700+1046149009+1045792890+1046121132+1046464064
2096+1046479711+1046469804+1046645267+1046816152+1046896368+1047172886
2088+1047828003+1048566069+1048994683+1049014566+1048619159+1047944364
2079+1047754347+1048908455+1050911454+1052070686+1051628202+1050605419
2071+1050170519+1050436310+1051145405+1052216291+1053217620+1053341838
2062+1052213079+1050094061+1047444143+1045022301+1044112530+1045590165
2054+1048437205+1050057916+1048913648+1046370183+1045210814+1046645813
2045+1049681504+1052993918+1056175896+1059157745+1061015072+1060012445
2037+1055844511+1051302898+1049620283+1050544949+1051573336+1051986166
2028+1052510096+1052772539+1052426874+1052986265+1055567583+1058330171
2020+1058582639+1056189903+1053211334+1051559192+1052026479+1053767172
2011+1054271902+1052275940+1050512289+1052344472+1056297586+1057733200
2003+1055234421+1051848488+1050914392+1052826449+1055317575+1056112899
1994+1055176685+1054263703+1054779980+1056590025+1058465595+1058928372
1986+1057023285+1053078028+1048527123+1044922134+1043387719+1044536224
1977+1047857042+1051211341+1052440949+1051597797+1050276084+1049286848
1969+1048425111+1048039885+1049066153+1051379288+1053690168+1055189052
1960+1056249621+1057414456+1058216749+1057406120+1054386623+1050246293
1952+1047217435+1047055979+1049679112+1053178947+1055569223+1056557638
1943+1057052187+1057419648+1057434680+1057470552+1058161199+1059262148
1935+1059875586+1059510175+1058390777+1057172784+1056677073+1057291604
1926+1058449743+1059199219+1059224569+1058977362+1058961511+1059311754
1918+1059902370+1060360433+1060174174+1059227233+1058198574+1058125122
1909+1059174827+1060182715+1060076467+1059174143+1058415033+1058019011
1901+1057526102+1056772184+1056199674+1056195096+1056560576+1056872761
1892+1057114706+1057434680+1057576390+1057421288+1057837193+1059629063
1884+1061915277+1062725360+1061394764+1059344687+1058267584+1058507752
1875+1059332730+1060136868+1061087225+1062599092+1064137264+1064066204
1867+1061982921+1059868754+1059431735+1060446730+1061601726+1061961534
1858+1061629808+1061290702+1061459743+1062135289+1062924942+1063439306
1850+1063644218+1063910556+1064687841+1065869416+1066360344+1065142078
1841+1062991151+1061480377+1061225245+1061668823+1061874418+1061686588
1833+1061826316+1062796419+1064121139+1065004809+1065567002+1066306093
1824+1066941327+1066805767+1065908499+1064927942+1064558567+1064985951
1816+1065777790+1066507315+1067147947+1067574170+1067368848+1066612880
1807+1066094895+1066363624+1067287470+1068440758+1069399929+1069851706
1799+1069848085+1069812282+1070162730+1071060612+1072173245+1072491648
1790+1071389195+1069738625+1068644235+1068266251+1068136567+1068053960
1782+1068242952+1068583834+1068649496+1068641092+1069303110+1070940767
1773+1072886577+1073741823+1072948207+1071573336+1070534017+1069879242
1765+1069617482+1069862092+1070172295+1069796156+1068835004+1067831761
1756+1066853322+1066070160+1066128102+1067342815+1069031648+1069880130
1748+1069397060+1068143810+1066594773+1064959919+1063517267+1062440300
1740+1061618124+1061196275+1061798233+1063662803+1065550740+1065715134
1731+1064599495+1063349320+1062362134+1061801991+1061617099+1061473545
1723+1061230985+1061274782+1062186125+1064003139+1065268072+1064392191
1714+1062268322+1060405324+1059203456+1058382509+1057278007+1054643805
1706+1049477548+1042318610+1032856239+1016898861+990780403+958349302+921667728
1696+880231021+843674895+820550516+809384007+808143603+816205001+831198698
1686+852272864+879361152+903873385+918423983+925579710+926440149+917064758
1676+892694030+857152489+822796759+795270837+771650474+750372627+733726720
1666+722862557+718694077+723646128+737515030+755581724+774118574+792064125
1656+810130750+832269925+860467089+882308770+893337532+902080353+913211811
1646+925087142+934092953+940968062+947736923+954852474+962001573+968938928
1636+974780116+977979107+979505323+981796046+985810928+991029249+995943858
1626+999282851+1000484992+998302498+991354075+979761616+962211131+934645375
1616+900080224+874753604+867335161+873428065+887441546+904707176+920068130
1606+928582262+926799889+913862282+893139316+872075809+857520565+850510511
1596+845819468+836042657+817671226+794775878+776457263+770501764+778654174
1587+796887654+819227300+840637565+857653256+868706889+874566389+877669245
1577+880973254+886243777+892888352+900600600+910189102+920977013+929992116
1567+936150751+940960204+945353138+949549837+954626654+962383656+970496095
1557+973927466+975029440+976757288+979570506+982938197+986095851+988624556
1547+991045648+994282697+998449947+1002648560+1005844613+1007035617+1006499799
1537+1006102547+1006754863+1008138275+1009250567+1009725984+1010430980
1528+1012091116+1014449825+1016636555+1018400411+1020111587+1021536678
1520+1022191317+1022469475+1022715930+1022665232+1022421852+1022737931
1511+1024237363+1027013753+1030588337+1033193022+1032703461+1030893621
1503+1030036871+1030418955+1031765880+1033632090+1035138764+1035419997
1494+1034952983+1035090730+1036592758+1038959666+1040460053+1040027476
1486+1038401231+1036135105+1031928225+1023264389+1009967109+996873990+990698411
1476+994560855+1005662591+1017488931+1024973447+1028368536+1030547887
1468+1033230875+1036585993+1039564289+1041165732+1041770288+1041565649
1459+1036924962+1017691725+981908717+950372492+936121029+937657493+949469963
1449+963603289+971448092+968714679+958362215+947607649+943363326+948453261
1439+961097063+978104555+995286827+1007694834+1014905086+1020022488+1024910655
1429+1029283774+1032321241+1033923367+1033971264+1031555639+1024604824
1421+1009287873+983832458+958890450+950494592+959138749+975460514+991741966
1411+1004289974+1012711523+1018142340+1021819141+1024549958+1026767640
1402+1028982521+1031783850+1035213991+1038515610+1040867828+1042067031
1394+1042385024+1042391583+1042700283+1043656653+1045153010+1046513396
1385+1047114467+1047181017+1047309813+1047767261+1048544751+1049648775
1377+1051014013+1052199619+1052571795+1052217657+1052103893+1052834785
1368+1054060772+1055258541+1056402604+1057213028+1056140298+1051321893
1360+1042904307+1033394791+1026554255+1025700922+1030934275+1038573824
1351+1044752137+1048518309+1051045716+1053169108+1054407326+1053886471
1343+1051502481+1048214733+1045703792+1045396800+1047094652+1049121976
1334+1049816586+1048209130+1043927979+1037166907+1028602351+1018969778
1326+1008757452+998489645+989107695+981938371+978538635+980330232+987492177
1316+998123550+1009121087+1017973847+1023847968+1027024139+1027124921
1307+1021891363+1007760428+982668374+950095290+920309255+904889882+908161027
1298+924625868+944670759+961590246+973619790+981530802+985750732+985086937
1288+977126867+960136389+935297076+906754930+878396925+850069940+817677922
1278+777891989+732665673+689064305+655361369+637218286+635934016+648856113
1268+671639473+700837624+734582718+770883848+805148977+829075375+833249116
1258+813701918+776899884+737044463+707328668+692986330+691620273+698227473
1248+708927788+721473815+734362296+746193078+755655038+762012025+765734810
1238+768535251+772340233+778051395+785377734+793574625+801956408+809676582
1228+815033470+815351258+808808217+797233182+786154952+780904653+782812815
1218+789350117+797047265+803511252+807272095+807469764+804934294+802914486
1208+805123354+812611696+823093297+833133918+840329479+843858626+844347230
1198+843587915+843616612+845620568+849750922+855606254+862506166+869595752
1188+876134693+881746918+886424912+890433370+894051615+897003947+898003089
1179+895458190+889563912+883558330+881627210+885072451+891423699+897241861
1169+900460735+900270104+896549164+889935336+881483997+871845958+861310652
1159+851180933+844813834+846043648+855659754+870103694+884368139+895575712
1149+903533801+909202327+913570595+917278484+920474811+923007548+924797846
1139+925975595+926798659+927546018+928383431+929194880+929356131+927494704
1129+921674902+910672378+895983008+882371494+875186181+876425766+883710084
1119+892942125+901293502+907841053+912446209+914478043+912249360+903802803
1109+889098128+871852449+858450220+853729932+857291466+864356181+870380144
1099+874363117+877923762+882448498+887863464+893443917+898756460+903684256
1089+908104384+911832566+914713975+916657735+917650318+917796674+917464948
1079+917456065+918743410+921692804+925609022+929267169+931880259+933552215
1069+934929956+936468265+938061646+939410826+940544778+941724576+942981721
1060+944080689+944858247+945301005+945346032+944739222+942776877+938091505
1050+929656700+918879654+909925771+906675671+909466342+915380298+921191149
1040+925462939+928202433+929193718+927513084+923345151+919479221+919449977
1030+924216795+931677465+939107934+945144878+949809479+953632636+956967051
1020+959859460+962291347+964333020+966130014+967880273+969746482+971773738
1010+973950082+976257068+978568358+980475768+981167782+979826732+976729752
1000+973751456+972755593+973075636+971614673+966665081+961089547+960034377
990+965499084+974584770+982582146+985989261+983364419+975699521+965983180
980+956962473+949272636+941959279+934462943+928396139+927354771+933659830
970+945096981+956368098+963934538+968238988+971578391+975449377+980098946
960+985308521+990683857+995042969+995635021+988843270+973641518+955273298
950+943474698+944787802+957138073+972887259+985709531+993491473+996735970
941+996461433+993207165+986385215+973483752+950105881+912991320+865486306
931+819440206+788857686+780443858+790626803+810825497+833965864+856444282
921+876705769+894021073+908278481+919903326+929625065+938127581+945669833
911+952115713+957391702+961586761+964492768+965633415+965340020+965462803
901+968102130+973247205+977696303+975963741+962924053+938448717+911085481
891+894314878+895847584+911210178+928479635+937191026+933164939+919608906
881+905926878+902171365+911715386+929874868+949604499+966831115+980579693
871+990540644+995788893+994644897+984508620+962692220+929517109+890807733
861+855289901+828974183+813716676+810356570+819432075+838270110+860826830
851+881815724+899524658+914656922+928113198+940129078+950461522+958950236
841+966020213+972534488+979019929+985035146+988996391+987993627+977880649
832+955298374+921593389+884707723+855494266+840744838+839188422+843830885
822+848127956+850795297+855498639+865941089+881649211+898894071+914482074
812+927449882+938182243+947425694+955758214+963117144+968919796+972773768
802+974880078+975732455+975512511+974217103+972867103+973771339+978427468
792+985648174+992578012+996718752+995537860+984280613+957285522+915843143
782+874566116+853959032+863466225+894604515+931038063+961190534+980695234
772+987328261+977166429+947863191+907039784+873466874+863704071+877973299
762+902386662+922457107+930491039+922064775+891978171+838628347+772531275
752+716420435+692379657+707269566+750152409+802464144+850233993+888624556
742+918558176+941919307+959631044+971095321+972919441+959147085+926428533
732+881793654+843921896+832014657+850624480+886211117+917927793+928799746
722+908261945+854257962+781078545+718674330+693141842+708299114+748468291
713+794688761+836205070+870528003+898606552+921362102+936598223+935582545
703+905280370+841087975+759845315+694262128+668717751+681939462+714534479
693+748582397+776994995+799628378+817699308+832373304+844937164+856292665
683+866493921+875166025+882362816+888497058+892738238+892095829+884094490
673+870642928+857195125+849819659+854720329+870649556+884870204+891591236
663+894869145+899677505+907488760+916203635+923210205+927410116+929088085
653+929449465+930389847+933699391+939813408+947453708+954657606+960032259
643+962292167+956872487+933755009+885314396+821235219+769833392+756230691
633+780036972+819931407+856190926+882060675+898794040+908656191+912454135
623+908998645+896326350+875756231+854768021+843450031+846458118+859591413
613+875225742+888592237+898309125+904670417+909117123+913523654+918882387
603+924906554+930685770+935564644+939712831+943832867+948202160+952296437
594+955389932+957360750+959003872+961397701+964710252+967777441+968777062
584+965561467+954763717+932210004+897076647+855928756+821044040+803344808
574+805453304+821685561+843579032+864159195+879829601+890644295+898452065
564+904639465+909641873+913796620+917724385+921605482+924944407+927739382
554+931012645+935233532+938974833+940197404+938396584+934123905+926723773
544+915055336+901451132+892430289+893252738+902835228+915580632+926856737
534+935254303+941272868+945677417+948959562+951448707+952448533+948480660
524+934939795+911583720+884617395+863672777+856631156+864536222+881254419
514+899011661+913334731+923524987+930714467+935923633+939381856+940624788
504+937856734+928491592+913947759+902236070+900513552+907938896+918075106
494+925502910+929162151+930663837+931893856+934079766+937089971+939364842
484+939558617+938304684+937386851+937554524+938095741+937983070+936860529
475+934874543+931674937+926418489+919628379+913787191+910878246+910107452
465+909047362+906992776+905920318+908387257+915353240+924834264+932542823
455+936120414+936311319+933198077+923735023+903742197+873343954+841443342
445+822453759+824375859+839268091+849580037+846504922+836868249+834056466
435+844719885+863453038+881079981+893717497+903091385+911730213+919370787
425+923610053+923457821+920617477+916166466+909463950+902388234+896997046
415+888479771+870280728+842955961+816116381+799649354+796230692+803731059
405+819170725+839044389+859199901+875842938+886352895+892322469+900782691
395+912425301+918691277+915494745+907862780+901819277+897767430+893537798
385+888854475+881180968+862239896+828635419+789461831+759542969+751588638
375+770035024+800271811
##END=
