##TITLE=X7988
##JCAMP-DX=4.24
##DATA TYPE=INFRARED SPECTRUM
##DATE=30/10/2018
##SAMPLING PROCEDURE=Diamant-ATR
##ORIGIN=ComPlat
##XUNITS=1/CM
##YUNITS=TRANSMITTANCE
##RESOLUTION=4
##FIRSTX=3997.453
##LASTX=373.96442
##DELTAX=-1.4165319
##MAXY=0.98250026
##MINY=0.51550967
##XFACTOR=1
##YFACTOR=9.1502467e-010
##NPOINTS=2559
##FIRSTY=0.96581268
##XYDATA=(X++(Y..Y))
3997+1055504531+1055999595+1056434404+1056199965+1055338555+1054258860
3989+1053384291+1053153761+1053837274+1055075845+1056018811+1056230320
3980+1056122448+1056220745+1056412191+1056231884+1055574947+1054825317
3972+1054416694+1054440405+1054626640+1054693148+1054689240+1054800434
3963+1054920486+1054813592+1054641753+1054827011+1055349303+1055601980
3955+1055068810+1053982602+1053159363+1053207306+1054029242+1055011682
3946+1055537036+1055415485+1055086398+1055248792+1055929048+1056407826
3938+1056252989+1055583741+1054551338+1053406504+1052883561+1053575868
3929+1054921724+1055795446+1055773820+1055281492+1054895864+1054623644
3921+1054036472+1053025957+1052058889+1051733385+1052204933+1053199099
3912+1054472454+1055918104+1057126320+1057236211+1055675719+1052970523
3904+1050563211+1049515696+1049779578+1050979716+1052631925+1053925930
3895+1054314685+1053876293+1053154803+1052920039+1053415168+1053929969
3887+1053671168+1052618962+1051584410+1051128105+1051122438+1051591706
3878+1052548286+1053401619+1053489623+1052644237+1051228550+1049981902
3870+1049987114+1051739638+1053955959+1054910650+1054089561+1052467773
3861+1051444880+1051382476+1051805690+1052196400+1052134582+1051189988
3853+1049858332+1050009848+1051752666+1053782036+1055227947+1055717995
3844+1055176356+1053850107+1052353843+1051267765+1050778694+1050936658
3836+1051773120+1052906295+1053607135+1053482457+1052944336+1052722144
3827+1053057680+1053613258+1053845612+1053340517+1052066706+1050802731
3819+1050488821+1051001017+1051815266+1052677719+1053444285+1053917853
3810+1053870235+1053187373+1052273460+1051982675+1052279062+1052041041
3802+1050807030+1049858723+1050634539+1052762075+1055096299+1056692683
3793+1057186705+1056921194+1056435967+1055998617+1055571821+1055106787
3785+1054795809+1054832482+1054928173+1054537333+1053743343+1053426893
3776+1054004293+1054864336+1055271004+1054967127+1054173071+1053454577
3768+1053288471+1053672731+1054415717+1055321162+1055979010+1055868663
3759+1054862382+1053616646+1052961208+1052874115+1052605088+1051422212
3751+1049592952+1048599829+1048733626+1048676563+1047583385+1046069338
3742+1045504118+1045745071+1045626581+1044391724+1042179897+1040126491
3734+1039492224+1040627873+1043073748+1045843237+1047812612+1048405777
3725+1048034674+1047731644+1048113168+1049009038+1049994800+1050920634
3717+1051845556+1052548807+1052484709+1051443382+1050323952+1050450584
3708+1051602649+1052523728+1052477804+1051475952+1050109772+1049304643
3700+1049545595+1050471234+1051515362+1052411231+1053229258+1054145321
3691+1055044187+1055376401+1054780045+1053861246+1053367746+1053287168
3683+1053205417+1052859003+1052383937+1051971341+1051491586+1051175461
3674+1051928284+1053285735+1053638989+1052716412+1052437808+1054222186
3666+1056698025+1058023036+1057652455+1056351741+1055181372+1054459426
3657+1054110602+1054391355+1055180851+1055337187+1053853234+1050974896
3649+1048444600+1047809616+1048727959+1050483936+1052658502+1054729692
3640+1056188696+1056822442+1056633602+1055627646+1053923976+1051901381
3632+1049838529+1047645333+1045762073+1045741488+1047616737+1049603049
3623+1050745017+1051231156+1051663816+1052405955+1053185615+1053400772
3615+1052864279+1052063514+1051738140+1052024821+1052546787+1053230235
3606+1054085848+1054664617+1054636411+1054259381+1053952768+1053777020
3598+1053451320+1052721037+1051680882+1050847612+1050536178+1050341866
3589+1049755085+1049089290+1049471336+1051231742+1053263261+1054465093
3581+1054690803+1054663965+1054995723+1055391904+1055386302+1055272698
3572+1055511436+1055819939+1055541140+1054523915+1053410347+1052939711
3564+1053116241+1053653775+1054445291+1055388582+1056269469+1056809023
3555+1056643242+1055571430+1054135681+1053398492+1053621726+1054014129
3547+1053936092+1053589482+1053610913+1054519029+1056399293+1058554187
3538+1059763250+1059444390+1058284703+1057307735+1056827719+1056637901
3530+1056489707+1056154367+1055563743+1055070048+1055204562+1056066689
3521+1057055057+1057379193+1056897418+1056346334+1056524427+1057250868
3513+1057526865+1056809414+1055738970+1055380505+1055952759+1056689231
3504+1056821986+1056375517+1056022198+1056179120+1056594518+1056904453
3496+1057099613+1057302002+1057426094+1057309884+1057002815+1056752091
3488+1056824592+1057317636+1057946757+1058129084+1057588683+1056795018
3479+1056382748+1056385093+1056531462+1056817622+1057254646+1057541522
3471+1057470259+1057156154+1056602790+1055634616+1054421124+1053511705
3462+1053253360+1053544731+1054150011+1054976898+1055952694+1056701998
3454+1056673337+1055848535+1054963088+1054629767+1054581563+1054124411
3445+1053064324+1051870309+1051208943+1051419736+1052116538+1052479172
3437+1052174708+1051673326+1051506568+1051589165+1051459016+1050931187
3428+1050309426+1049978776+1049915395+1049725707+1049137103+1048286766
3420+1047568338+1047368684+1047843945+1048715778+1049373300+1049359100
3411+1048699883+1047765647+1046982599+1046608696+1046574367+1046568244
3403+1046329637+1045769498+1044856953+1043572654+1042024148+1040510556
3394+1039351066+1038571471+1037845030+1036886301+1035798203+1034807881
3386+1033846220+1032739558+1031743764+1031392399+1031657128+1031731257
3377+1030985795+1029781358+1028902360+1028532039+1028200607+1027502503
3369+1026532048+1025710959+1025248205+1024826033+1024111188+1023493922
3360+1023694748+1024598369+1025166129+1024686113+1023550528+1022555125
3352+1021953948+1021508326+1021066091+1020706584+1020451105+1020103453
3343+1019437007+1018516840+1017704871+1017128838+1016327161+1014874410
3335+1013209890+1012251290+1012276109+1012678869+1012731567+1012212662
3326+1011350666+1010460789+1009726662+1009165677+1008633679+1007960393
3318+1007243007+1006870537+1007120413+1007882811+1008765392+1009291658
3309+1009212187+1008874567+1009031945+1010101347+1011813029+1013503931
3301+1014576330+1014871479+1014758266+1014708304+1014899815+1015407906
3292+1016420376+1017945107+1019602462+1020996717+1022099211+1023113895
3284+1024148122+1025222540+1026490945+1028109998+1029801747+1031003839
3275+1031690740+1032524010+1033899895+1035448988+1036691076+1037492819
3267+1037792332+1037659512+1037701657+1038614398+1040237490+1041658908
3258+1042275523+1042284447+1042150259+1042022780+1041831334+1041730627
3250+1042173318+1043437619+1045174120+1046561665+1047055035+1047044157
3241+1047438644+1048392358+1048969628+1048540421+1047852804+1047994613
3233+1048932368+1049793127+1050010434+1049642067+1049067142+1048809514
3224+1049266796+1050285585+1051250242+1051734492+1051860603+1051942093
3216+1052089244+1052314694+1052682865+1053134480+1053418164+1053352308
3207+1052987524+1052499756+1052035830+1051612420+1051165560+1050828266
3199+1051017171+1052011142+1053542842+1054947520+1055647383+1055534235
3190+1054990447+1054428680+1053871408+1053234470+1052815815+1053031754
3182+1053766793+1054419691+1054582410+1054403080+1054251174+1054266612
3173+1054347516+1054434673+1054687285+1055352364+1056408608+1057407073
3165+1057902658+1057964866+1057903765+1057668154+1056994477+1055950349
3156+1054903876+1054212220+1054132293+1054641036+1055311131+1055741510
3148+1055918626+1055889899+1055594945+1055206972+1055003866+1054872218
3139+1054602538+1054480987+1054893779+1055595466+1055963833+1055808409
3131+1055527330+1055561659+1055927159+1056255334+1056255920+1056063106
3122+1056051446+1056428476+1057078963+1057648872+1057782409+1057455667
3114+1057001642+1056663501+1056319432+1055814206+1055355230+1055283772
3105+1055520425+1055570518+1055187951+1054715686+1054545671+1054619931
3097+1054761806+1055088873+1055687314+1056219377+1056279371+1055982854
3088+1055897260+1056414145+1057340370+1058118401+1058322419+1057898424
3080+1057092708+1056265235+1055663538+1055330542+1055283251+1055589604
3071+1056097891+1056358906+1056088511+1055554103+1055359790+1055883189
3063+1056865760+1057566536+1057504848+1056925298+1056264128+1055458412
3054+1054291560+1053135327+1052751327+1053419467+1054620778+1055582569
3046+1055961423+1055925400+1055735843+1055538599+1055512934+1055811405
3037+1056262890+1056522147+1056578102+1056740105+1057139543+1057546342
3029+1057630568+1057244875+1056585333+1056096392+1056050143+1056316565
3020+1056574454+1056455835+1055571951+1053937981+1052316257+1051615482
3012+1051993619+1052891573+1053709926+1054139328+1054102785+1053713769
3003+1053182097+1052617985+1051952646+1051044335+1049870448+1048661777
2995+1047722263+1047040509+1046262803+1045126502+1043705214+1042156512
2986+1040377541+1037943131+1034367079+1029473181+1023495355+1016797732
2978+1009652142+1002283773+994812223+987033929+978525872+969127157+959241782
2968+949647972+941089367+934120176+929300407+927186421+927792874+930230215
2958+933234533+936041478+938640106+941360349+944357112+947361626+949792713
2948+951056884+950693794+948332862+943797950+937370137+929747723+921608163
2938+913301649+904973965+896698132+888398262+880040157+872129760+865700513
2928+861575983+859770109+859513262+859682561+859391776+858376375+856733806
2918+854391374+851115096+846896830+841990425+836619963+830814367+824479183
2908+817710818+811214673+806283515+804127709+805276908+809619070+816722515
2898+825984957+836725555+848317141+860184529+871759830+882595402+892436156
2888+901084003+908325935+914039880+918226032+920986337+922643302+923802857
2878+925115688+926983380+929488075+932509656+935926246+939725663+943820945
2868+947793634+951006075+952979424+953539302+952596792+949863390+944831461
2859+937148857+927127144+915905488+905053957+895860497+888917753+884629005
2849+884207094+889583548+901716252+919081255+938190966+955639218+969760252
2839+980724866+989427366+996449906+1002014224+1006454683+1010233060+1013556630
2829+1016336932+1018524787+1020267801+1021729672+1022935542+1023859031
2820+1024545410+1025094084+1025641911+1026385548+1027439382+1028661538
2812+1029842264+1031022990+1032382461+1033864394+1035182175+1036168003
2803+1036870211+1037279551+1037228807+1036729574+1036202722+1036118822
2795+1036530051+1037146600+1037700745+1038089240+1038374227+1038768780
2786+1039464344+1040412195+1041341481+1041956923+1042105833+1041865011
2778+1041493713+1041235108+1041119354+1040975655+1040716594+1040575892
2769+1040868305+1041568885+1042426387+1043368962+1044399345+1045255740
2761+1045617983+1045551801+1045421260+1045459042+1045592188+1045630229
2752+1045546850+1045511544+1045612186+1045706573+1045692894+1045732694
2744+1045983027+1046246127+1046153694+1045707550+1045389928+1045578508
2735+1046069142+1046402463+1046442785+1046321690+1046047255+1045598506
2727+1045235156+1045267139+1045584436+1045798942+1045823825+1045985698
2718+1046532548+1047282634+1047829288+1047973443+1047908629+1048014611
2710+1048490915+1049208366+1049887645+1050306169+1050347012+1050029715
2701+1049555171+1049157882+1048858695+1048524071+1048189838+1048081054
2693+1048239409+1048411770+1048414896+1048301227+1048059558+1047484893
2684+1046472423+1045190470+1043924019+1042979295+1042663105+1043048929
2676+1043765664+1044293558+1044514447+1044773639+1045362700+1046144965
2667+1046728033+1046820206+1046396275+1045672505+1044912062+1044186924
2659+1043443221+1042820353+1042714696+1043451038+1044942091+1046603159
2650+1047673995+1047873518+1047684352+1047758937+1048191271+1048620673
2642+1048814334+1048836352+1048766522+1048532474+1048068417+1047562475
2633+1047467631+1048145933+1049418572+1050594739+1051135856+1051203276
2625+1051284506+1051447551+1051405405+1051195981+1051208162+1051542395
2616+1051905550+1052153538+1052419699+1052691137+1052751262+1052604957
2608+1052552129+1052739015+1052973128+1053077873+1053140668+1053261959
2599+1053305212+1053141450+1052978339+1053117869+1053482848+1053754677
2591+1053861376+1053894142+1053713639+1053176560+1052620917+1052617920
2582+1053289187+1054175742+1054739528+1054898404+1055036110+1055435678
2574+1055882408+1056086556+1056150328+1056192669+1056018355+1055717278
2565+1055966634+1057053689+1058127846+1058109282+1056987637+1055611100
2557+1054552902+1053802620+1053315048+1053245022+1053667129+1054388228
2548+1055000869+1055081382+1054596806+1054119656+1054311233+1055190296
2540+1056140753+1056547877+1056304254+1055858957+1055787369+1056205958
2531+1056790393+1057373005+1058052414+1058690265+1058914476+1058692935
2523+1058330953+1057961674+1057567448+1057365839+1057644573+1058282098
2514+1058798397+1058875001+1058681862+1058690265+1059164809+1059841027
2506+1060218122+1060133179+1059815101+1059419571+1058868683+1058199631
2497+1057697076+1057555527+1057682485+1057875950+1057925391+1057611808
2489+1056968030+1056498892+1056797754+1057968579+1059565810+1060905934
2480+1061373900+1060805488+1059727944+1058879692+1058445143+1058091238
2472+1057682810+1057528103+1057899726+1058625711+1059201027+1059253660
2463+1058963852+1058871744+1059123641+1059271899+1059061692+1058842822
2455+1058841064+1058744787+1058417459+1058268744+1058539075+1058902425
2446+1059022087+1058912978+1058673719+1058323331+1057862597+1057257447
2438+1056493095+1055713500+1055147239+1054912930+1054995137+1055335167
2429+1055890420+1056590674+1057237058+1057563735+1057475275+1057102739
2421+1056694833+1056577386+1056928099+1057427853+1057504913+1057034733
2412+1056438638+1056170978+1056404960+1056965880+1057409092+1057530839
2404+1057676231+1058084593+1058320139+1057957440+1057338090+1057036818
2395+1057063720+1057122346+1057212174+1057540870+1058091694+1058412052
2387+1057651804+1055035458+1050623726+1045317558+1039828020+1034055059
2378+1027710690+1020998020+1014312644+1007733966+1001084938+994170855+986959279
2368+979703537+972698975+966110397+960521716+956995952+955797377+955936386
2359+956854794+959477393+964715816+972155122+980679203+988936406+995081577
2349+997264872+994648657+988390468+981825080+978126499+977657492+978843104
2339+980309469+981691803+983256855+984970491+986336736+987340608+988643928
2329+990420033+992022150+993132590+994229872+995850423+998237997+1001710607
2319+1006431754+1011653110+1016035204+1018893740+1020662484+1022178160
2310+1023971462+1026284907+1029254702+1032721123+1036064691+1038631660
2302+1040381384+1041909371+1043798104+1046077741+1048246314+1049669556
2293+1050105799+1050013430+1050216211+1051164453+1052630883+1054070280
2285+1055062231+1055468900+1055474306+1055470463+1055726137+1056157559
2276+1056467625+1056401638+1055901168+1055211206+1054823102+1055095648
2268+1055890941+1056711704+1057235429+1057519049+1057555722+1057060529
2259+1056152348+1055699495+1056232730+1057140716+1057751859+1058275128
2251+1058881646+1059224542+1059585743+1060865091+1062813166+1063893512
2242+1063456163+1062627322+1062578597+1063022461+1062929767+1062050703
2234+1061080053+1060608961+1060585576+1060673254+1060623032+1060486303
2225+1060687129+1061512387+1062629341+1063467692+1063604226+1062701516
2217+1060999019+1059742991+1060083282+1061831508+1063945103+1065690527
2208+1066909426+1067601668+1067505977+1066205849+1063875077+1061471740
2200+1059863630+1059295219+1059577992+1060144514+1060310034+1059936978
2191+1059328440+1058468984+1056959301+1054695233+1052470313+1051863144
2183+1053865741+1057382906+1060097613+1060996870+1061022926+1061265051
2174+1061408880+1060544603+1059100255+1058632876+1059465821+1060077419
2166+1059426672+1058440909+1058896302+1061824928+1066205719+1068770604
2157+1067640100+1065424887+1065580832+1068416894+1071842408+1073741823
2149+1073447195+1071841626+1069991261+1067975245+1065596270+1063097828
2140+1060500047+1057711602+1055780073+1056439094+1059933851+1064472411
2132+1068010551+1069656768+1069531048+1068237434+1066492139+1064841233
2123+1063747533+1063690862+1064573964+1065352451+1065187582+1064634935
2115+1064645162+1064885919+1064281160+1062825738+1061669179+1061537205
2106+1061903422+1061800175+1061142588+1060882028+1061605277+1062537624
2098+1062644780+1062136558+1061914105+1062083273+1062092393+1061856391
2089+1061783825+1062013769+1062340250+1062586089+1062489551+1061691066
2081+1060491840+1060069733+1061047679+1062329372+1062418288+1061557464
2072+1061292865+1062143398+1063085907+1063374021+1063607222+1064582693
2064+1065806607+1065780225+1063746296+1060695467+1058494193+1058353556
2055+1060171416+1062517366+1063107664+1060665372+1056865695+1055158443
2047+1056877746+1059940951+1062109850+1063576281+1065283989+1066301735
2038+1064675582+1060651367+1057157913+1056385093+1057506998+1058714887
2030+1059666061+1060784188+1061927198+1062870099+1064013044+1065680300
2021+1066995997+1066358733+1063406787+1059891119+1058220997+1059510441
2013+1062684841+1064932755+1064249046+1062151801+1061906223+1063829805
2004+1064957833+1063377343+1060315441+1058154489+1057950014+1058678670
1996+1058685314+1057804036+1057302198+1057943240+1059292158+1060668564
1987+1061307196+1060240986+1057528298+1054914233+1054371357+1056569830
1979+1060798974+1065356294+1068261340+1068759530+1067703677+1065960467
1970+1063447369+1060168941+1057342063+1056508533+1057743521+1059862653
1962+1062080407+1064303242+1066117910+1066646651+1065448989+1062912961
1953+1059965509+1057783061+1057278357+1058356292+1059866496+1060618993
1945+1060360843+1059694071+1059369609+1059783182+1060885480+1062223976
1936+1063072814+1062981227+1062166783+1061097836+1060124060+1059658049
1928+1059884410+1060173045+1059753153+1058954407+1058732410+1059073874
1919+1059296587+1059562944+1060527015+1061693737+1061800957+1060626093
1911+1059312807+1058984762+1059604048+1060517635+1061389859+1062047446
1902+1062159487+1061654262+1060947233+1060390026+1059952416+1059562293
1894+1059215162+1058694629+1057704046+1056406263+1055653962+1056421506
1885+1058848880+1061807471+1063664350+1063958391+1063719067+1063872928
1877+1064242727+1064265135+1063921783+1063642658+1063598624+1063308686
1868+1062240391+1060942608+1060504477+1061097706+1062065425+1062730895
1860+1062840134+1062590583+1062402915+1062592863+1063170915+1063871039
1851+1064288651+1064086391+1063228303+1062036112+1061046832+1060813240
1843+1061392139+1062149456+1062565439+1062575340+1062179811+1061225641
1834+1059638051+1057562562+1055266640+1053365075+1052845910+1054058425
1826+1056280543+1058454784+1059891901+1060489885+1060472689+1060293749
1817+1060502392+1061132295+1061620975+1061606644+1061281205+1060982409
1809+1060876752+1061016542+1061296904+1061371880+1060921828+1060058985
1800+1059327203+1059124097+1059275026+1059326161+1058940858+1058113385
1792+1057374568+1057356850+1057927020+1058508720+1058674501+1058229400
1783+1057353528+1056556085+1056171173+1056064213+1055967155+1055797009
1775+1055484207+1054889350+1054134703+1053695465+1053807245+1054272605
1766+1054697317+1054700379+1054143302+1053219357+1052292416+1051466181
1758+1050548490+1049513937+1048554100+1047590616+1046164637+1044057686
1749+1042025581+1041084830+1041135379+1041438344+1041591228+1041615851
1741+1041606210+1041591879+1041568299+1041396264+1040878532+1040256315
1732+1040248759+1040914945+1041828011+1042678544+1043098826+1042817748
1724+1041975163+1040857492+1039435878+1037649806+1036171455+1036316392
1715+1038120247+1040252277+1042100883+1043682741+1044864379+1045300230
1707+1044957790+1044484418+1044375699+1044099115+1042850708+1040798801
1698+1039123923+1038290783+1038005991+1037948017+1037675666+1036791783
1690+1035208492+1033187916+1030726148+1027067107+1022138360+1018122743
1681+1015673677+1013192693+1009938432+1005792601+1000610198+994752229+988495799
1672+980256054+967589399+951396002+936024607+922525268+908673978+893179338
1662+876941060+860518045+843109008+824971510+807405811+792085094+785104569
1652+791662466+804662443+821168641+844631719+873670384+898859540+917035209
1642+931303721+943534069+954123411+964150206+975611707+987726236+996908426
1632+1002690637+1006480739+1009142617+1010974678+1011725155+1010379234
1623+1005753191+998013786+988472544+977662312+966674183+960510317+963700610
1613+973364966+984838583+995643474+1004563997+1011116618+1015434549+1018175963
1604+1020249497+1022278410+1024325759+1026016531+1026903150+1026894682
1595+1026178208+1024546583+1021053584+1014138525+1001439299+979817793+947314986
1585+907217645+870577345+851493234+856044300+878525328+910574305+946497349
1575+977553072+996429778+1005849012+1011048091+1015111585+1019021674+1022092762
1565+1023656706+1023805746+1022683841+1019869080+1015229749+1011656889
1557+1011286894+1011465182+1010719460+1008999310+1006480609+1003360927
1548+999729311+995226904+989061931+980806161+970612282+957434148+941080052
1538+926682954+915086939+900684956+878491195+850844831+826864672+809610407
1528+795999744+784832349+777552506+774130835+772580505+771678252+771188595
1519+770750920+770205699+769433725+767220987+761796589+752963354+743774585
1509+742618546+764131530+806053897+841809857+865831770+884729451+901555160
1499+916534414+929166545+938247051+942781702+942910940+938689416+930086320
1489+918945568+908391596+899478369+891657734+884780586+879691333+877346361
1479+877234906+877431368+875903511+871292451+864116571+858155225+856549395
1469+858076015+860554068+863392606+867594392+874111381+882100078+889924360
1459+895935799+897446850+892434984+883552698+873815386+864964497+859678587
1449+860824464+869085445+882057020+896653055+911346474+925065856+936170260
1439+943594388+947754550+950261069+952614836+954740873+955635049+954039446
1429+948783044+939409538+925325243+905571428+881590944+857535223+836157991
1419+819122596+809755995+807719785+807418318+805424319+803163833+804966581
1409+814190982+830824594+853121276+878832659+903907038+924489432+940306646
1400+952915326+962835682+969860112+974382061+976892684+977223204+975148692
1390+971354747+967891518+966883217+967428112+965887488+959574256+948430833
1380+934630678+920935137+908805495+898356594+889882671+884397628+882619699
1370+884932948+891659949+901966910+913898331+926080475+937841295+948026183
1360+955117251+957966993+956104317+950841010+945990561+945721793+951289303
1350+960338087+968858325+973918525+975443190+975742182+977224376+980597257
1340+984927108+988682165+990679290+990576695+989031966+987544300+987614977
1330+989541686+992065989+993422072+992700712+990180709+986547855+981936925
1320+975575685+966153063+952423389+933301562+907920374+876975584+844238925
1310+815439975+795102962+784117438+778813745+772171426+757774264+734405248
1300+707561733+686156556+676997360+681418082+695886443+715147539+735175072
1290+754300937+772684338+791076403+809816705+828518249+846237223+861839735
1281+874543650+884359651+891853414+897231823+899646821+897686760+890927385
1271+881036798+870981017+863012840+857671496+854451368+852699755+851684419
1261+850353936+847629133+843041523+836982727+830449323+824651608+820623029
1251+818934472+819701038+822821241+828154052+835521443+844648785+855084984
1241+866111546+876820812+886370130+894061267+899044668+899931352+894808748
1231+882193423+862938255+841651697+825491457+820263978+826888513+841530407
1221+859079951+876328875+892378377+907282459+921029590+933384420+943991612
1211+952546439+959058804+963866326+967276401+969337038+969952741+968939684
1201+965851726+959926011+950208632+935612792+915273826+889738647+862101988
1191+837101543+817865916+803081692+787922392+768797894+747754179+731970187
1181+728714167+740589438+764661248+794752379+824329361+848713582+866340448
1171+878423059+887075075+893483737+897472971+898099422+894152203+884170094
1162+866572411+840550767+807627873+772802176+743857443+728407489+730223069
1152+747417926+773812562+802261059+827369702+846258458+858197370+864272516
1142+866870883+868360046+869501884+868828077+863332677+849801745+826046254
1132+791664290+748236279+699170472+649618656+606278323+576053590+563383352
1122+568149641+586184804+611871824+640563750+669381525+696797750+722140245
1112+745446727+767192521+787350073+804456145+816533674+824032453+831224488
1102+842938341+859602373+876584419+888360155+892232333+888246682+877162601
1092+859513197+836556452+811916556+791659014+781234019+781090125+785405320
1082+786067858+778828011+766387131+755979007+753540950+759210795+767695857
1072+772885555+772450616+768225379+762268007+753033640+736328830+710554978
1062+680455639+655065462+642015654+643552370+656891595+677248996+700521084
1052+724102846+746390279+766340946+783564270+798360936+811362020+823042977
1043+833489859+842647101+850827894+858743959+866800727+874575047+881242119
1033+886271769+889412361+890304322+888647488+884804818+880075854+876365353
1023+875405647+877868132+883075353+889731611+896925991+904360607+911902508
1013+919280843+926224956+932682082+938752081+944384275+949249446+953027432
1003+955810536+958128540+960517417+963083539+965541725+967584904+969061366
993+969884213+969988502+969343161+967876666+965452483+961981567+957474731
983+951989883+945668574+938974078+932989803+929327961+929363528+933358560
973+940350941+948779592+957152744+964429461+970170634+974454171+977649089
963+980229672+982611644+984979806+987252408+989226474+990750618+991815070
953+992557274+993186786+993782621+994082851+993464217+990994176+985298471
943+974891129+959977081+944371508+934210004+933317587+939997687+948815354
933+954992769+956916937+955528871+952402545+948651918+945425341+944565820
924+947667393+954432175+962361463+967740654+967438926+961877995+956639832
914+958569212+969038697+982735671+993514636+999440611+1002001457+1003051578
904+1003578234+1003703498+1002589410+998647988+990355740+977219035+960602359
894+944033171+932231183+928801500+933999732+944537745+955887531+965192119
884+972278301+978381652+984481095+990659162+996283604+1000625441+1003616341
874+1005916106+1008073150+1009961882+1011179999+1011620280+1011553707
866+1011453522+1011695256+1012190775+1012453550+1012162374+1011387535
857+1010124602+1007951338+1004269369+998373684+988939467+974049912+952893635
847+928100986+906102058+894154417+895822846+908690133+926492811+943655424
837+958070370+970244242+980802317+989497261+996171824+1001403928+1005662842
827+1008513561+1009274070+1008224079+1006646064+1005545851+1004711734
819+1003401054+1001638106+1000111031+998819371+996448603+991045181+980635624
809+962956061+935483359+897778933+855580634+821613872+808868463+820797669
799+848498034+878123936+901069998+917407224+931297532+945367171+959375188
789+971939509+982130912+989905428+995704445+999836140+1002332954+1003103494
779+1001816785+997916532+991199628+982320469+972830102+965010900+961159175
769+962143179+966583182+971868701+976109897+979106399+981808925+985280883
759+989939431+995201174+999684755+1001805255+1000042178+992530697+975874547
749+943942887+890868629+821126039+756962620+727590504+745263097+795204646
739+851125584+896279282+927991616+948685334+957576935+947808877+910906910
730+850394974+791264722+766041563+786565592+835180371+885002257+921455214
720+944014280+956710509+961960462+959738018+949152192+931561219+912670834
710+900556630+900869888+913376039+932673418+951999719+966759255+975764591
700+980416038+983050948+985506984+988412290+991301572+993445522+994751122
690+995686271+996417467+996758018+996999296+997797130+999120448+1000197407
680+1000544342+1000315831+999568936+997694144+993750117+987134635+977875776
670+967511491+961278056+963314721+966076263+961062508+948939055+936121991
660+929206410+930188004+937056554+946925905+957162971+965412618+970129140
650+971592573+971983348+973741865+977657362+982545136+986517109+988477691
640+988426360+986491053+982258065+975146999+964795221+951222535+935686270
630+921210809+910995761+906293700+906489510+910468257+916909359+923895552
620+929611516+933731356+937293598+940781841+943035553+942382981+937808790
611+928777203+915018086+896711941+874256904+848276298+820738652+795883469
601+779177682+774375240+780955546+794637993+810409934+825042904+837679008
591+848920271+859300645+868436846+875561657+880507211+883835731+886156015
581+887796434+888968758+889633511+889377120+888144803+886941668+887025568
571+888339376+889265405+888436890+886656290+886183635+888327911+892572299
561+897658425+902420414+905575206+906040371+904181928+901985540+901206662
551+901578481+901368274+899712091+897661356+896652794+896881501+897433040
541+896924623+893495722+884982389+869954542+849569782+829382135+817991506
531+821086630+836549351+856976127+875828144+890003180+899271289+905077667
521+908705050+910306254+910321302+910936614+914156546+918941139+922110652
511+921694538+918799394+916534283+917515551+922235330+929021413+934816457
501+937011347+936221395+935826126+938013655+941886028+945300468+947470605
492+949063732+950518112+951049263+948722334+941524893+930021767+918955730
482+913858074+916200115+923092311+930445046+935977902+939966615+943628196
472+947258575+950206612+952029488+952563375+951527846+948697450+943997670
462+937712448+931431721+928455477+931293950+937618125+942674287+945206667
452+946675442+947742955+948343089+949790433+953994369+960696096+967431825
442+972291720+975493674+978216458+980933249+983148853+984407748+984995505
432+985003061+983897637+981949953+980470364+979942535+979591562+978823692
422+977362343+975066616+974571683+980354741+989737236+995942531+996372781
412+992358597+986658137+980905173+975131235+969856855+967222335+968716971
402+972311653+973382553+969242259+964738289+969018048+980603250+990085214
392+993787898+993960779+991070781+982326918+969203827+961610726+967780715
382+981268394+989306922+987081742+976752633+962280038+948843169+941689827
##END=
