##TITLE=LIS-P266
##JCAMP-DX=4.24
##DATA TYPE=INFRARED SPECTRUM
##DATE=12/5/2021
##SAMPLING PROCEDURE=Diamant-ATR
##ORIGIN=Angelika Moesle
##XUNITS=1/CM
##YUNITS=TRANSMITTANCE
##RESOLUTION=4
##FIRSTX=3997.453
##LASTX=373.96442
##DELTAX=-1.4165319
##MAXY=0.98806703
##MINY=0.30692104
##XFACTOR=1
##YFACTOR=9.2020913e-010
##NPOINTS=2559
##FIRSTY=0.95533246
##XYDATA=(X++(Y..Y))
3997+1038168852+1038343350+1038719098+1039143231+1039516129+1039814020
3989+1039976859+1039953281+1039798928+1039637708+1039564903+1039567235
3980+1039519691+1039345258+1039173610+1039201397+1039428621+1039672361
3972+1039798539+1039808643+1039740956+1039608754+1039450579+1039387036
3963+1039545018+1039854503+1040026345+1039920312+1039763108+1039766476
3955+1039789859+1039641594+1039433155+1039358277+1039383927+1039368576
3946+1039308855+1039353937+1039627344+1039944667+1039857029+1039308467
3938+1038843527+1038902341+1039319932+1039687259+1039817841+1039768549
3929+1039726835+1039841419+1039948747+1039650274+1038895669+1038239260
3921+1038199230+1038700314+1039253086+1039486074+1039458222+1039422402
3912+1039530379+1039803203+1040079589+1040073047+1039705914+1039232164
3904+1038944637+1038982076+1039495725+1040451256+1041280673+1041413069
3895+1040869559+1040057760+1039473444+1039432313+1039631554+1039628639
3887+1039623199+1039965653+1040287121+1040097531+1039746721+1039622680
3878+1039311576+1038581844+1038098573+1038510011+1039503887+1040357335
3870+1040957456+1041390139+1041481469+1041388391+1041613088+1042088586
3861+1042047649+1041249582+1040125254+1038911409+1037584406+1036682378
3853+1037384063+1039176719+1040298651+1040488047+1040243658+1040016694
3844+1040127780+1040557872+1040896958+1040886854+1040741374+1040722590
3836+1040853755+1041159289+1041578434+1041659400+1040953116+1039740761
3827+1038800129+1038443813+1038282852+1038192624+1038863347+1040486233
3819+1041714846+1041849185+1041726246+1042068571+1042493222+1042401439
3810+1041783117+1041057660+1040690268+1040623552+1040280320+1039560693
3802+1039096206+1039390923+1040124088+1040881089+1041543975+1041870431
3793+1041725339+1041407758+1041246538+1041226199+1041192647+1041225487
3785+1041488918+1041816281+1041904890+1041854950+1042035213+1042415365
3776+1042512007+1042066239+1041267589+1040586048+1040530279+1041090435
3768+1041549610+1041481340+1041201974+1040949036+1040558196+1040077645
3759+1039933785+1040218138+1040393025+1040179857+1040052060+1040878757
3751+1042961272+1044816692+1044958610+1044053084+1043406650+1043454453
3742+1043446227+1042958098+1042342625+1041829365+1041291166+1040597254
3734+1040094875+1040200390+1040665395+1040988288+1040995478+1040782245
3725+1040530149+1040522441+1041015752+1041868358+1042622444+1043082397
3717+1043391429+1043564891+1043445644+1043063030+1042652240+1042243264
3708+1041704094+1041151451+1040824607+1040865932+1041340977+1042186069
3700+1043095157+1043786220+1044237817+1044471971+1044310427+1043568000
3691+1042504428+1041884227+1042130753+1042603531+1042727830+1042666620
3683+1042589540+1042291390+1041532251+1040566292+1040108348+1040458381
3674+1040607488+1039749182+1038789053+1039053197+1040716047+1042397294
3666+1042998322+1042504817+1041443188+1040512272+1040130241+1040229344
3657+1040533258+1040728225+1040598226+1040316269+1040392248+1041379193
3649+1043132985+1044193577+1043660884+1042298450+1041113041+1040488500
3640+1040303573+1040460713+1040995154+1041623581+1041765110+1041252238
3632+1040604703+1040490962+1041210524+1042353702+1043203458+1043569425
3623+1043488394+1043060245+1042705742+1042929015+1043526221+1043796907
3615+1043632578+1043457562+1043507113+1043625777+1043624287+1043467083
3606+1043170164+1042826868+1042642265+1042739230+1042992816+1043209546
3598+1043364613+1043451020+1043392918+1043339027+1043559838+1043911361
3589+1043960200+1043669175+1043575967+1043884156+1044113776+1043989931
3581+1043729284+1043647217+1043818218+1044067010+1044154454+1043980927
3572+1043633679+1043253333+1043035890+1043350233+1044319560+1045149625
3564+1045076950+1044469509+1044015192+1043826314+1043591188+1043169517
3555+1042687541+1042303114+1042166637+1042365231+1042738841+1042957709
3547+1042841312+1042519909+1042260429+1042178815+1042275909+1042589928
3538+1043133373+1043783370+1044301683+1044432913+1044115784+1043711731
3530+1043765428+1044305634+1044679309+1044395927+1043749170+1043353472
3521+1043468120+1043926194+1044460312+1044917414+1045245424+1045403859
3513+1045362210+1045153058+1044864495+1044606180+1044482982+1044504552
3504+1044519385+1044327916+1043969721+1043812518+1044162291+1044827963
3496+1045224567+1045009133+1044474173+1044192994+1044474173+1045176959
3488+1045858241+1046186122+1046270132+1046420341+1046683578+1046847000
3479+1046788899+1046574889+1046328298+1046155031+1046051264+1045838874
3471+1045298473+1044388802+1043365908+1042693436+1042611304+1042676854
3462+1042070320+1040611893+1039125289+1038466743+1038610409+1039011353
3454+1039439373+1040009763+1040702057+1041314744+1041730262+1041976788
3445+1042172920+1042466147+1042865926+1043198988+1043347772+1043375948
3437+1043395056+1043511453+1043823140+1044257961+1044606504+1044897723
3428+1045450884+1046368328+1047269579+1047685421+1047504575+1047007831
3420+1046601834+1046419110+1046140651+1045418303+1044404283+1043527970
3411+1042850380+1042144161+1041537044+1041461908+1041948806+1042464917
3403+1042557607+1042366267+1042432465+1043110573+1044153482+1044912362
3394+1045016841+1044748292+1044671148+1044993522+1045383779+1045429574
3386+1045117563+1044706902+1044314184+1043980862+1043912268+1044229461
3377+1044734690+1045247238+1045782327+1046153347+1045922366+1045024225
3369+1044044599+1043653630+1043969398+1044549569+1044899019+1044888914
3360+1044697316+1044521846+1044463809+1044501378+1044484083+1044352594
3352+1044349744+1044719533+1045283446+1045642094+1045697799+1045644102
3343+1045569742+1045419664+1045224373+1045049875+1044825501+1044526056
3335+1044373386+1044556046+1044910613+1045160831+1045279560+1045393884
3326+1045507820+1045486963+1045256824+1044970593+1044949023+1045338374
3318+1045881495+1046203740+1046263720+1046306405+1046400196+1046266958
3309+1045700584+1044985814+1044610974+1044644137+1044737151+1044714351
3301+1044749458+1044920199+1044976552+1044695114+1044246691+1044073164
3292+1044430322+1045091135+1045532692+1045422902+1044893578+1044390163
3284+1044321115+1044800758+1045630240+1046473778+1047062111+1047280914
3275+1047155708+1046789935+1046284836+1045700001+1045133108+1044813583
3267+1044953428+1045429833+1045834016+1045971723+1046063830+1046293904
3258+1046461601+1046317416+1045993552+1045860249+1046059685+1046330695
3250+1046292285+1045871196+1045402564+1045251383+1045396799+1045524725
3241+1045476988+1045391552+1045416619+1045556529+1045826438+1046293450
3233+1046886706+1047393101+1047666960+1047665600+1047379628+1046929715
3224+1046545935+1046257696+1045848072+1045286750+1044917090+1045042815
3216+1045589239+1046283605+1046917019+1047348019+1047474067+1047324830
3207+1047060297+1046788445+1046474232+1046108394+1045839068+1045790359
3199+1045841271+1045765033+1045519803+1045261294+1045172879+1045343944
3190+1045654465+1045810439+1045710688+1045650061+1045920099+1046368976
3182+1046610643+1046515233+1046341836+1046457067+1046915012+1047283051
3173+1047023377+1046088250+1044999158+1044355185+1044403441+1044987110
3165+1045677266+1045996337+1045755900+1045243935+1044941121+1044975580
3156+1044992745+1044643878+1044051724+1043664382+1043759145+1044235355
3148+1044833987+1045399001+1045876313+1046230038+1046459723+1046558113
3139+1046429668+1046063312+1045742427+1045773907+1046097642+1046431676
3131+1046625217+1046658381+1046559602+1046446898+1046383809+1046227576
3122+1045854873+1045359684+1044819283+1044101016+1043091206+1041920500
3114+1040795265+1039690951+1038406633+1036979232+1035893573+1035686494
3105+1036377427+1037458681+1038373923+1038846182+1038756472+1037847449
3097+1035620944+1031544524+1025467398+1018058994+1010922765+1006018288
3088+1004568670+1006349861+1009997872+1013940601+1017117713+1019120687
3080+1019874255+1019220243+1016884401+1012867313+1007648234+1001788745
3071+995415089+988291102+980445545+972706799+966623390+963680497+964322332
3061+967712936+972487737+977629413+982719270+987687289+992433720+996597130
3051+999687058+1001475698+1002130099+1001894001+1000732817+998322746+994328393
3041+988720547+981932732+974744621+967980448+962161831+957310726+953130864
3031+949569972+947316457+947650491+951548785+958711571+967498926+976001475
3021+983176048+988942200+993507655+996905125+999076832+1000042402+999839663
3012+998522181+996417838+994195479+992461508+991503516+991571333+993029761
3002+995906845+999579081+1003213167+1006349602+1008883001+1010801705+1012251776
2992+1013596203+1015044915+1016355725+1017131963+1017274269+1016950340
2983+1016308375+1015452725+1014556332+1013732226+1012806815+1011395478
2975+1009223512+1006263842+1002597953+998355974+993798162+989192482+984531681
2965+979566965+974135949+968195105+961486314+953503568+944032275+933628058
2955+923429300+914544138+907671600+903162238+901116256+901215488+902595022
2945+904226004+905605279+906987922+908857787+911242403+913599554+915241483
2935+915702861+914755298+912329292+908580494+903953375+899125136+894979668
2925+892518296+892409931+894530727+898190074+902787397+907966511+913247254
2915+917953461+921564293+923913932+925124602+925563050+925706199+925789950
2905+925689163+925304542+924854564+924555184+924218947+923446401+922068875
2895+920194994+917986366+915651950+913631099+912599590+913153528+915386964
2885+918755804+922382635+925507734+927674065+928589242+927942355+925505532
2876+921566172+917216993+913972711+912890291+913989358+916478452+919475561
2866+922441125+925039556+926902555+927690129+927221367+925479558+922649370
2856+919151113+915408857+911535111+907436475+903371196+900361651+899903577
2846+903034959+909547360+918124592+927254207+935975429+943864319+950511188
2836+955147570+956946249+955894984+953377649+951704694+952844633+957323357
2826+964100420+971467952+978131792+983515264+987372298+989571728+990254953
2816+989774597+988378416+986245120+983831680+981881626+981046509+981663989
2806+983767749+987047138+990908706+994841071+998652699+1002252649+1005435915
2796+1008055721+1010195171+1012034269+1013694140+1015166040+1016275471
2788+1016869374+1017145954+1017564711+1018355071+1019356395+1020327536
2779+1021166993+1021851643+1022382004+1022812550+1023244002+1023737701
2771+1024264241+1024768563+1025262845+1025784656+1026282760+1026607142
2762+1026636225+1026443979+1026350706+1026652030+1027227019+1027601083
2754+1027481188+1027060812+1026750291+1026788312+1027163607+1027746757
2745+1028389499+1028993183+1029545307+1030056042+1030480823+1030810711
2737+1031143968+1031501320+1031700821+1031616163+1031406169+1031290355
2728+1031262891+1031186589+1031027118+1030862335+1030696646+1030363390
2720+1029707175+1028815381+1027896707+1026982372+1026009612+1025148456
2711+1024728144+1024825304+1025198266+1025668323+1026324473+1027251568
2703+1028271289+1029131667+1029805954+1030410285+1030949973+1031342562
2694+1031591484+1031803421+1032050789+1032277948+1032373488+1032359238
2686+1032419282+1032661792+1032966355+1033148237+1033178356+1033210354
2677+1033449561+1033936135+1034432684+1034666644+1034664312+1034671567
2669+1034811347+1035022830+1035243058+1035426431+1035476824+1035363212
2660+1035224663+1035233213+1035411079+1035645039+1035821999+1035945845
2652+1036127792+1036401781+1036604391+1036582757+1036428274+1036346595
2643+1036423804+1036636713+1036908500+1037079047+1037026193+1036845606
2635+1036721177+1036649279+1036474975+1036184663+1036003169+1036122675
2626+1036415772+1036588328+1036595193+1036660938+1036887255+1037135594
2618+1037298628+1037402588+1037484655+1037603902+1037852889+1038194696
2609+1038448865+1038535596+1038514869+1038373534+1038063920+1037770563
2601+1037837085+1038347172+1039004293+1039478172+1039669058+1039621514
2592+1039421884+1039210271+1039080142+1038960571+1038790154+1038749282
2584+1039065504+1039629417+1040043834+1040078293+1039892524+1039763885
2575+1039771334+1039849386+1040018249+1040363553+1040818324+1041176842
2567+1041413134+1041785837+1042416726+1042959976+1043025526+1042753674
2558+1042534353+1042389586+1042151157+1042000689+1042256283+1042830171
2550+1043353342+1043641970+1043739389+1043706873+1043600257+1043553037
2541+1043713933+1044005800+1044069148+1043657905+1043019308+1042633715
2533+1042701208+1043086802+1043540212+1043810121+1043799952+1043681352
2524+1043662763+1043757784+1043955083+1044341129+1044842602+1045162515
2516+1045226511+1045371537+1045797419+1046178543+1046194931+1046140133
2507+1046543474+1047376843+1048101781+1048425387+1048617115+1049017800
2499+1049524583+1049753167+1049593890+1049344903+1049285247+1049362068
2490+1049351510+1049159199+1048932429+1048936769+1049259338+1049649790
2482+1049782898+1049640462+1049491031+1049561051+1049806670+1049937187
2473+1049711712+1049351704+1049455795+1050242073+1051133802+1051447174
2465+1051190932+1050782733+1050362745+1049897805+1049604384+1049729590
2456+1050136623+1050484972+1050593272+1050401285+1049920605+1049457349
2448+1049521021+1050192004+1050871925+1051004515+1050781761+1050758573
2439+1051021745+1051176488+1050984630+1050609919+1050325242+1050292596
2431+1050580253+1051155307+1051817351+1052240642+1052130334+1051384150
2422+1050183259+1048963002+1048207491+1048185079+1048839869+1049846958
2414+1050732923+1051099861+1050911242+1050534070+1050435097+1050798343
2405+1051335699+1051493486+1050992792+1050113888+1049336807+1048882425
2397+1048726646+1048781055+1048864677+1048741608+1048398376+1048122379
2388+1048153535+1048373763+1048510498+1048557588+1048751130+1049151427
2380+1049489477+1049501006+1049253897+1049137500+1049634827+1050959822
2371+1052694312+1053888854+1053903039+1053214179+1052975491+1053535323
2363+1053970533+1053479748+1052426994+1051449505+1050547283+1049640851
2354+1048995648+1048636676+1048212413+1047622980+1047168403+1047146445
2346+1047524266+1047890427+1047871125+1047580748+1047330465+1047140357
2337+1046806711+1046294616+1045854355+1045741520+1045916861+1046085659
2329+1045989795+1045599991+1045072740+1044627750+1044422419+1044450531
2320+1044603006+1044808855+1045018654+1045117239+1045020468+1044826149
2312+1044762672+1044985491+1045495901+1046185604+1046838709+1047213615
2303+1047316863+1047444012+1047732187+1047925210+1047839580+1047715411
2295+1047775973+1047829152+1047655237+1047470569+1047690084+1048390474
2286+1049163474+1049460264+1049136658+1048641469+1048443329+1048387365
2278+1048075613+1047768784+1048224785+1049592595+1051134774+1052196532
2269+1052916677+1053755163+1054656608+1054976586+1054273476+1053027957
2261+1052261693+1052413715+1052952173+1053224802+1053341005+1053880887
2252+1054863233+1055499174+1055256859+1054689448+1054578427+1054706418
2244+1054403734+1053986402+1054530624+1056276125+1058151690+1058925338
2235+1058270419+1056678430+1054745476+1052906767+1051775184+1052067957
2227+1053729254+1055637076+1056766651+1057236190+1057723671+1058309866
2218+1058548489+1058396532+1058251441+1058093460+1057463284+1056376264
2210+1055394890+1054712377+1054117373+1053855950+1054538656+1056135050
2201+1057722246+1058290240+1057598594+1056407744+1055749845+1055756258
2193+1055538038+1054484700+1053169162+1052681940+1053489011+1055139490
2184+1056632700+1056905913+1055477086+1053059566+1051377284+1051949229
2176+1054755257+1057967088+1059458743+1058899105+1057752948+1057141492
2167+1056756546+1056255009+1056606726+1059111172+1063712317+1068847904
2159+1072505567+1073741823+1073239055+1071909008+1070008829+1067866076
2150+1066063445+1064658455+1063403221+1062776284+1063431008+1064695506
2142+1065068015+1064149858+1062887563+1062053806+1061589967+1061346421
2133+1061387228+1061446171+1060997230+1060006593+1058991472+1058267181
2125+1057634802+1056854094+1055973571+1055090003+1054158180+1053225061
2116+1052600067+1052546694+1052920175+1053257836+1053102835+1052267911
2108+1051163209+1050772240+1051641687+1052949064+1053309655+1052371224
2099+1050905154+1049776032+1049565455+1050531997+1052167190+1053427671
2091+1053879527+1053925580+1053812616+1053318269+1052561139+1052248544
2082+1052862462+1054142764+1055424297+1056085758+1055750428+1054448881
2074+1052690555+1051294569+1051048561+1052168485+1053906667+1055060985
2065+1055153027+1054852287+1055088125+1056042295+1057121477+1057692450
2057+1057697567+1057504479+1057310484+1057031443+1056745859+1056857009
2048+1057703138+1059099707+1060301763+1060530023+1059660058+1058245223
2040+1056816979+1055666677+1055303560+1056127472+1057586158+1058758289
2031+1059533103+1059801975+1058452302+1055141368+1051972741+1051294957
2023+1052796653+1054481462+1055364576+1055795316+1056313370+1057409134
2014+1059422600+1061774182+1063021773+1062397038+1060955452+1060495305
2006+1061362485+1062306421+1062593041+1062881669+1063624550+1063994533
1997+1063297447+1062481567+1063029222+1064833342+1066229847+1066140784
1989+1065105518+1063969595+1062859582+1061612444+1060297618+1059215910
1980+1058909275+1059896673+1061729164+1062789692+1062063652+1060429625
1972+1059188381+1058131611+1056048643+1052769448+1049758802+1048463020
1963+1048755664+1049240554+1048622426+1046759556+1044317358+1041607388
1955+1038515711+1035491851+1033717526+1034009911+1036063019+1038956620
1946+1042032039+1045032710+1047633343+1049365372+1050205930+1050641398
1938+1051034052+1051504757+1052171335+1053035341+1053894554+1054660235
1929+1055492308+1056505162+1057565431+1058433712+1059022563+1059467034
1921+1059826200+1059911312+1059667053+1059416835+1059419556+1059553377
1912+1059523322+1058980460+1057705275+1055998250+1054490724+1053422942
1904+1052571049+1051824994+1051393671+1051381559+1051441150+1050986962
1895+1049777846+1048255358+1047135239+1046680210+1046500789+1046063442
1887+1045380994+1044936717+1045041649+1045511900+1045912132+1046064219
1878+1046268383+1046900632+1047854025+1048712331+1049382083+1050123863
1870+1051091246+1052114594+1052856827+1053171753+1053293202+1053593749
1861+1054173985+1054777668+1055137029+1055246495+1055299609+1055379862
1853+1055253620+1054737250+1054162520+1054038026+1054424850+1054998220
1844+1055302912+1054864982+1053674715+1052198216+1050787850+1049528405
1836+1048444236+1047563324+1046807618+1045978006+1044929073+1043839398
1827+1043041590+1042508120+1041966748+1041393313+1040944178+1040611439
1819+1040369771+1040318471+1040405526+1040375148+1040064561+1039525262
1810+1039066799+1039182289+1040082244+1041504917+1043109731+1044694271
1802+1045998215+1046709034+1046799586+1046549563+1046224856+1045988629
1793+1046050617+1046595810+1047323858+1047664240+1047537156+1047222877
1785+1046839227+1046286066+1045529778+1044613305+1043597212+1042596535
1776+1041598190+1040387325+1038801424+1036914265+1035017908+1033428121
1768+1032193614+1031075827+1029833676+1028228798+1025886932+1022682032
1759+1018736778+1013647698+1006873744+998531897+988555959+975721655+958011181
1749+933893756+903025956+863787549+812422419+748538041+679985801+619595210
1740+576916259+551875238+539946039+544479011+575256259+624544186+671780690
1730+711829211+745441247+771337854+790350200+804282534+812584999+813017812
1720+800464299+763369553+693843970+610839853+543745069+505692039+498120018
1710+515493026+549986200+596938480+649544142+695375979+730214555+761925246
1700+794955620+821492637+838794071+852932966+865756064+876221038+885918258
1690+896415166+906449724+914652438+922863509+933347462+942962809+948257802
1680+951066875+953530189+956332914+959287143+961523428+962509143+963246971
1670+965554572+969787224+974002128+977175484+980072777+983350547+986592367
1660+989124859+990940833+992298863+993496385+995128080+997494624+999109154
1650+999322451+999233518+999875871+1001482240+1003103571+1004205099+1005056216
1640+1005867367+1006795758+1008312416+1010860259+1013607474+1015291440
1632+1016122218+1016779728+1017554866+1018312968+1018838018+1019276012
1623+1019870693+1020389200+1020442314+1020003801+1019103716+1017591786
1615+1015410817+1012565018+1008687775+1002661431+992469410+976683469+957233906
1605+939827151+930785886+932611511+941902930+952640145+961209085+967332589
1595+971873560+975167976+976612348+974802851+968517545+958750758+949870130
1585+947327015+953014597+963282337+972532431+978106984+980550996+980971761
1575+979790238+977255479+973500073+968074110+960345079+950663793+939689833
1565+927207311+913676116+900292085+885348062+861896180+829800803+804780703
1555+788012415+773797153+762751489+757691169+759562200+766910171+777570630
1545+790724523+806118976+822801180+841775958+863941838+882391955+894115856
1536+904324783+917884478+934394386+948819578+959363769+968231378+976907713
1526+984609927+990434633+995191233+999900355+1004088573+1007140609+1009456630
1516+1011403834+1012955340+1014213165+1015363015+1016375610+1016959862
1507+1016066772+1012031743+1004541141+992186028+970370245+932930065+877183628
1497+814400843+771485212+764098442+785190323+824601414+874258288+920481031
1487+951243899+967369121+973748737+972473487+965087948+955562116+949493670
1477+950266087+956885686+965239452+970948732+971525406+967218070+959247567
1468+947918198+933944215+920697243+911384903+903626466+890663847+861912567
1458+806525750+739856395+694840890+673611820+666990148+673604307+694991163
1448+727538137+761302454+788149021+805677225+813162255+811237204+804421148
1438+800248411+805216171+818133578+832975972+847943960+863783857+879002323
1428+890175589+895266094+893707009+885549441+871496759+851391305+825139289
1418+798836944+782035104+777484741+784260249+801750171+827240717+855195031
1408+880917205+903197151+922407896+937829813+948710824+955862598+960327461
1398+961986166+959691844+952252090+940562000+928790621+921470437+921234664
1388+928755061+941274827+953288262+961566243+966270572+968275942+968220691
1378+966774182+964311515+960091688+951878674+937117635+914328185+882634012
1368+842379447+797284466+754360933+723962218+719225050+744660603+787418836
1358+831067308+867694458+895849180+916534416+931435429+942071663+949514915
1349+954452103+957243946+957916094+956126742+951180227+942213516+928978786
1339+913173931+898112346+886126374+877514683+871901137+869450582+870670127
1329+875304112+881780110+888079343+893162917+897321922+901211990+904958003
1319+908221717+910723118+912662873+914849931+918119928+922218630+925616747
1309+926828260+925613962+922919149+920093365+918251611+917991937+919380085
1299+922215067+926358203+931711297+937923086+944299269+950024484+954431764
1289+957185002+958311727+958029317+956514019+953810527+949965346+945408959
1279+941221907+938557213+937483213+936686182+934519981+930183433+924023333
1269+917113486+910472123+904239088+897371538+888092686+874617519+855650255
1259+830749014+800665678+767365524+733637740+702725505+678301964+664127832
1249+662293851+670890450+683953078+694656806+698969841+696508858+688565883
1239+675939371+658365632+635141362+606087268+572564619+538025165+507372799
1230+485239370+474139103+473519355+480151683+489479860+497097124+499798998
1220+496099135+486362338+472706099+458476198+446954356+439805562+436724864
1210+436846378+440360990+448557130+462488201+481762780+504423170+527860057
1200+550009842+569798880+586523769+599269593+607437849+611689350+613798097
1190+615354008+616790995+617673915+617656880+617054362+616636123+617108188
1180+619049304+623330017+631047259+642643298+657441711+674403670+692931967
1170+712551300+732286641+750924664+767691850+782261226+794218958+802909218
1160+807745360+808313742+804488512+797484420+790901288+789295696+794741092
1150+805348437+817460458+828545568+837890812+845691546+852185292+857227282
1140+860218625+860326149+856565756+847669517+832659880+812487321+790797716
1130+771621300+755517389+738738997+716992974+689698373+660371002+633791364
1120+613450267+600842604+595956393+598158089+606789018+620887365+638551527
1111+657173227+674509249+689401389+701825874+712979190+725176646+740635354
1101+759793180+781076141+802360786+822303271+840392991+856403500+870080045
1091+881090149+888938037+892430788+888772413+874115658+847163382+812616025
1081+778999650+752418134+734101190+723466705+720115354+722513895+728541470
1071+738622535+755514928+779920203+808253439+835350807+858035389+875875474
1061+889820309+900920512+909954263+917507241+924035575+929873754+935207675
1051+940033453+944285149+948043792+951506489+954807188+957964998+960893058
1041+963301057+964423831+962567180+954796954+937354380+907542314+867366060
1031+826139059+796818295+786686060+792199532+804646104+819391727+837585149
1021+860552919+885737218+908444341+925681455+937400952+945004128+949704182
1011+951957114+951394172+947084311+938315157+925190412+908137771+886656864
1001+858851787+823134437+781084173+738190824+701521182+677427853+670918108
992+684047388+712799056+747198148+777140019+798859031+815524006+831792959
982+848159460+860463921+864096775+857783681+843454937+823772710+800846589
972+777036771+755686122+739913719+730477727+724906737+718298214+705207150
962+682796687+654007385+627230190+611564143+611882762+627713396+655076657
952+688585639+723056757+754808579+782188681+805075808+823969684+839454755
942+852206797+863093054+872947090+882115504+890280780+896924670+902035319
932+906147688+909581301+911727487+910859271+904483282+890680559+870265620
922+847884758+830345154+822764713+824960062+830965809+833107396+827932103
912+818675015+812275190+814287879+825762923+843141112+860364170+872296640
902+877868408+880469365+884642102+891774379+898974215+902137660+900050676
892+895621114+893301077+895418051+901065150+908137642+915569753+923386939
882+931575792+939691776+947218067+953815449+959380416+964102687+968320959
873+972181361+975572613+978434605+980904138+983053628+984726000+985795790
863+986397854+986619831+986021264+983727460+979068602+972003819+962990147
853+952627708+941268803+928833177+915490795+903033858+894880501+893182737
843+895435864+895379835+888550242+875704797+859238676+838627345+813481845
833+790082364+779626393+788307585+811839527+840278084+865621206+884617294
823+897565209+906413516+913148994+918828155+923623943+927514400+930970101
813+935103391+941011136+948915701+958016492+967079262+975154633+981755060
803+986335867+988190251+987490509+985734191+984291697+983340701+983049806
793+984594511+988849575+994955330+1001088744+1006080729+1009731008+1012151767
783+1013532531+1014360589+1015217275+1016221321+1017012846+1017276407
775+1016979747+1016177146+1014807133+1012654599+1009452355+1004900631+998267106
765+987706915+969638311+939184021+893780397+838163312+782592799+732502659
755+682925521+627660153+571145056+526098298+500615558+490962350+485896750
745+475187388+454797257+428391664+406885463+403910442+426603542+469049278
735+515122913+547631380+557196205+547968717+536511227+540218312+563331497
725+595564776+624499881+646686878+667071244+691694610+722504244+757086708
715+790881403+819212695+838600659+846836861+841539213+819100508+775739110
705+710004104+625589491+533051090+447827592+383694680+346218972+333534003
696+343008372+373333051+420241675+474961492+528499366+575843296+616056924
686+650112913+679169727+703815957+724173378+740409944+752801136+761603583
676+767254504+770403440+771811344+772388341+772694070+771417395+765151909
666+752630848+734468453+710278094+680848058+649872346+622198564+602434917
656+594957983+602446187+623695725+653362636+684803482+713454299+737660333
646+757780879+775037943+790336727+803807878+815353848+825182687+833804677
636+841779585+849331008+856156326+861878561+866519672+870163020+872089302
626+870036065+860663616+843000231+822915375+811338638+814011558+823264112
616+824024482+809471947+787244208+770416653+766623874+775268988+791128511
606+808668698+824093983+835663984+843273443+847027164+845636748+837541557
596+824502377+812112416+805061040+803352459+804917892+810109960+820809089
586+836433680+853312211+867709680+878141167+885000037+889442748+892603926
577+894818513+895606670+894954083+894229662+895263827+898747509+903773565
567+908809337+912828303+915658103+917707260+919308835+920100101+919329109
557+917114263+915104554+915242779+917717558+920593801+921765089+920877506
547+918675485+914908615+908510215+900398895+894547438+894763909+900831255
537+909043944+916236525+921986419+927164626+931877440+935427256+937587044
527+939072547+940566470+941733095+941768267+940475917+938168900+934626727
517+928419213+917381581+898959446+870159911+830387516+786960762+755529631
507+750123552+771236808+806888608+844009134+874622960+895408400+906362475
497+908434625+900041867+875513523+829588023+766872278+704147012+658648949
487+638429430+644548594+673310238+714640745+755518296+786848899+804139386
477+805242145+792336397+774293313+763807288+768632936+783537447+795345229
467+794531552+780770218+760830194+741825492+727770284+722041765+729555685
458+751944514+781140655+806970999+826635803+840598515+848599851+851808832
448+853425694+855823911+858348048+858382637+855227871+852169746+853115626
438+858986515+868273334+878823744+888756155+897026104+903519655+908334422
428+911369293+912855702+913516321+913900943+914214897+915203008+918101597
418+921639300+922402455+920340409+917604141+914639808+909488675+901377679
408+893893944+891977054+896200443+901849356+903529566+899170541+889892596
398+878776395+870104724+866250151+866018070+867483428+870242885+874430908
388+878866235+882592946+888138027+898049128+906874310+906652074+897930075
378+887179258+877450817+865721475+852829847
##END=
