##TITLE=S. Graessle SG-V2482 13-18
##JCAMP-DX=4.24
##DATA TYPE=INFRARED SPECTRUM
##DATE=11/8/2016
##SAMPLING PROCEDURE=ATR platinum Diamond 1 Refl
##ORIGIN=Angelika Moesle
##XUNITS=1/CM
##YUNITS=TRANSMITTANCE
##RESOLUTION=4
##FIRSTX=3997.4121
##LASTX=373.82813
##DELTAX=-1.4160156
##MAXY=1.0003531
##MINY=0.45108381
##XFACTOR=1
##YFACTOR=9.3165142e-010
##NPOINTS=2560
##FIRSTY=0.99696076
##XYDATA=(X++(Y..Y))
3997+1070100613+1068926435+1068890544+1069755583+1070722921+1071409910
3989+1072120635+1072983627+1073452005+1073016191+1071905287+1070783316
3980+1070103876+1069893198+1069918789+1069995178+1070134329+1070363624
3972+1070540841+1070569439+1070586457+1070696306+1070752734+1070624588
3963+1070436430+1070358442+1070383201+1070487548+1070763099+1071135575
3955+1071243121+1070899819+1070414294+1070283844+1070877490+1072207453
3946+1073454053+1073362821+1071761594+1069842144+1068645574+1068040796
3938+1067627502+1067492190+1067634412+1067830950+1068236311+1069153491
3929+1070043929+1069830372+1068418135+1066957019+1066656645+1067453483
3921+1068165808+1068206945+1068080334+1068181674+1068077071+1067294372
3912+1066099593+1065053307+1064307074+1063472681+1062229984+1061090866
3904+1061264181+1063345302+1066228508+1068443342+1069602037+1069586682
3895+1068216222+1066011113+1064266321+1064297542+1065880663+1066882421
3887+1066312574+1065431349+1065347347+1065375753+1065056250+1065877784
3878+1068259663+1069553926+1068178092+1065552587+1063408256+1062301830
3870+1062596191+1064531827+1066375144+1066408412+1065881750+1066845506
3861+1068875957+1069740228+1068742884+1066649671+1064172594+1062262164
3853+1063036547+1067360332+1070609873+1070003879+1067375687+1064520503
3844+1062371246+1061337627+1061164760+1061160090+1061323808+1062515003
3836+1064499902+1065386885+1064569702+1063434806+1063045760+1062873788
3827+1062202410+1061430586+1060849031+1059723797+1058149249+1058202414
3819+1060683394+1062694844+1063248056+1064396067+1066293061+1066813325
3810+1065450543+1063358353+1061763333+1061333340+1061298089+1060373871
3802+1059473069+1060659083+1063116007+1063895892+1063342103+1063428473
3794+1064086160+1064116742+1063408448+1062562219+1061963582+1061775296
3785+1061872926+1061623350+1060506560+1059055041+1058475214+1059245694
3777+1060342522+1060530424+1059696670+1058365812+1057249982+1057199248
3768+1058403495+1059895128+1060916911+1061377997+1060921390+1059545940
3760+1058560815+1059350105+1061043587+1061323168+1059581831+1056929967
3751+1055172188+1056249823+1059124712+1059979962+1058200815+1056517825
3743+1057446265+1059552465+1060273043+1059598017+1058487881+1057799484
3734+1058330753+1060157244+1061842089+1061945604+1060616154+1059173719
3726+1058917106+1059946310+1061143967+1061828142+1062163255+1062008750
3717+1061011918+1059376527+1057710876+1056684486+1056876354+1058027180
3709+1058904502+1059173655+1059215944+1058840461+1057978941+1057425984
3700+1057874978+1058642643+1058784225+1058350138+1057610047+1056338176
3692+1054425508+1052960489+1053977282+1057388493+1059778689+1059606654
3683+1058247710+1056961764+1055903322+1054547768+1052703300+1051714529
3675+1053737942+1057230853+1058183093+1057444090+1058293326+1060728434
3666+1061658921+1060515517+1058841228+1057545174+1056632664+1055932176
3658+1055621437+1056093527+1056948905+1056685254+1054683848+1052091932
3649+1050972967+1052837780+1056028014+1057870883+1058259226+1058043046
3641+1057628025+1057002006+1056127882+1055129643+1054182138+1053225163
3632+1051716896+1049267969+1047091777+1048133713+1052549562+1055734357
3624+1055754510+1053952587+1052068388+1051913243+1054274777+1056722489
3615+1056404969+1054167679+1052411307+1051908508+1052077665+1052976739
3607+1054707264+1055902938+1055379091+1053863978+1052789413+1052707778
3598+1053160482+1053779400+1054729528+1055830196+1056145732+1055110194
3590+1053428100+1052466071+1053024082+1054133835+1054200755+1053436097
3581+1052838292+1052529537+1052010040+1051180445+1050497039+1050244776
3573+1050091486+1049368989+1047810243+1046107101+1045706794+1047332524
3564+1049382936+1050031091+1049572885+1049139822+1049166756+1049147371
3556+1048477528+1047364193+1046707593+1047079813+1047914207+1048165254
3547+1047663223+1047201434+1047407250+1047900004+1047956816+1047514412
3539+1047030551+1046889161+1047042834+1047024409+1046487191+1045774546
3530+1045631365+1046323472+1047196060+1047237902+1046118873+1044505298
3522+1043376737+1043153008+1043526444+1043948887+1044012288+1043621131
3513+1043152176+1043231572+1044057329+1045048978+1045405013+1044974445
3505+1044334799+1044131286+1044455972+1044757689+1044506898+1043805194
3496+1043143923+1042865237+1042923713+1043018591+1042957813+1042951351
3488+1043364581+1044047540+1044276707+1043649984+1042606641+1041822214
3479+1041463556+1041298879+1041249104+1041409623+1041674938+1041702960
3471+1041325109+1040787123+1040495386+1040622317+1041021728+1041470082
3462+1041932383+1042504533+1043063184+1043169642+1042533771+1041428753
3454+1040401787+1039657474+1039020835+1038504281+1038518420+1039263437
3445+1040115936+1040169805+1039388001+1038590587+1038339092+1038358669
3437+1038192839+1037944479+1038023427+1038461864+1038876054+1038999786
3428+1038894608+1038640809+1038176973+1037567588+1037180653+1037373801
3420+1038027074+1038552008+1038473188+1037846785+1037022948+1036274349
3411+1035759203+1035553131+1035566887+1035629776+1035683901+1035701303
3403+1035474183+1034758084+1033625812+1032491109+1031752745+1031488647
3394+1031521467+1031741677+1032208200+1032885849+1033504063+1033813458
3386+1033870909+1033961309+1034238204+1034526166+1034565256+1034370893
3377+1034201225+1034206151+1034250871+1034110633+1033757477+1033407969
3369+1033276623+1033358770+1033503615+1033587489+1033566697+1033500736
3360+1033508157+1033532661+1033283149+1032655019+1032014605+1031764453
3352+1031776737+1031607389+1031166968+1030871137+1031151614+1031995348
3343+1032937735+1033379819+1033034533+1032266356+1031835084+1032126181
3335+1032791674+1033262228+1033372525+1033331964+1033282061+1033103500
3326+1032644143+1032009807+1031482377+1031175029+1030941000+1030628470
3318+1030310183+1030263607+1030664745+1031221989+1031358197+1030935946
3309+1030423231+1030141026+1029889979+1029557105+1029507842+1030087285
3301+1031131397+1032160985+1032803190+1032891223+1032421181+1031653836
3292+1031101903+1031127686+1031575272+1032013005+1032222915+1032271026
3284+1032284909+1032329758+1032311972+1031987734+1031285006+1030548115
3275+1030201229+1030229635+1030223365+1029927598+1029484298+1029098003
3267+1028816502+1028766984+1029145538+1029784864+1030254330+1030520284
3258+1030872544+1031198061+1031049186+1030357782+1029441689+1028490281
3250+1027559666+1026839664+1026550806+1026791617+1027558706+1028632631
3241+1029516927+1029820308+1029660620+1029491464+1029615772+1029995990
3233+1030450037+1030844970+1031057055+1030916816+1030398663+1029798171
3224+1029463442+1029376304+1029259482+1029039271+1028907606+1029007859
3216+1029330433+1029769190+1030015247+1029666186+1028780867+1028094197
3207+1028316135+1029302474+1030204364+1030328544+1029567917+1028222216
3199+1026866727+1026215948+1026467827+1026897116+1026744466+1026265851
3190+1026246721+1026809595+1027338432+1027348988+1026990267+1026782788
3182+1026972289+1027142277+1026719259+1025852429+1025268059+1025201203
3173+1025175996+1024962631+1024992892+1025537276+1026076414+1025955176
3165+1025305806+1024856045+1024989437+1025405674+1025667662+1025718204
3156+1025729912+1025701954+1025445916+1024935760+1024440639+1024171166
3148+1023976803+1023620321+1023232362+1023210865+1023671247+1024205842
3139+1024254145+1023642905+1022767502+1022293941+1022602632+1023431651
3131+1024161890+1024545946+1024916823+1025526400+1026023248+1025893566
3122+1025128076+1024143592+1023251939+1022441985+1021555770+1020617477
3114+1019997152+1020024790+1020404752+1020436549+1019944883+1019552253
3105+1019850580+1020699752+1021517000+1021911036+1021831576+1021398513
3097+1020867501+1020561177+1020551005+1020525734+1020165029+1019481622
3088+1018683056+1017903619+1017110875+1016168104+1015000325+1013645283
3080+1012092231+1010358252+1008776218+1007695576+1006797333+1005282284
3071+1002763877+999430270+995490286+991144812+986997220+983912614+982390015
3061+982301982+983168300+984480093+985910564+987470269+989350246+991465531
3052+993409356+995028369+996629595+998362487+999827250+1000613341+1000866947
3042+1001064189+1001482986+1002071194+1002663497+1003121959+1003273713
3033+1002907507+1002025834+1001036167+1000453397+1000353784+1000274772
3025+999697632+998478414+996775144+994839827+993121842+992285657+992724542
3015+994124304+995713055+996908601+997694051+998434206+999335904+1000153919
3005+1000501828+1000263128+999615933+998920050+998621660+998936877+999617084
2995+1000269654+1000757162+1001074298+1001120681+1000887868+1000647185
2986+1000711802+1001163674+1001900374+1002719733+1003316578+1003457264
2978+1003198668+1002737263+1002150206+1001521436+1001090740+1000969823
2969+1000911603+1000631574+1000208172+999989497+1000220071+1000889979
2961+1001849320+1002894071+1003746826+1004121222+1003885145+1003150237
2952+1002253849+1001594050+1001307495+1001169752+1000956323+1000697279
2944+1000448471+1000138244+999790591+999612990+999775940+1000227941+1000678150
2934+1000744494+1000233827+999267064+998160703+997317928+997038923+997228552
2924+997491819+997612352+997664366+997690149+997587465+997308268+996978976
2914+996816537+996972898+997491435+998358969+999420738+1000298700+1000708411
2904+1000804889+1000923247+1001132005+1001292141+1001346458+1001400966
2896+1001667176+1002304839+1003195853+1004003695+1004528950+1004811538
2887+1004871229+1004614232+1004094223+1003631539+1003500833+1003624949
2879+1003735182+1003671653+1003349590+1002677380+1001799226+1001213513
2870+1001347289+1002108557+1003018251+1003660009+1003844200+1003484903
2862+1002598688+1001448182+1000501956+1000125769+1000303498+1000666122
2853+1000814869+1000627736+1000229412+999786497+999500518+999614269+1000133318
2843+1000723830+1001120362+1001402310+1001716439+1002074649+1002521403
2835+1003136418+1003791482+1004190446+1004194860+1003957888+1003726737
2826+1003609467+1003545745+1003467501+1003387977+1003295849+1003093297
2818+1002754728+1002455250+1002420446+1002692287+1003122918+1003539283
2809+1003843560+1004007406+1004061915+1004089553+1004159225+1004213221
2801+1004071959+1003659881+1003189903+1002943718+1002933673+1002968989
2792+1002959584+1002935337+1002927531+1003019595+1003295210+1003636721
2784+1003843688+1003960319+1004163447+1004380330+1004352756+1004066265
2775+1003832236+1003867743+1003990132+1003901651+1003648749+1003522905
2767+1003590337+1003630579+1003466797+1003103021+1002659018+1002328255
2758+1002224868+1002229026+1002178612+1002152765+1002317507+1002553711
2750+1002488966+1001940104+1001176918+1000605663+1000270678+999881759+999299181
2740+998713403+998366198+998354938+998654928+999103154+999441594+999540247
2730+999481452+999357592+999163421+998921074+998745008+998716154+998803931
2720+998941611+999097652+999257723+999395659+999486442+999551380+999685732
2710+999973311+1000345083+1000607519+1000647121+1000521277+1000342972
2702+1000190898+1000091733+1000015088+999960003+1000057889+1000415714
2693+1000880894+1001148704+1001086709+1000809751+1000508418+1000309064
2685+1000219624+1000129543+999916563+999611007+999428927+999568270+999932621
2675+1000156734+999996342+999604801+999334816+999378705+999644211+999857447
2665+999759306+999325283+998821653+998566831+998615646+998719801+998652817
2655+998529404+998661582+999067263+999332769+999117165+998622620+998362551
2645+998539577+998852938+998926384+998755756+998643476+998826068+999306090
2635+999980732+1000779106+1001599424+1002175349+1002181555+1001615163
2627+1000925742+1000538935+1000379887+1000142851+999869411+999892123+1000293134
2617+1000771813+1001038023+1001089588+1001057536+1000961506+1000753003
2608+1000545205+1000596770+1000975645+1001382797+1001469230+1001243902
2600+1001040326+1001137891+1001519709+1001922190+1002030248+1001697374
2591+1001091188+1000603104+1000516671+1000728628+1000868035+1000711034
2583+1000426910+1000355256+1000609182+1001033224+1001456947+1001726164
2574+1001569995+1000887804+1000128968+999876257+1000072412+1000202414
2566+1000149248+1000234978+1000502980+1000587366+1000310216+999928143+999771846
2556+999948679+1000390059+1000950629+1001432251+1001671847+1001649583
2547+1001440377+1001124136+1000806296+1000539319+1000119499+999293551+998315784
2538+997891806+998356282+999273014+1000013936+1000403879+1000643794+1000855495
2528+1000914354+1000707323+1000386669+1000209067+1000152831+999936140+999475182
2518+999108592+999170970+999468593+999461427+998980765+998488331+998521919
2508+999136166+999994743+1000740656+1001122665+1001008337+1000507650+999959044
2498+999611262+999427327+999337375+999450679+999794814+1000091157+1000042214
2488+999639988+999040584+998395820+997910039+997837233+998287634+999083705
2478+999816374+1000098898+999846379+999297005+998764969+998419107+998205359
2468+997905753+997369750+996744307+996387441+996524544+997076477+997842543
2458+998671690+999329570+999451255+998967842+998383600+998219882+998344894
2448+998227239+997693412+997128747+997019154+997453496+998059618+998377970
2438+998240674+997784771+997307244+997166942+997555028+998237539+998726263
2428+998777061+998572909+998386223+998223273+997901594+997383441+996853324
2419+996500937+996347903+996270938+996152516+996025457+995965126+995854957
2409+995520291+995114610+995040972+995463863+996115537+996559668+996575854
2399+996341953+996204721+996275288+996397165+996396781+996176187+995723355
2389+995180571+994754801+994552313+994574833+994715519+994728570+994439712
2379+993971590+993632254+993717472+994413994+995531935+996336195+996133706
2369+995096249+994139850+993927189+994206963+994220206+993669552+993068421
2359+993096443+993808895+994619041+995063492+995348448+995720860+995675308
2349+994563637+992565494+990600556+989615624+989829180+990610089+991321454
2339+991811904+992061608+992012154+991733212+991434566+991335912+991554459
2329+991901921+991821821+990854035+989180769+987571290+986831263+987210265
2319+988227954+989183968+989784460+990132753+990348165+990447970+990441252
2310+990355267+990179137+989805573+989082180+988154188+987646783+988084644
2300+989187615+990144717+990514187+990514187+990604267+991038737+991630848
2290+991798149+991125427+989986373+989289211+989498033+990271008+991129585
2280+991891044+992211059+991504557+989880170+988493588+988438759+989734302
2270+991548637+992983843+993712993+994147784+994726523+995036302+994203316
2260+992124626+989808580+988562812+989004704+990591151+992104281+992723135
2250+992406254+991463739+990385784+989912607+990593135+992155591+993504427
2240+993498093+992092765+990644445+990552701+991765329+993102713+993633981
2230+993260545+992453022+991849779+991853938+992435748+993255747+993791110
2220+993660276+993148328+992897089+992899904+992533250+991742745+991403025
2210+992301843+994295315+996518403+997955143+997864039+996297808+994454299
2200+994037039+995732056+998309834+999618172+998591271+996018675+993389843
2191+991579282+990837273+991140014+991921242+992402608+992798308+993873001
2181+994928692+994281112+992142604+990702216+991069319+992150217+992667282
2171+992482899+991772174+990516874+989240460+989134962+990646812+992460827
2161+992908029+992155911+991876330+992625825+993173728+992712322+992000638
2151+992388021+994433507+997283188+999325347+999720984+999132264+998675337
2141+998518208+998000311+996861769+995633531+994768556+994089308+993390355
2131+992963306+993086974+993478708+993685547+993699238+993711458+993498925
2121+992649241+991289593+989994114+989016092+988163465+987356518+986859925
2111+986932219+987421071+987801672+987773522+987715815+988097696+988617384
2101+988604909+988091810+987746588+987953875+988534086+989139952+989567449
2091+989868591+990322702+991172514+992367996+993561559+994257441+994035695
2082+992782122+990827548+989037268+988522954+989609930+991121844+991489394
2072+990581491+989584531+989219156+989198683+989320816+989853044+990756469
2062+991666100+992643419+993854127+994769196+994757936+994127631+993651319
2052+993493870+993252996+992580465+991445058+990198010+989332204+988901188
2042+988552127+988172421+988107164+988865873+990763379+993295796+994953579
2032+994630685+992949103+991223696+989831228+988589234+987933018+988649501
2022+990807011+993503339+995692902+997239492+998913781+1000940521+1002093010
2012+1001143841+998533691+995838834+994305168+994304080+995433090+996847310
2002+997880993+998156352+997298863+995327271+993074563+991345893+989976456
1992+988418287+986902022+986295196+986903046+988014397+988489174+987518892
1982+985079945+982025408+979697462+978953085+979487104+980480865+981404955
1973+981588570+980217406+977489793+974820400+973822864+975401251+979016167
1963+982563714+983830978+982476897+980163473+978568517+978032322+978056185
1953+978181837+978270958+978433012+978793269+979133949+978948031+978231164
1943+977933029+978968695+980951547+982806892+984039353+984667483+984801452
1933+984784946+985187108+986131414+986899335+986647968+985432141+984128153
1923+983473345+983462596+983631881+983588248+983065681+981921829+980357005
1913+978865180+977862078+977350387+976975799+976511259+976075509+975856194
1903+975980758+976526486+977295110+977832201+977951263+977920553+977941666
1893+977823436+977315071+976326940+974842344+973140225+971920880+971726836
1883+972488168+973764965+975198634+976514714+977388965+977728621+977827594
1873+977991632+978360910+979187562+980706066+982394941+983235221+983212061
1863+983144629+983386207+983607761+983477695+983078220+982634409+982210814
1854+981759646+981243732+980634155+979805584+978603384+977253525+976535506
1844+976997039+977913516+978221247+977892659+977381992+976999918+976873179
1834+976935173+977091726+977408606+977725358+977427096+976474984+975748136
1824+975811410+976279853+976645356+976880729+977021351+976937157+976569926
1814+976028549+975448594+974849830+974081397+973014574+971739760+970399753
1804+969057699+967855947+967107028+967043690+967500169+968003863+968192021
1794+968097014+968107506+968471154+968837169+968952840+969218666+970090870
1784+971453397+972759688+973760294+974555214+975065370+975085075+974714901
1774+974398277+974681121+975681088+976682143+977085328+976946817+976339800
1764+975319424+974219780+973297290+972212873+970678439+969253598+968602372
1754+968589448+968830195+969550133+971187443+973364914+975004399+975602396
1745+975385704+974830381+974473195+974693853+975232415+975295816+974718996
1735+974443381+975460238+976896787+977420250+977253461+976817199+976197834
1725+975541617+974909137+974030343+972732369+971329217+970404167+970152608
1715+969955942+969455830+968952648+968666285+968520800+968457911+968603907
1705+968822966+968574413+967811227+967260957+967451354+967917365+968505766
1695+969456726+969983516+969472464+968471666+967600038+966802815+965979170
1685+965965927+967763948+969833873+970218057+969526013+968667373+968180697
1675+968542425+969558962+970280115+970486122+970853865+971445784+971430877
1665+970808377+970445561+970926927+971713785+971800410+971007218+969709245
1655+968492458+968661679+971215913+972860324+971691649+969890685+969483532
1645+970662316+971420896+970991992+970109615+969287058+968698466+968690788
1635+969642516+970717849+970705245+969989210+969492489+969720185+970406727
1626+970962498+971580264+972829743+974112554+974297193+973470221+972648815
1616+972673062+973257624+973792475+974294378+974912464+975551790+975987348
1606+976102059+975899891+975385385+974522841+973282895+971737393+970082745
1596+968427329+966477618+963614629+959517451+954784531+950904749+949272109
1586+949994606+952016740+954332658+956525548+958347625+959666391+960994370
1576+963337031+966328551+968211406+968942220+969846860+971493959+972539989
1566+971914482+970434685+969182839+968395149+967239525+962303988+949828009
1556+937015957+930130900+928952244+932675217+939940556+948505532+955864149
1546+960992771+964783688+968248960+971518078+975174899+979764830+982912391
1536+983516785+982957687+982626924+983117055+983860728+984399674+985210971
1526+986819683+988875981+990708806+992504972+994734648+996448091+995083197
1517+987381981+971222055+948454350+924039291+903699145+892567843+894351725
1507+909598310+925814088+930839066+929126710+926118940+924721162+927616268
1497+936828503+950218463+962988866+974239421+986939641+1003916686+1022893026
1487+1036406590+1037625552+1017567482+963051756+870759352+765165597+685761378
1477+653979960+664835519+701284601+747366634+788968904+816920378+833827560
1467+846846196+861023973+877323562+892179884+902262724+906794500+902219347
1457+878366714+838243793+809909862+806012166+821554966+845267105+861953949
1447+861946208+851158017+843618663+847350721+862192009+881696674+892966487
1437+875824187+817884390+746579648+700881671+689554471+705043658+733864585
1427+761615810+783491158+802158359+818690953+831341270+839899720+846169315
1417+850794433+853000055+853183478+852574221+852193364+852846381+854985338
1408+858511325+863073554+868112990+872633954+876096987+879133803+882533243
1398+886154364+889409151+892226076+894522161+895747265+895787570+895426482
1388+895839456+897587191+900016157+902335786+904456062+906502955+908446397
1378+910227016+911975710+914018381+916450674+918800565+920693656+922332054
1368+923900140+925278085+926587959+928318868+930562172+932607785+933900001
1358+934731387+935652982+936938288+938554294+940333697+942117004+943860068
1348+945698203+947775166+949952637+951877845+953320344+954077005+953342672
1338+949769853+943315364+936556663+933035794+934480596+939537946+945135138
1328+948968664+950500028+950178157+948383847+944729905+937169375+921254546
1318+892272396+851150404+807333364+773331354+756704457+756585331+766961443
1308+782667833+801308035+821264253+840467904+857149310+870491287+880169725
1298+885680291+886527288+883197072+877694823+872680593+869776211+868567358
1289+867193827+864016773+859004335+853968353+851712765+854407430+861964377
1279+871975051+881596997+889406720+895537419+900688816+905355968+909727416
1269+913908980+917994193+921938337+925569950+928731138+931158185+931882217
1259+928328336+916581636+894856379+868103778+846987650+839231924+842654460
1249+849105174+854116524+859857665+869426319+881746128+893048506+901134354
1239+906588813+910676393+913369650+913402279+909086171+898038360+876753587
1229+843003392+800503007+760056361+733657234+726612938+735625436+753414354
1219+773699991+792854124+809530604+823869988+836480384+847627232+857173813
1209+864981424+871124023+875812480+879341601+882130249+884627223+887085235
1199+889537617+892011368+894604692+897358920+900217174+903080675+905791142
1189+908091322+909480016+909022065+905864332+900558558+895389183+892558695
1180+892330487+893568066+895569791+898524972+902588561+907376246+912189843
1170+916075575+917638095+915094993+906594379+890960219+869204893+845783915
1160+827436665+819407564+822124557+831470889+842239438+851530046+859497153
1150+867535850+876114773+884340348+891152279+896343982+900392792+903761843
1140+906560535+908677867+910031565+910539865+909855627+907488399+903525830
1130+899020029+895237365+892453132+889752453+886293963+882737842+881062594
1120+882780963+887576902+893764669+899679572+904472312+908028624+910561362
1110+912285681+913296460+913579304+913017391+911369972+908433025+904566998
1100+901143503+899961521+901811555+905847634+910524639+914785662+918328603
1090+921298690+923979344+926543942+928961457+931111226+932805411+933467642
1080+931884585+926810024+917880250+904952718+886636306+862127328+835992300
1071+818271133+816713475+829846438+849313037+867468802+881288626+891012041
1061+897736002+902437830+905952621+908969412+911844109+914607933+917305349
1051+920143322+923182441+926151569+928779825+931137009+933453759+935761040
1041+937910681+939850988+941707164+943467311+943927052+939402762+925320183
1031+902149420+879165280+868320021+873404562+887836586+902816065+914399559
1021+922923589+929325488+933311473+933482165+928500691+918585664+906331495
1011+896303164+892903341+897276261+906245702+913908660+913328577+899787566
1001+877535199+861322684+864409274+885124008+910003223+928148688+937475123
991+939996216+937904987+934229037+932640926+934992095+940024494+944705721
981+946479047+944415776+939032141+931991555+925912485+923035677+922812844
971+920116068+905553786+869352873+808738179+733454490+662594966+614261697
961+597187726+609397814+641505197+681484617+719395774+750138263+773036290
952+789360062+799853317+804122017+802554891+798249275+795380720+795358712
942+796119979+795777316+795649617+798865506+806868504+818195576+830218083
932+841163786+850423301+857612186+861924455+862574786+859504062+852841839
922+841865106+826290894+809424081+798140897+797900278+808265322+823965059
912+839383743+851552246+860147995+866064370+870269157+873513963+876357311
902+879045386+881566288+883979196+886493316+889209157+891956155+894393247
892+896261835+897617324+898783185+900063181+901560764+903178817+904707109
882+906039822+907332934+908845424+910691428+912751309+914671079+916017547
872+916602301+916434360+915265685+912696992+909069793+905737337+903916732
862+903574325+903748855+903318159+901011198+895964916+889635311+886070809
852+888409632+895524175+903500623+909750384+914361108+918307747+921963160
843+925218650+928010880+930481816+932883016+935408652+938129292+941054147
833+944113611+947090479+949736265+951963767+953878291+955723271+957748156
823+959910465+961826908+963285337+964592140+966177628+968205328+970718233
813+973663177+976659047+979259025+981537772+984066223+987286014+991100923
803+995093370+999080378+1003335259+1008162355+1013454310+1018847094+1024124207
793+1029363381+1034853794+1040865048+1047301751+1053609156+1059192848
784+1063964155+1068233048+1071803244+1073362821+1072043991+1065417018
776+1051564502+1026177306+982285092+914266869+824577067+726811204+640153483
766+578665370+544308477+528244645+517693971+504235427+489690771+484176590
756+496149130+524519145+561127882+598439060+633118910+664737506+693881263
746+721299038+747711216+773864030+800451953+827995892+854918033+872301335
736+863465415+817968968+747259024+678339807+631690935+612228367+617648405
726+643663219+681440728+719999913+753229651+780900841+804371273+824359288
717+841498836+856522715+869655870+880776167+890838150+902336298+916884633
707+931948178+939562386+928199614+889900881+830622932+772120645+737419874
697+731584174+738475117+736359576+714589535+676317737+630026306+582960109
687+542958938+520679445+523774640+549296860+584904063+618118767+643427079
677+661735110+676264956+689594905+702466776+713421628+718410394+712876412
667+702600553+702005115+713771136+731841108+750170572+765395660+777437104
657+787454239+796215689+804166354+811488057+818243239+824639957+830843718
647+836891183+842910241+849044331+855307976+861680702+868188228+874984228
637+882402089+890800147+900296570+910629754+921312446+930474778+930172485
627+904421514+842364002+759358239+694226230+676006743+700183998+739880957
617+771263796+786982022+793456343+800079477+810745023+823569934+835524945
607+845312145+853019504+859220834+864534798+869391707+874005118+878224812
598+881627386+884301194+887086451+890626449+894711151+898683828+902050063
588+904628545+906419336+907617825+908804798+910676073+913304393+916126565
578+918806003+921496637+924268906+926906374+929301817+931615624+933657719
568+934138253+931765267+928018366+927282370+932650010+942609950+953115104
558+961005502+962659574+951129949+920596794+876627296+838085577+823690148
548+836313531+862985201+888854978+907387698+919153592+926682901+931983174
538+936283479+940333697+944651085+949284201+953646437+957206460+960157929
528+962859248+964889379+965458906+964908636+964764111+966073537+968448442
518+970665899+972122409+973412385+975289930+977758755+979965719+980272811
508+977316735+972249212+968919764+970378960+976178065+983592023+990425066
498+995991676+1000158589+1002926892+1004696315+1005935493+1006765024+1007421177
489+1008596186+1010837506+1014207900+1018796040+1024700643+1031016365
480+1035874042+1038120865+1038289445+1036599290+1029009586+1006887029+965516613
470+912437691+861467849+824775653+810424304+818349506+839970607+864595064
460+886278864+905128720+922753217+938448219+951357261+962502573+972861860
450+982103204+989487093+995004825+999728085+1005206791+1012059603+1019298391
440+1024658290+1024294963+1012359017+984468769+944778528+906083263+880442013
430+872746618+880477520+896928927+916403331+935996349+953222266+965783847
421+974225922+981773785+989400020+994474580+996787875+998237092+999962754
411+1002249179+1005674146+1011095783+1018554909+1026872357+1034123556
402+1038545355+1039633930+1038804143+1038877270+1040927746+1042415988
394+1041467779+1038870552+1036126689+1034407168+1035311233+1041273096
385+1053071938+1066097226+1073362821+1073741823+1068827462+1063494945
377+1063279021+1069115744+1073362821
##END=
