##TITLE=tert-Butyl-(2,2-di(pyrazol-1-yl)ethyl)carbamate
##JCAMP-DX=5.0
##DATA TYPE=LINK
##BLOCKS=1


$$ === CHEMSPECTRA SPECTRUM ORIG ===
##TITLE=tert-Butyl-(2,2-di(pyrazol-1-yl)ethyl)carbamate
##JCAMP-DX=5.00
##DATA TYPE=INFRARED SPECTRUM
##DATA CLASS=XYDATA
##$CSCATEGORY=SPECTRUM
##ORIGIN=
##OWNER=
##XUNITS=1/CM
##YUNITS=TRANSMITTANCE
##XFACTOR=0.12501352010900002
##YFACTOR=0.00316933568298787
##FIRSTX=4000.433
##LASTX=400.2361
##MAXX=4000.433
##MAXY=101.41874185561184
##MINX=400.2361
##MINY=52.788455135845965
##NPOINTS=3734
##XYDATA= (X++(Y..Y))
3734C1364C1338C1377C1353C1341C1351C1366C1333C1354C1380C1360C1383C1413C1354
3720C1325C1344C1354C1320C1284C1314C1424C1424C1344C1393C1427C1392C1383
3707C1374C1309C1335C1402C1351C1269C1345C1335C1326C1367C1329C1301C1282
3694C1265C1269C1265C1277C1304C1345C1332C1387C1394C1335C1394C1428C1408
3681C1431C1385C1319C1349C1356C1354C1415C1404C1432C1356C1288C1284C1318
3668C1340C1364C1378C1397C1317C1275C1352C1368C1413C1494C1452C1338C1317
3655C1321C1357C1399C1424C1395C1454C1463C1369C1383C1373C1337C1351C1352
3642C1340C1353C1380C1407C1380C1394C1445C1464C1413C1507C1343C1492C1407
3629C1198C1294C1322C1358C1391C1342C1420C1551C1424C1445C1487C1458C1489
3616C1484C1418C1524C1428C1405C1459C1348C1415C1446C1383C1364C1377C1325
3603C1241C1462C1569C1515C1359C1335C1394C1486C1564C1412C1402C1499C1444
3590C1411C1450C1412C1421C1397C1368C1462C1398C1478C1612C1396C1447C1391
3577C1328C1310C1307C1250C1299C1243C1326C1488C1360C1312C1532C1398C1363
3564C1547C1354C1272C1451C1473C1368C1488C1467C1467C1462C1387C1467C1487
3551C1509C1626C1604C1345C1414C1414C1430C1468C1138C1389C1478C1406C1329
3538C1329C1358C1388C1538C1353C1237C1444C1503C1497C1429C1260C1367C1508
3525C1445C1455C1357C1392C1474C1439C1391C1409C1431C1414C1409C1376C1371
3512C1421C1425C1389C1352C1335C1402C1418C1258C1364C1437C1407C1360C1326
3499C1279C1333C1469C1550C1326C1408C1446C1475C1383C1440C1467C1413C1413
3486C1531C1478C1456C1562C1506C1415C1434C1490C1520C1134C1414C1762C1532
3473C1519C1512C1492C1624C1073C1218C1445C1451C1378C1498C1492C1543C1665
3460C1776C1607C1630C1629C1318C1396C1491C1563C1567C1455C1332C1447C1505
3447C1559C1507C1450C1430C1389C1385C1468C1456C1474C1454C1449C1374C1356
3434C1608C1473C1345C1451C1414C1368C1478C1545C1511C1335C1362C1475C1449
3421C1456C1425C1425C1462C1436C1454C1515C1475C1470C1671C1442C1340C1418
3408C1418C1415C1342C1310C1322C1426C1468C1502C1534C1527C1572C1444C1350
3395C1383C1516C1522C1456C1624C1527C1548C1445C1408C1392C1440C1406C1380
3382C1333C1406C1428C1474C1478C1421C1548C1503C1456C1523C1504C1483C1439
3369C1709C1611C1553C1494C1434C1509C1494C1493C1499C1507C1557C1501C1459
3356C1494C1537C1392C1421C1546C1647C1573C1265C1237C1465C1513C1432C1350
3343C1402C1466C1487C1488C1560C1556C1426C1489C1491C1485C1503C1473C1511
3330C1539C1485C1511C1545C1461C1489C1485C1468C1458C1435C1425C1500C1406
3317C1343C1399C1411C1382C1410C1388C1496C1481C1454C1437C1354C1482C1483
3304C1515C1464C1456C1480C1508C1482C1461C1484C1440C1380C1372C1418C1455
3291C1475C1471C1446C1414C1464C1408C1453C1350C1407C1425C1436C1445C1468
3278C1465C1440C1492C1459C1366C1402C1439C1447C1437C1439C1454C1458C1462
3265C1446C1434C1465C1454C1443C1431C1415C1383C1404C1435C1407C1433C1385
3252C1379C1408C1385C1415C1475C1452C1433C1406C1452C1510C1466C1467C1516
3239C1469C1506C1532C1558C1589C1562C1478C1463C1465C1470C1451C1442C1478
3226C1451C1425C1458C1458C1455C1395C1382C1387C1375C1423C1478C1434C1401
3213C1446C1463C1452C1468C1485C1520C1527C1515C1516C1534C1466C1470C1498
3200C1520C1490C1443C1418C1469C1458C1420C1448C1445C1445C1477C1478C1421
3187C1417C1421C1424C1421C1430C1463C1493C1502C1452C1432C1480C1535C1543
3174C1499C1469C1496C1542C1465C1432C1481C1506C1488C1464C1437C1436C1466
3161C1461C1399C1402C1396C1339C1285C1328C1424C1421C1395C1347C1344C1389
3148C1380C1350C1367C1427C1509C1532C1512C1520C1531C1515C1461C1433C1461
3135C1459C1434C1401C1393C1393C1380C1427C1408C1301C1291C1261C1183C1193
3122C1208C1215C1208C1133C1035C0961C0828C0671C0508C0328C0060B9728B9512
3109B9417B9441B9500B9598B9770C0051C0239C0359C0486C0596C0714C0810C0852
3096C0891C0930C0943C0960C1011C1041C1039C1127C1171C1104C1090C1123C1115
3083C1120C1155C1204C1215C1215C1213C1229C1271C1263C1234C1231C1231C1217
3070C1187C1191C1228C1215C1155C1156C1213C1184C1170C1188C1203C1248C1341
3057C1323C1316C1314C1250C1264C1313C1374C1402C1385C1397C1421C1388C1393
3044C1398C1372C1421C1461C1442C1416C1376C1351C1372C1349C1372C1398C1399
3031C1345C1324C1336C1331C1317C1362C1397C1399C1389C1385C1380C1393C1378
3018C1395C1416C1462C1494C1473C1466C1456C1467C1490C1498C1458C1420C1416
3005C1391C1364C1382C1440C1404C1337C1348C1382C1397C1350C1355C1462C1451
2992C1386C1360C1391C1447C1445C1465C1503C1508C1473C1406C1414C1488C1539
2979C1536C1455C1446C1472C1503C1513C1468C1394C1423C1450C1448C1450C1421
2966C1358C1337C1366C1410C1417C1398C1409C1399C1410C1380C1383C1459C1485
2953C1499C1502C1504C1541C1532C1462C1409C1428C1433C1442C1475C1465C1437
2940C1439C1435C1410C1380C1388C1391C1373C1354C1396C1445C1396C1386C1423
2927C1414C1380C1379C1445C1473C1418C1410C1428C1444C1468C1416C1448C1512
2914C1501C1464C1474C1459C1407C1386C1411C1423C1398C1378C1409C1437C1427
2901C1417C1404C1369C1356C1393C1424C1425C1430C1427C1451C1439C1443C1468
2888C1500C1499C1515C1509C1542C1550C1503C1524C1502C1437C1437C1427C1436
2875C1448C1420C1425C1483C1480C1456C1431C1445C1415C1386C1455C1501C1500
2862C1501C1486C1443C1429C1504C1531C1529C1519C1467C1434C1458C1481C1501
2849C1504C1456C1431C1397C1338C1285C1215C1063C0866C0719C0583C0473C0553
2836C0766C0988C1110C1184C1230C1230C1250C1226C1186C1164C1030C0767C0545
2823C0519C0594C0709C0894C1039C1098C1111C1106C1110C1122C1135C1156C1212
2810C1244C1241C1230C1167C1127C1062C0947C0909C1006C1130C1218C1291C1310
2797C1335C1386C1406C1427C1445C1429C1408C1427C1435C1440C1402C1344C1339
2784C1349C1364C1408C1385C1376C1337C1351C1361C1319C1310C1356C1383C1405
2771C1398C1420C1458C1402C1374C1406C1437C1442C1437C1437C1459C1427C1407
2758C1453C1434C1408C1380C1375C1376C1399C1399C1378C1361C1336C1338C1369
2745C1382C1374C1364C1337C1326C1315C1328C1380C1362C1360C1412C1452C1383
2732C1345C1396C1439C1431C1436C1437C1408C1347C1338C1367C1348C1322C1336
2719C1326C1295C1291C1299C1269C1229C1165C1144C1122C1111C1128C1120C1085
2706C1038C0992C1012C1038C1069C1088C1076C1068C1101C1127C1116C1134C1151
2693C1147C1120C1123C1118C1113C1091C1011C0940C0904C0819C0663C0527C0450
2680C0371C0283C0272C0356C0445C0524C0629C0711C0744C0775C0837C0905C0901
2667C0897C0970C1039C1074C1118C1170C1163C1132C1148C1207C1217C1175C1133
2654C1149C1150C1158C1208C1195C1151C1149C1187C1201C1185C1187C1213C1231
2641C1177C1126C1128C1130C1114C1053C1017C1047C1033C1008C0977C0960C0963
2628C0957C0974C0982C0981C1030C1050C1024C1046C1083C1063C1028C1081C1101
2615C1087C1113C1147C1167C1151C1123C1152C1193C1233C1260C1260C1255C1233
2602C1218C1212C1248C1259C1209C1215C1231C1215C1208C1196C1163C1193C1179
2589C1135C1116C1094C1072C1084C1112C1126C1120C1123C1153C1156C1170C1214
2576C1259C1232C1225C1255C1238C1227C1278C1282C1282C1284C1274C1255C1215
2563C1215C1230C1192C1176C1161C1191C1221C1218C1210C1183C1182C1185C1210
2550C1226C1209C1248C1288C1302C1310C1299C1318C1321C1300C1329C1364C1360
2537C1338C1336C1332C1294C1282C1332C1303C1279C1293C1250C1218C1242C1239
2524C1207C1228C1293C1301C1264C1250C1269C1312C1321C1266C1233C1228C1276
2511C1319C1307C1300C1326C1341C1333C1336C1361C1352C1334C1321C1305C1282
2498C1260C1269C1307C1306C1269C1221C1212C1218C1223C1253C1288C1266C1253
2485C1277C1283C1283C1302C1323C1345C1342C1338C1368C1389C1391C1405C1402
2472C1380C1349C1328C1318C1304C1278C1234C1207C1184C1173C1204C1231C1214
2459C1230C1233C1228C1267C1264C1257C1250C1234C1263C1305C1291C1274C1299
2446C1342C1347C1347C1326C1304C1321C1328C1329C1321C1265C1217C1234C1203
2433C1199C1221C1214C1233C1242C1236C1195C1180C1191C1199C1207C1225C1243
2420C1248C1241C1257C1291C1329C1347C1336C1326C1337C1326C1314C1328C1320
2407C1280C1258C1205C1187C1189C1253C1272C1199C1154C1167C1210C1230C1199
2394C1185C1196C1215C1227C1220C1231C1250C1255C1280C1296C1291C1283C1303
2381C1317C1297C1278C1306C1338C1317C1280C1264C1260C1253C1196C1166C1174
2368C1176C1186C1218C1205C1167C1177C1204C1222C1223C1201C1205C1248C1272
2355C1257C1253C1249C1231C1227C1253C1276C1238C1221C1236C1232C1241C1252
2342C1248C1248C1240C1196C1166C1166C1158C1183C1186C1163C1164C1172C1195
2329C1210C1215C1210C1205C1225C1267C1248C1217C1239C1260C1285C1263C1282
2316C1299C1269C1272C1286C1285C1302C1323C1284C1211C1147C1154C1191C1191
2303C1164C1150C1107C1065C1085C1138C1139C1148C1208C1234C1268C1269C1228
2290C1276C1322C1338C1304C1259C1288C1338C1335C1324C1271C1244C1265C1260
2277C1226C1214C1192C1170C1239C1287C1215C1167C1201C1243C1253C1187C1142
2264C1127C1194C1288C1306C1272C1269C1282C1269C1278C1247C1215C1277C1304
2251C1234C1224C1272C1257C1233C1229C1203C1193C1206C1186C1101C1022C1054
2238C1137C1186C1220C1218C1215C1247C1253C1206C1224C1268C1272C1239C1183
2225C1145C1165C1175C1219C1295C1320C1337C1334C1231C1174C1172C1171C1177
2212C1224C1223C1164C1204C1222C1114C1074C1149C1211C1160C1107C1158C1265
2199C1258C1179C1150C1232C1294C1237C1234C1211C1202C1233C1255C1280C1248
2186C1207C1229C1258C1253C1236C1234C1189C1177C1173C1126C1100C1107C1142
2173C1133C1119C1120C1167C1187C1189C1244C1210C1146C1201C1313C1317C1260
2160C1222C1207C1221C1245C1237C1229C1233C1265C1258C1196C1179C1147C1136
2147C1184C1157C1123C1095C1092C1154C1215C1192C1109C1132C1127C1078C1139
2134C1206C1220C1195C1199C1192C1219C1268C1265C1179C1142C1187C1097C1117
2121C1206C1133C1068C1110C1129C1158C1104C1012C1042C1153C1165C1109C1066
2108C1059C1037C1028C1097C1199C1152C1144C1161C1108C1088C1123C1173C1188
2095C1148C1128C1175C1215C1177C1153C1147C1141C1120C1154C1141C1064C1040
2082C1076C1127C1092C0999C0985C1026C1047C1094C1082C1066C1033C1009C1082
2069C1150C1144C1161C1173C1161C1194C1128C1139C1122C1129C1133C1120C1123
2056C1098C1106C1132C1084C1030C1070C1000C0944C0993C0992C1014C1085C1035
2043C0916C1012C1066C1001C1008C1122C1199C1218C1196C1150C1110C1123C1146
2030C1161C1131C1144C1134C1098C1024C1025C1028C1057C1027C1043C1035C1037
2017C1047C1054C0961C0938C0941C0969C0974C1083C1082C1085C1066C1095C1104
2004C1111C1050C1106C1073C1081C1114C1167C1056C1081C1045C1060C1026C1003
1991C1017C1028C0914C0965C1028C1058C1005C0933C0922C0954C0971C0930C0995
1978C0999C1028C0981C1045C1038C1066C1066C1050C1041C1076C1115C1104C1098
1965C1079C1019C0983C1009C1066C1019C1025C1038C0971C0908C0875C0865C0858
1952C0803C0868C0916C0906C0873C0896C1008C0996C0927C0949C0967C1008C1015
1939C1053C1018C1014C1050C0992C1101C1112C1015C1007C0984C1045C1044C1043
1926C1064C1109C0954C0894C0944C0988C0966C0934C1074C1122C1123C1196C1177
1913C1119C1131C1071C0985C1006C1014C1035C1103C1111C1065C1136C1157C1074
1900C1161C1190C1101C1080C1093C1117C1152C1218C1130C0957C0882C1100C1172
1887C1079C1063C1135C1056C0955C1028C1258C1128C0898C1026C1177C1184C1149
1874C0945C1012C1366C1529C1388C1187C0999C1028C1126C1026C0777C0795C0909
1861C1195C1333C1095C1012C1326C1459C1478C1451C1435C1195C0881C0965C1288
1848C1459C1504C1380C1214C1420C1361C1245C1300C1491C1386C1219C1532C1681
1835C1481C1394C1356C1163C1282C1310C1028C0850C1113C1028C0846C1047C1426
1822C1645C1619C1307C0997C0775C0771C1019C1505C1709C1374C0997C1017C1114
1809C0990C1044C1208C1286C1232C1257C1321C1277C1240C1263C1139C1094C1110
1796C1137C1174C1196C1132C1173C1166C1106C1042C0954C0986C1088C1081C1045
1783C1028C1144C1217C1114C1072C1061C1036C1114C1110C1056C1133C1138C1005
1770C0905C0951C1077C1114C1090C1008C0974C0988C0982C0999C1031C1174C1313
1757C1222C1184C1269C1205C1176C1299C1203C1100C1120C1195C1149C1115C1163
1744C1247C1336C1261C1187C1098C1058C1217C1387C1285C1099C1123C1174C1146
1731C1115C1096C1158C1043C0944C0976C1072C1193C1281C1217C1101C1286C1416
1718C1485C1426C1213C1282C1413C1356C1303C1226C1353C1417C1387C1315C1331
1705C1395C1517C1560C1456C1221C1319C1697C1674C1424C1339C1081C1123C1259
1692C1421C1282C1238C1226C1434C1693C1919C1802C1871C1883C1814C1398C1240
1679C1505C1763C1745C1800C1915C1790C1598C1691C1771C1421C1196C1582C1664
1666C1475C1269C1239C1269C1228C1125C1371C1364C1339C1359C1291C1607C1681
1653C1265C0966C1206C1490C1525C1538C1498C1632C1633C1570C1532C1464C1453
1640C1478C1429C1123C1230C1705C2000C1826C1610C1564C1611C1603C1388C1425
1627C1727C1795C1544C1383C1382C1376C1313C1415C1451C1487C1575C1521C1483
1614C1557C1754C1874C1618C1450C1401C1265C1274C1434C1361C1296C1375C1293
1601C1217C1326C1404C1477C1505C1424C1451C1459C1464C1453C1434C1477C1506
1588C1469C1411C1520C1608C1607C1522C1432C1449C1455C1408C1414C1454C1334
1575C1191C1208C1287C1361C1298C1204C1242C1363C1411C1395C1390C1432C1442
1562C1463C1486C1455C1423C1443C1459C1417C1369C1407C1456C1443C1477C1516
1549C1488C1465C1449C1443C1353C1322C1310C1359C1394C1388C1380C1367C1345
1536C1350C1371C1402C1417C1428C1456C1456C1448C1468C1507C1551C1540C1515
1523C1516C1519C1518C1523C1517C1513C1504C1475C1461C1377C1402C1454C1405
1510C1446C1446C1394C1372C1380C1433C1500C1494C1498C1534C1538C1494C1538
1497C1580C1577C1576C1564C1541C1500C1513C1515C1558C1569C1525C1509C1538
1484C1509C1492C1501C1486C1477C1468C1477C1478C1475C1498C1504C1462C1456
1471C1484C1513C1509C1496C1519C1545C1593C1582C1573C1577C1582C1584C1575
1458C1585C1586C1570C1570C1560C1532C1518C1528C1522C1519C1511C1523C1491
1445C1411C1445C1443C1478C1486C1488C1508C1513C1520C1560C1589C1579C1554
1432C1580C1598C1578C1588C1597C1589C1582C1536C1506C1545C1544C1551C1509
1419C1487C1486C1488C1465C1459C1448C1423C1456C1472C1488C1513C1499C1525
1406C1537C1528C1517C1494C1475C1520C1494C1494C1507C1498C1485C1481C1463
1393C1462C1448C1421C1390C1401C1367C1358C1337C1276C1277C1329C1315C1290
1380C1255C1264C1267C1253C1247C1262C1256C1269C1288C1293C1228C1151C1092
1367C1154C1134C1043C0963C0971C0894C0808C0645C0583C0530C0456C0302C0153
1354B9979B9784B9557B9308B8993B8230B7723B7220B6560B5808B4240B3392B2531
1341B1762B1186B1055B1332B1919B2736B3524B4146B5014B6198B6859B7384B7860
1328B8409B8802B9071B9158B9304B9541B9789B9855B9949C0091C0167C0156C0305
1315C0345C0484C0531C0569C0578C0618C0676C0710C0710C0684C0659C0641C0609
1302C0592C0642C0859C1022C0979C0952C0987C1030C1116C1049C1109C1123C1114
1289C1120C1148C1148C1160C1157C1217C1257C1263C1395C1412C1389C1396C1417
1276C1445C1453C1455C1468C1472C1471C1458C1475C1486C1453C1443C1425C1416
1263C1364C1401C1432C1412C1396C1378C1371C1390C1407C1412C1397C1416C1435
1250C1440C1432C1453C1478C1488C1498C1508C1504C1515C1519C1526C1528C1522
1237C1513C1509C1508C1516C1503C1483C1467C1466C1459C1455C1452C1448C1432
1224C1426C1412C1408C1386C1443C1436C1399C1392C1396C1386C1358C1362C1356
1211C1336C1272C1199C1145C1077C1027C0950C0853C0967C0966C0803C0699C0597
1198C0504C0493C0425C0364C0335C0288C0258C0174C0068B9920B9829B9748B9607
1185B9389B9224B8937B8618B8341B8025B7615B7198B6677B5999B5474B4957B4563
1172B4220B3981B3955B4050B4174B4370B4453B4520B4610B4611B4693B4783B4949
1159B5413B5951B6428B6897B7153B7432B7696B7862B8044B8186B8359B8590B8811
1146B9002B9198B9370B9531B9665B9774B9930C0061C0131C0283C0413C0503C0575
1133C0624C0684C0768C0830C0854C0903C0969C1008C1054C1085C1107C1146C1201
1120C1232C1247C1250C1278C1351C1313C1242C1253C1299C1298C1243C1214C1190
1107C1202C1163C1120C1101C1044C0945C0829C0656C0413C0067B9630B9189B9150
1094B9257B9421B9548B9662B9784B9930C0041C0245C0333C0312C0226C0026B9703
1081B9280B8876B8660B8701B8844B9060B9480B9647B9740B9814B9926C0057C0218
1068C0428C0579C0719C0837C0896C0943C1050C1117C1130C1128C1125C1214C1167
1055C1104C1095C1120C1131C1131C1173C1221C1210C1227C1253C1221C1174C1101
1042C1052C0963C0763C0451C0096B9749B9450B9112B8559B7713B6447B5318B4863
1029B4968B5537B6287B7008B7790B8602B9117B9492B9750B9889B9906B9858B9786
1016B9675B9557B9450B9391B9360B9413B9543B9625B9503B9096B8529B7945B7258
1003B7064B7810B8865B9603C0161C0426C0587C0695C0768C0828C0865C0841C0535
990C0323C0137B9644B9025B8640B8711B9155B9694C0144C0470C0709C0882C1036
977C1126C1168C1234C1295C1351C1364C1377C1398C1402C1383C1394C1405C1412
964C1437C1385C1464C1526C1506C1509C1506C1480C1449C1428C1410C1398C1395
951C1388C1355C1307C1284C1294C1314C1317C1307C1294C1281C1264C1236C1226
938C1226C1214C1180C1154C1092C0914C0636C0264B9977B9887B9851B9673B9292
925B8747B8272B8122B8345B8820B9314B9755C0112C0328C0432C0497C0535C0565
912C0556C0519C0532C0513C0423C0307C0158B9938B9633B9246B8719B8094B7433
899B6852B6416B6171B6140B6298B6572B6863B7103B7264B7299B7202B6986B6666
886B6311B5882B5439B5075B4864B4827B4975B5292B5740B6231B6709B7205B7675
873B8062B8401B8720B8990B9234B9436B9579B9690B9825B9943C0037C0095C0152
860C0255C0354C0416C0472C0527C0532C0501C0449C0339C0165B9922B9696B9576
847B9632B9800C0034C0299C0500C0640C0763C0867C0943C0949C0928C0921C0888
834C0777C0619C0434C0240C0161C0217C0302C0437C0504C0468C0451C0447C0387
821C0310C0250C0124B9905B9632B9373B9211B9100B8968B8820B8619B8370B8074
808B7742B7417B7100B6773B6440B6129B5873B5627B5436B5354B5280B5235B5255
795B5236B5154B5017B4868B4699B4538B4372B4207B4107B4035B3974B3993B4138
782B4398B4710B5059B5460B5878B6282B6655B7031B7422B7793B8121B8389B8638
769B8884B9094B9297B9462B9574B9693B9820B9921C0017C0098C0152C0229C0293
756C0324C0345C0387C0425C0453C0497C0527C0546C0531C0505C0495C0477C0435
743C0362C0250C0129B9950B9694B9363B9033B8675B8364B8237B8323B8586B8904
730B9220B9522B9739B9832B9871B9830B9604B9103B8172B6823B5521B5104B5749
717B6713B7435B7772B7642B7356B7382B8036B8891B9557C0038C0329C0520C0670
704C0776C0841C0909C0961C1017C1082C1097C1104C1160C1183C1163C1157C1177
691C1196C1189C1167C1118C0961C0652C0009B9295B9215B9624B9870B9912C0045
678C0245C0258B9940B9029B7718B6886B6889B7570B8533B9258B9595B9677B9656
665B9646B9750B9955C0187C0380C0556C0702C0776C0834C0925C0989C1000C1030
652C1110C1154C1167C1209C1234C1231C1209C1199C1173C1158C1146C1082C0971
639C0844C0702C0520C0279C0002B9816B9752B9834B9982C0136C0313C0478C0576
626C0680C0798C0884C0958C0999C0984C0923C0881C0816C0665C0383B9981B9526
613B9148B8999B9138B9486B9888C0238C0511C0730C0894C1017C1055C1064C1101
600C1128C1179C1247C1227C1147C1092C1045C1071C1132C1176C1226C1258C1275
587C1268C1297C1359C1350C1335C1323C1314C1310C1228C1081C0965C0780C0323
574B9639B8834B8335B8545B9214B9904C0351C0622C0800C0944C1046C1075C1142
561C1203C1282C1363C1348C1307C1376C1448C1427C1435C1473C1492C1480C1515
548C1521C1450C1373C1366C1383C1334C1038C0248B8821B8041B8555B9147B9866
535C0618C1037C1198C1307C1418C1465C1461C1413C1373C1417C1455C1454C1456
522C1462C1480C1502C1503C1494C1488C1486C1487C1463C1412C1344C1284C1213
509C1009C0667C0283B9877B9693B9919C0218C0337C0342C0301C0273C0258C0413
496C0709C0936C1027C0989C0908C0746C0460C0072B9595B8990B8418B8031B7904
483B8095B8522B9027B9465B9841C0140C0348C0456C0458C0602C0758C0833C0914
470C0952C1031C1071C1080C1144C1168C1093C1017C0949C0857C0865C0990C1116
457C1269C1319C1294C1368C1471C1427C1360C1399C1469C1394C1324C1357C1323
444C1213C1069C0863C0562C0037B9324B8108B6397B4825B4050B4418B5589B6904
431B8032B8931B9587B9988C0329C0608C0829C0954C1015C1088C1145C1166C1168
418C1205C1286C1322C1268C1297C1372C1402C1373C1399C1437C1394C1389C1440
405C1398C1376C1395C1392C1377C1341C1215C1119C1149C1166C1073C0982C0874
392C0779C0793C0828C0843C0862C0852C0713C0427B9988B9353B8460B7211B5695
379B3974B2227B0796A9769A8897A7870A6852A6656A7664A9431B1249B2868B4242
366B5412B6366B7157B7885B8447B8881B9189B9421B9598B9674B9763B9920C0092
353C0210C0315C0441C0551C0612C0644C0711C0780C0774C0809C0854C0868C0855
340C0821C0798C0765C0562C0351C0152B9817B9380B8830B8150B7508B7160B7303
327B7809B8389B8928B9437B9845C0093C0280C0423C0551C0663C0761C0886C1020
314C1101C1031C1097C1164C1198C1230C1259C1303C1345C1324C1345C1428C1399
301C1372C1458C1556C1490C1490C1546C1534C1526C1523C1499C1528C1559C1555
288C1561C1557C1560C1584C1596C1475C1409C1329C1220C1083C0967C0931C0794
275C0795C0929C1092C1217C1296C1334C1361C1394C1415C1198C0605C0336C0608
262C0906C1009C1033C1031C1018C1090C1169C1225C1220C1230C1302C1260C1125
249C1085C1035C0993C1006C0974C0906C0882C0793C0665C0299B9110B7268B5848
236B5490B6119B7239B8098B8595B8910B9087B9267B9416B9495B9285B9234B8857
223B8031B7407B7680B8419B8819B8963B9099B9193B9216B9196B9167B9110B9079
210B9069B8980B8871B8834B8853B8873B8777B8561B8473B8520B8501B8290B8181
197B8154B8046B7863B7726B7668B7560B7363B7206B7112B7060B6904B6707B6668
184B6594B6389B6266B6242B6190B6282B6385B6447B6653B6715B6701B6901B7165
171B7173B7185B7447B7578B7558B7779B7921B7994B8124B8346B8454B8487B8448
158B8481B8516B8361B8200B8119B7955B7913B7997B8193B8468B8504B8530B8739
145B8853B8926B9025B9154B9311B9405B9494B9506B9397B9358B9490B9619B9490
132B9265B9285B9457B9538B9497B9408B9309B9118B8704B8180B7436B6622B6133
119B6515B7580B8489B8995B9478B9863C0021C0086C0120C0215C0280C0309C0331
106C0274C0202C0365C0573C0593C0634C0680C0810C0891C0860C0692C0679C0773
93C0692C0626C0626C0663C0863C0887C0745C0745C0810C0900C0942C0855C0651
80C0832C1085C0971C0793C0704C0738C0888C0931C0858C0825C0690C0615C0728
67C0608C0557C0701C0584C0476C0629C0580C0460C0605C0726C0806C0822C0886
54C0831C0901C1071C1003C0853C0851C0934C0700C0413C0350C0420C0151B9751
41B9814B9647B9347B9309B9779C0244C0206C0424C0820C0727C0257C0491C0812
28C0478C0500C0657C0757C1111C1073C0871C1128C1645C1395C0984C1150C1511
15C1338C0993C0740C0572C0344C0358C0646C0792C0440C0406C0472C0416C0408
2C0229B9622
$$ === CHEMSPECTRA INTEGRALS AND MULTIPLETS ===
##$OBSERVEDINTEGRALS= (X Y Z)

##$OBSERVEDMULTIPLETS=
##$OBSERVEDMULTIPLETSPEAKS=
$$ === CHEMSPECTRA SIMULATION ===
##$CSSIMULATIONPEAKS=
##END=


$$ === CHEMSPECTRA PEAK TABLE EDIT ===
##TITLE=tert-Butyl-(2,2-di(pyrazol-1-yl)ethyl)carbamate
##JCAMP-DX=5.00
##DATA TYPE=INFRAREDPEAKTABLE
##DATA CLASS=PEAKTABLE
##$CSCATEGORY=EDIT_PEAK
##$CSTHRESHOLD=0.93
##MAXX=4000.433
##MAXY=101.41874185561184
##MINX=400.2361
##MINY=52.788455135845965
##$CSSOLVENTNAME=- - -
##$CSSOLVENTVALUE=0
##$CSSOLVENTX=0
##NPOINTS=46
##PEAKTABLE= (XY..XY)
435.91980889365095, 92.89005953269148
439.7775071524243, 94.29090590457211
515.0026231984998, 82.82741873920499
526.5757179748193, 92.75060876264001
530.4334162335922, 93.04535698115788
545.8642092686846, 88.46566691924042
572.8680970800965, 83.0080708731353
613.3739287972139, 86.86198306364855
626.8758727029199, 80.7863665593608
653.879760514491, 96.14496727912002
664.4884307261176, 97.59969235761146
716.5673572193946, 86.07915714995055
758.0376135012052, 52.788455135845965
818.796361076882, 76.22252317585827
842.9069751943839, 97.82154585542061
866.0531647468524, 88.43714289809353
886.3060806054114, 94.10708443495882
919.0965158049826, 88.87134188666286
950.9225264398606, 89.8031265774613
989.4995090275916, 91.90756547096524
1009.7524248861505, 94.29407524025511
1040.6140109563353, 93.95812565785839
1048.3294074738815, 85.21075917281188
1057.973653120814, 92.59214197849062
1086.9063900616125, 86.70034694381617
1092.6929374497722, 79.5630029857275
1107.1593059201714, 89.49253168052849
1156.3449587195287, 75.98165366395119
1167.9180534958477, 79.9781859601989
1198.7796395662026, 95.76781633284446
1217.103706295205, 93.73944149573222
1248.929716930083, 78.68509700153984
1263.3960854004822, 82.84643475330292
1289.4355486472004, 89.12805807698489
1350.1942962228768, 90.7697739607726
1366.5895138226629, 85.77490092438372
1375.2693349049023, 93.05169565252386
1392.628977069381, 78.79919308612742
1439.8857807393515, 90.83316067443235
1455.316573774444, 92.38613515909641
1527.6484161264398, 75.92143628597442
1690.6361675596036, 66.7303628053096
2983.9295088133485, 96.2558940280246
3120.8777969997855, 96.96265588533089
3137.27301459957, 96.92779319281803
3397.6676470667026, 93.23234778645417
##END=


$$ === CHEMSPECTRA PEAK TABLE AUTO ===
##TITLE=tert-Butyl-(2,2-di(pyrazol-1-yl)ethyl)carbamate
##JCAMP-DX=5.00
##DATA TYPE=INFRAREDPEAKTABLE
##DATA CLASS=PEAKTABLE
##$CSCATEGORY=AUTO_PEAK
##$CSTHRESHOLD=0.93
##MAXX=4000.433
##MAXY=101.41874185561184
##MINX=400.2361
##MINY=52.788455135845965
##NPOINTS=44
##PEAKTABLE= (XY..XY)
1009.7524248861505, 94.29407524025511
439.7775071524243, 94.29090590457211
886.3060806054114, 94.10708443495882
1040.6140109563353, 93.95812565785839
1217.103706295205, 93.73944149573222
3397.6676470667026, 93.23234778645417
1375.2693349049023, 93.05169565252386
530.4334162335922, 93.04535698115788
435.91980889365095, 92.89005953269148
526.5757179748193, 92.75060876264001
1057.973653120814, 92.59214197849062
1455.316573774444, 92.38613515909641
989.4995090275916, 91.90756547096524
598.9075603268147, 91.38462508327224
1439.8857807393515, 90.83316067443235
1350.1942962228768, 90.7697739607726
594.0854375033487, 90.24049490171362
552.6151812215376, 90.16126150963892
950.9225264398606, 89.8031265774613
1107.1593059201714, 89.49253168052849
1289.4355486472004, 89.12805807698489
919.0965158049826, 88.87134188666286
545.8642092686846, 88.46566691924042
866.0531647468524, 88.43714289809353
560.3305777390838, 87.34055275177973
613.3739287972139, 86.86198306364855
1086.9063900616125, 86.70034694381617
716.5673572193946, 86.07915714995055
1366.5895138226629, 85.77490092438372
1048.3294074738815, 85.21075917281188
567.0815496919367, 84.62443207145911
572.8680970800965, 83.0080708731353
1263.3960854004822, 82.84643475330292
515.0026231984998, 82.82741873920499
626.8758727029199, 80.7863665593608
1167.9180534958477, 79.9781859601989
1092.6929374497722, 79.5630029857275
1392.628977069381, 78.79919308612742
1248.929716930083, 78.68509700153984
818.796361076882, 76.22252317585827
1156.3449587195287, 75.98165366395119
1527.6484161264398, 75.92143628597442
1690.6361675596036, 66.7303628053096
758.0376135012052, 52.788455135845965
##END=

##END=

