##TITLE=F. Hundemer FHU-CEL-010
##JCAMP-DX=4.24
##DATA TYPE=INFRARED SPECTRUM
##DATE=10/10/2017
##SAMPLING PROCEDURE=Diamant-ATR
##ORIGIN=Angelika Moesle
##XUNITS=1/CM
##YUNITS=TRANSMITTANCE
##RESOLUTION=4
##FIRSTX=3997.453
##LASTX=373.96442
##DELTAX=-1.4165319
##MAXY=0.96761233
##MINY=0.38547319
##XFACTOR=1
##YFACTOR=9.011592e-010
##NPOINTS=2559
##FIRSTY=0.9382785
##XYDATA=(X++(Y..Y))
3997+1041190605+1041157997+1041639843+1042348093+1042907921+1043138558
3989+1043053830+1042724839+1042243059+1041775632+1041508550+1041472767
3980+1041519067+1041503656+1041395513+1041246230+1041188488+1041395116
3972+1041860956+1042309334+1042462651+1042323819+1042085641+1041878947
3963+1041745935+1041721396+1041767365+1041694344+1041357349+1040920612
3955+1040730917+1040901696+1041248678+1041686804+1042336849+1043054690
3946+1043319788+1042924324+1042347035+1042231947+1042603071+1042868897
3938+1042639516+1042195106+1042130419+1042661607+1043411990+1043893307
3929+1043984451+1043802031+1043518016+1043361788+1043393074+1043339102
3921+1043008457+1042573043+1042231947+1041874383+1041329966+1040757307
3912+1040504181+1040736473+1041220435+1041456827+1041139080+1040541287
3904+1040418130+1041114144+1041954481+1042233667+1042058324+1041788993
3895+1041502730+1041215077+1041098336+1041291273+1041658892+1042063946
3887+1042542816+1042970028+1043001578+1042639912+1042283605+1042158860
3878+1041988743+1041450345+1040619798+1039871531+1039696585+1040511523
3870+1042221431+1043733111+1044031015+1043346510+1042467414+1041887876
3861+1041668482+1041775765+1042125194+1042489571+1042784433+1043297035
3853+1044019572+1044117331+1043655724+1043309668+1043187636+1042944696
3844+1042394591+1041893762+1041829671+1041893961+1041537653+1041016386
3836+1041029482+1041584812+1042290814+1042858248+1043011698+1042663724
3827+1042227119+1042222952+1042590107+1042916453+1043050788+1042882853
3819+1042117720+1040983381+1040369979+1040813065+1041615502+1041948131
3810+1041758700+1041385989+1041141990+1041070094+1040974651+1040821862
3802+1040789519+1040842565+1040718680+1040542544+1040663981+1041056336
3793+1041374745+1041472635+1041400540+1041203040+1041033848+1041196227
3785+1041763925+1042391284+1042827359+1043253183+1043836491+1044281165
3776+1044175470+1043517752+1042593415+1041709689+1041106472+1040864127
3768+1040828542+1040827286+1040833966+1040785881+1040616424+1040607495
3759+1041373951+1043016460+1044623120+1045305840+1044904489+1043884378
3751+1043331892+1043974926+1044994971+1045516833+1045435015+1044922017
3742+1044262447+1043671334+1043155425+1042699044+1042485470+1042833180
3734+1043692036+1044562864+1045133275+1045426086+1045515047+1045366360
3725+1044909185+1044243332+1043600231+1043145834+1043062826+1043539116
3717+1044437393+1045269924+1045631325+1045501951+1045224749+1045135127
3708+1045097227+1044757719+1044053239+1043349221+1043236052+1043880806
3700+1044511935+1044357295+1043646531+1043135913+1043209860+1043681189
3691+1044212046+1044514448+1044370325+1044013620+1043880938+1043962161
3683+1043957928+1043660487+1043055815+1042194246+1041222353+1040750230
3674+1041443466+1042740713+1043797401+1044473043+1044775512+1044639060
3666+1044257883+1043958589+1043846082+1043749712+1043569012+1043483755
3657+1043683769+1044052247+1044238834+1044040936+1043527078+1043063752
3649+1043198219+1043657047+1043614848+1043158732+1042876437+1043085182
3640+1043535544+1043692499+1043406236+1043020230+1042733305+1042277982
3632+1041466418+1040726882+1040768022+1041461259+1042015662+1042449158
3623+1043022016+1043509947+1043465102+1042797397+1041917044+1041211373
3615+1040817563+1040864458+1041467013+1042603534+1044019043+1045076525
3606+1045200343+1044679142+1044252525+1044220248+1044311987+1044138232
3598+1043682843+1043302459+1043365095+1043857392+1044333483+1044418278
3589+1044181092+1044052114+1044349754+1044773064+1044874593+1044623451
3581+1044257420+1043999267+1043935903+1044045566+1044217271+1044268730
3572+1044038357+1043447443+1042507231+1041484210+1040977958+1041222750
3564+1041696989+1042059779+1042452730+1042979883+1043483622+1043785826
3555+1043827033+1043553468+1042933848+1042124400+1041420515+1041017643
3547+1040929475+1041050582+1041260451+1041534015+1041891778+1042306490
3538+1042724508+1043122354+1043504722+1043811423+1043863014+1043498174
3530+1042830005+1042248880+1042011760+1041978954+1041950579+1042029155
3521+1042430242+1043099601+1043717435+1043988684+1043853159+1043484482
3513+1043178244+1043235192+1043754871+1044415698+1044674314+1044299552
3504+1043524498+1042807715+1042541427+1042786682+1043271041+1043710027
3496+1044038688+1044305505+1044532307+1044747137+1044930813+1044916857
3488+1044609429+1044197760+1043899789+1043717700+1043581711+1043463912
3479+1043333281+1043227189+1043269785+1043507037+1043868967+1044254840
3471+1044493151+1044403065+1044076521+1043860038+1043925055+1044076322
3462+1044074470+1043964344+1043945427+1044008593+1043932595+1043681718
3454+1043537793+1043688729+1043983393+1044236387+1044457698+1044632909
3445+1044627618+1044503667+1044581054+1044928697+1045051126+1044489116
3437+1043581116+1043148281+1043467351+1044026451+1044275278+1044158207
3428+1043915862+1043758245+1043750440+1043798128+1043758112+1043600562
3420+1043442151+1043476148+1043838607+1044397774+1044773858+1044778686
3411+1044676100+1044789931+1045075731+1045274091+1045262186+1045095441
3403+1044875056+1044668295+1044497847+1044383818+1044416756+1044718695
3394+1045256696+1045744296+1045846288+1045511806+1045019775+1044667898
3386+1044510943+1044435012+1044389638+1044427008+1044521261+1044486536
3377+1044190815+1043765851+1043472510+1043428724+1043637072+1044171303
3369+1045076723+1046085392+1046671874+1046541508+1045977249+1045554005
3360+1045553873+1045790596+1045901847+1045632251+1044995567+1044387720
3352+1044321049+1044814006+1045314240+1045419075+1045318010+1045302268
3343+1045253984+1044917717+1044342677+1043788009+1043388047+1043126785
3335+1043051383+1043345848+1044097885+1045022950+1045621867+1045725313
3326+1045651565+1045672730+1045675310+1045556982+1045540049+1045774589
3318+1045998150+1045895233+1045540843+1045266750+1045257027+1045389245
3309+1045438521+1045385475+1045422514+1045637675+1045876977+1045976323
3301+1045932272+1045805742+1045641908+1045495734+1045398505+1045310403
3292+1045170645+1044993649+1044893840+1044992458+1045280309+1045598585
3284+1045805081+1045948874+1046230706+1046725846+1047181434+1047230974
3275+1046824332+1046285935+1045972024+1046014289+1046255509+1046299891
3267+1045845891+1045112308+1044702755+1044969110+1045666381+1046228060
3258+1046304454+1046079306+1046039357+1046424106+1047025801+1047507846
3250+1047705941+1047634376+1047384093+1047001792+1046431183+1045681527
3241+1045030490+1044840595+1045142138+1045554931+1045680006+1045468086
3233+1045185659+1045107016+1045287915+1045589854+1045853563+1045994843
3224+1045992594+1045876779+1045736227+1045666248+1045742180+1045986443
3216+1046236130+1046219726+1046020969+1046183745+1046976128+1047874472
3207+1048173038+1047784121+1047141352+1046676306+1046602557+1046906679
3199+1047383366+1047797350+1048067276+1048237592+1048306314+1048199891
3190+1047979307+1047916604+1048148234+1048435754+1048533711+1048542243
3182+1048566650+1048402816+1047941606+1047521140+1047477222+1047640196
3173+1047634640+1047433369+1047310147+1047358033+1047358959+1047168404
3165+1047017930+1047267485+1047939556+1048665665+1049105047+1049222714
3156+1049113183+1048777511+1048239841+1047705809+1047402679+1047319737
3148+1047270197+1047210999+1047313718+1047636691+1047924475+1047928378
3139+1047738946+1047608051+1047643900+1047807404+1047970113+1047939291
3131+1047703825+1047552888+1047670555+1047782931+1047505332+1046901189
3122+1046450959+1046504402+1046891202+1047109736+1046888887+1046466040
3114+1046217345+1046154113+1045983268+1045585886+1045183807+1044973012
3105+1044822076+1044484089+1043894894+1043091201+1042020822+1040607495
3097+1038853470+1036788247+1034439934+1031889028+1029307168+1026941394
3088+1024987554+1023418462+1022053883+1020814974+1019720585+1018684467
3080+1017583994+1016467646+1015428750+1014382579+1013199229+1011894244
3071+1010487995+1008880607+1007111634+1005528984+1004424938+1003650678
3063+1002871589+1002027879+1001236752+1000430479+999447342+998356789+997410956
3053+996789285+996607064+997023230+998130715+999816018+1001865169+1004181734
3043+1006808637+1009684764+1012458304+1014659781+1016044666+1016662964
3034+1016703178+1016380867+1015827786+1014997966+1013860916+1012687024
3026+1011892590+1011639530+1011844703+1012521073+1013803835+1015591063
3017+1017423599+1018897776+1020124383+1021576601+1023484605+1025584156
3009+1027486141+1029068461+1030440977+1031707336+1032846701+1033805300
3000+1034650465+1035519772+1036386036+1037044283+1037406941+1037631890
2992+1037865703+1038035424+1037987801+1037673758+1037114989+1036316454
2983+1035322337+1034286286+1033365256+1032561628+1031710841+1030564994
2975+1028836831+1026309935+1023109909+1019776343+1016800804+1014113248
2966+1011286133+1008210058+1005239017+1002681827+1000491198+998476970+996534572
2956+994642178+992847277+991297433+990169510+989476671+988951237+988197084
2946+987018496+985491802+983662177+981295411+978052525+973868172+969080139
2936+964102806+959002516+953542875+947641139+941584102+935825697+930838906
2927+927112389+924963231+924302007+924771088+926131236+928382253+931524734
2917+935354830+939570601+943993133+948558862+953126311+957431771+961293880
2907+964756424+967945932+970865978+973450352+975735101+977828700+979834131
2897+981961000+984529036+987610535+990817241+993647333+995944650+997909337
2887+999828321+1001892155+1004070879+1006011293+1007197553+1007365157
2878+1006652541+1005291864+1003451788+1001496824+999998108+999188792+998675727
2868+997916282+996750923+995294670+993512204+991089350+987693676+983314467
2859+978399573+973704668+969988668+967722504+966982307+967602919+969431287
2849+972412250+976470140+981368498+986669530+991822073+996389324+1000299981
2839+1003862267+1007430969+1011045640+1014430731+1017290455+1019531617
2830+1021288089+1022824373+1024348819+1025819622+1026975193+1027598715
2822+1027742111+1027682253+1027694291+1027891659+1028233614+1028607450
2813+1028919376+1029183813+1029513002+1029995840+1030650582+1031448852
2805+1032237796+1032737963+1032844386+1032849744+1033161075+1033850144
2796+1034606613+1035080588+1035202884+1035183373+1035248390+1035467519
2788+1035804382+1036177357+1036465142+1036625008+1036805708+1037215591
2779+1037882239+1038607686+1039127431+1039311373+1039249794+1039145356
2771+1039129746+1039204752+1039315209+1039427915+1039553784+1039694733
2762+1039812400+1039892432+1039983576+1040100449+1040185773+1040237562
2754+1040322687+1040415352+1040387705+1040217653+1040045948+1039990587
2745+1040034770+1040121350+1040251055+1040451466+1040733165+1041120428
2737+1041617949+1042078101+1042243919+1042067915+1041815318+1041691169
2728+1041579719+1041330496+1041055939+1040936090+1040949120+1040983844
2720+1041038279+1041156343+1041290281+1041345510+1041311182+1041274275
2711+1041290281+1041294911+1041220567+1041166000+1041298350+1041584349
2703+1041781453+1041725431+1041485864+1041227777+1041065067+1041053955
2694+1041183660+1041356754+1041439829+1041353910+1041130548+1040917901
2686+1040847856+1040820407+1040533614+1039851159+1039042240+1038551796
2677+1038574681+1038894875+1039140858+1039193574+1039265933+1039546641
2669+1039925040+1040186302+1040309657+1040421570+1040570389+1040691760
2660+1040729528+1040703666+1040670066+1040649562+1040589968+1040427853
2652+1040222151+1040153231+1040304895+1040526405+1040653662+1040736803
2643+1040880662+1041038808+1041164412+1041362045+1041709490+1042127972
2635+1042550687+1043021685+1043570467+1044134858+1044631520+1045026918
2626+1045374892+1045805478+1046390902+1047012639+1047441637+1047554608
2618+1047386541+1047004040+1046488793+1046041539+1045838417+1045732986
2609+1045424300+1044983396+1044845887+1045217804+1045827834+1046293144
2601+1046448446+1046345859+1046168929+1046133146+1046334549+1046682722
2592+1047019650+1047305649+1047627761+1047919118+1047794440+1046982544
2584+1045888222+1045303591+1045508367+1046004434+1046197436+1046045905
2575+1045887626+1045803031+1045464713+1044720349+1043974397+1043679998
2567+1043746802+1043803883+1043724314+1043601091+1043557702+1043719551
2558+1044042259+1044217271+1044085649+1043941657+1044109129+1044480716
2550+1044718960+1044695943+1044602947+1044772403+1045359878+1046113105
2541+1046547792+1046412531+1045921293+1045526755+1045490376+1045662148
2533+1045718104+1045620875+1045690853+1046125011+1046663011+1046936774
2524+1046939552+1046887630+1046829690+1046690394+1046511810+1046398046
2516+1046391762+1046555398+1046981221+1047605538+1048145126+1048340906
2507+1048256840+1048239312+1048492174+1048833467+1048978186+1048868853
2499+1048629683+1048442501+1048492835+1048820503+1049316173+1049931560
2490+1050608856+1051063716+1051045593+1050705820+1050384303+1050247124
2482+1050294813+1050431066+1050482657+1050405270+1050361352+1050411157
2473+1050360095+1050027400+1049455468+1048842330+1048450239+1048489528
2465+1048881883+1049231379+1049234355+1049058218+1049112323+1049530143
2456+1050096651+1050600258+1050981369+1051216041+1051329541+1051467977
2448+1051773885+1052251894+1052826868+1053361165+1053603510+1053394104
2439+1052954655+1052681818+1052619116+1052468113+1052186943+1052163991
2431+1052614353+1053199249+1053538294+1053739829+1054051623+1054305675
2422+1054187413+1053825152+1053591274+1053500460+1053332988+1053215652
2414+1053517922+1054205668+1054747373+1054738642+1054366394+1054174317
2405+1054448939+1054909024+1055031983+1054597825+1053822176+1053084426
2397+1052681157+1052666870+1052750474+1052527112+1051970525+1051505480
2388+1051476112+1051775472+1052096791+1052286817+1052310628+1052102214
2380+1051697490+1051419230+1051691736+1052627516+1053925689+1055189997
2371+1056180277+1056833564+1057300197+1057806780+1058182865+1057882182
2363+1056834754+1055755578+1055236957+1055100175+1054897053+1054471957
2354+1053856834+1053083566+1052254209+1051571886+1051230130+1051283969
2346+1051550059+1051695837+1051658070+1051768527+1052217699+1052746373
2337+1053024237+1053027279+1052847174+1052398994+1051683138+1051075158
2329+1050824678+1050554950+1049844318+1048925405+1048326554+1048136924
2320+1048092741+1048145324+1048439194+1048952457+1049512615+1049995321
2312+1050390851+1050799610+1051364134+1052089317+1052761189+1053124045
2303+1053136215+1053025626+1053068155+1053312749+1053586974+1053770585
2295+1053925755+1054137277+1054360904+1054443450+1054262418+1053944605
2286+1053894469+1054364344+1055102292+1055733421+1056266262+1056835548
2278+1057219967+1057076173+1056509467+1056082122+1056258987+1056950371
2269+1057629585+1057891111+1057772981+1057561194+1057493464+1057601012
2261+1057671453+1057502328+1057267986+1057346100+1057745069+1058059179
2252+1058006992+1057725690+1057572835+1057827284+1058392932+1058569730
2244+1057445908+1054944807+1052185686+1050293225+1049245004+1048524914
2235+1048353077+1049427623+1051804971+1054677527+1057074784+1058581239
2227+1059540499+1060542024+1061628344+1062240886+1061946951+1060958588
2218+1059974326+1059713527+1060598245+1062606256+1065063372+1066681673
2210+1066483974+1064778299+1062652291+1060767569+1059333739+1058722254
2201+1059208465+1060400943+1061462790+1061767110+1061428528+1061326537
2193+1062093786+1062917389+1062086180+1059101050+1055560393+1053564751
2184+1053820258+1055704649+1058294380+1060514245+1061282817+1060790454
2176+1060826700+1062546067+1064675713+1065114632+1063492694+1061107209
2167+1059078959+1057621516+1056879136+1057543005+1060159656+1064056820
2159+1067385558+1068713694+1068393698+1067692921+1067147976+1066222316
2150+1064284085+1061679207+1059763002+1059745474+1061398632+1063231035
2142+1064113107+1064186591+1063976854+1063466237+1062528737+1061585483
2133+1061242668+1061491826+1061683903+1061275673+1060410401+1059692957
2125+1059597580+1060186378+1061060645+1061503599+1061067789+1060059649
2116+1059133659+1058588713+1058314686+1058158194+1058135639+1058418992
2108+1059046483+1059604194+1059474423+1058502530+1057242918+1056527788
2099+1056783031+1057669866+1058508681+1059069501+1059601350+1060148015
2091+1060362713+1059984512+1059067781+1057784027+1056443656+1055678457
2082+1056052755+1057331085+1058653665+1059606245+1060475617+1061321775
2074+1061658041+1061295119+1060714721+1060383085+1060263433+1060108198
2065+1059901702+1059916121+1060351270+1060966988+1061353258+1061609493
2057+1062393080+1064040549+1065887372+1066788757+1066243547+1064749924
2048+1063233284+1062361927+1062295784+1062817845+1063513462+1063722736
2040+1062612275+1059983520+1057095553+1055915444+1057262628+1060195704
2031+1063246975+1065724728+1067812308+1069594245+1070237279+1068948763
2023+1066687229+1065637288+1066792064+1069018278+1070550991+1070866820
2014+1070847441+1071251834+1071796912+1072085953+1072458334+1073085759
2006+1073274859+1072626070+1071744924+1071247469+1070995599+1070444039
1997+1069210620+1067446806+1065829497+1064944449+1064730875+1064749660
1989+1064854363+1065404666+1066808335+1068782812+1070363611+1071116639
1980+1071774490+1072920602+1073741823+1073135564+1071318241+1069307717
1972+1067776723+1066847756+1066241034+1065546541+1064847881+1064880820
1963+1066172048+1068229533+1069804841+1069953198+1068839298+1067433048
1955+1066457914+1065721487+1064626503+1063140486+1061828027+1061020166
1946+1060531243+1060179168+1060002502+1059778809+1058795870+1056574948
1938+1053649876+1051300240+1050376432+1050615867+1051342505+1052186612
1929+1052848894+1052992488+1052683935+1052411098+1052615213+1053412094
1921+1054625208+1056020809+1057487776+1058907188+1059939998+1060201723
1912+1059605583+1058483084+1057383470+1056648961+1056184907+1055645518
1904+1054706365+1053222399+1051387416+1049735184+1048756279+1048482054
1895+1048505997+1048362799+1047904831+1047443621+1047574980+1048573330
1887+1049946508+1050997772+1051588025+1052163991+1053116703+1054249322
1878+1055090982+1055569917+1055992698+1056444119+1056661793+1056504043
1870+1056172076+1055884225+1055543064+1054998118+1054318110+1053635787
1861+1053071528+1052763504+1052744984+1052868273+1053025163+1053293634
1853+1053728783+1054236888+1054808753+1055653058+1056921268+1058332214
1844+1059178437+1059147879+1058892306+1059057926+1059628997+1060198680
1836+1060385863+1060137631+1059765383+1059690311+1060016657+1060278911
1827+1059986496+1059216733+1058396504+1057848450+1057578656+1057454441
1819+1057353904+1057137950+1056773441+1056437174+1056249793+1056060692
1810+1055729386+1055427778+1055352442+1055450134+1055670652+1056126636
1802+1056835482+1057528520+1057972466+1058257142+1058518007+1058664909
1793+1058467276+1057865051+1057155015+1056552327+1055924109+1055143432
1785+1054333521+1053674017+1053108502+1052475389+1051752322+1051002865
1776+1050265975+1049605545+1049143343+1049006429+1049236869+1049778110
1768+1050506799+1051225169+1051809601+1052386692+1053205466+1054278094
1759+1055360776+1056341598+1057234055+1057977559+1058502596+1058795077
1751+1058848189+1058674764+1058312305+1057786607+1057215072+1056830521
1742+1056736996+1056725289+1056487640+1056004802+1055481022+1055065252
1734+1054829786+1054742148+1054666944+1054546830+1054400325+1054224519
1725+1053950426+1053501254+1052923370+1052364865+1051901341+1051493971
1717+1051157638+1051038714+1051130453+1051245342+1051217563+1051000947
1708+1050691666+1050461227+1050398656+1050426237+1050467841+1050531668
1700+1050591461+1050653039+1050904115+1051407192+1051900679+1052215450
1691+1052442318+1052637569+1052736650+1052739362+1052846843+1053346746
1683+1054044017+1054349925+1054167901+1053700474+1053106319+1052440598
1674+1051816877+1051481205+1051571225+1051999297+1052482929+1052808679
1666+1053042624+1053318768+1053710925+1054220154+1054757559+1055195817
1657+1055440940+1055480758+1055467860+1055787723+1056389617+1056757103
1649+1056850827+1056864717+1057004475+1057255485+1057453779+1057522038
1640+1057419253+1057019423+1055865242+1052925817+1047634045+1040827418
1632+1032699733+1022790310+1011895434+1002857964+998356458+998664284+1002254813
1622+1006619735+1009984520+1012545414+1015139180+1017523341+1018243894
1613+1016670107+1013054312+1007548503+1000230267+991311521+981058159+969667878
1604+957692570+946707212+938900779+935647443+936872926+941478142+947803915
1594+954041587+958722602+960990221+960692647+958331900+954683298+950428173
1584+946151419+942465976+939980683+939257220+941288843+947534254+956739659
1574+964783476+970986489+977616847+985946927+994218603+1000609526+1005480436
1564+1009260329+1011883529+1013782670+1015986131+1018162407+1018051950
1555+1015657602+1011822413+1006989271+1001315197+995113375+989419789+985254881
1545+982950818+982648283+984686786+989932126+997892537+1003979868+1006482357
1536+1007324083+1008016724+1009012296+1010163832+1011629741+1013958343
1527+1017458390+1021609209+1025598906+1029372120+1033092287+1036174050
1519+1038114001+1039093104+1039318648+1038881978+1037984693+1036826411
1510+1035306595+1032639345+1027244524+1019611516+1012499511+1005559674
1502+997065164+985614165+969727538+948018084+922450224+898170153+877874223
1492+863235898+860168885+874722746+899238019+917810217+921104429+907662418
1482+883952955+863670452+858803974+871133606+893404542+914871850+926099421
1472+923006811+909310747+890028248+865365214+832487451+792268038+753674797
1462+723696642+700408704+677122486+646510093+612951662+591112899+582370158
1452+580506007+579497735+574594813+564867942+554338304+547968910+548113232
1442+554819521+566967361+584954400+612445476+649130846+683013903+706079868
1432+722707684+738636047+755120268+770624659+785171973+800299221+815789260
1422+829795464+842556674+856401756+870809840+882362037+890901986+898627526
1412+906848472+915625739+924337327+932467195+940239894+948009154+955189749
1402+960998092+965612568+969505499+972547048+974159065+973751100+970971607
1392+966159630+960119261+953526075+947178673+942521734+941051062+943152333
1383+948210624+955159456+962676384+969570318+975364441+980229926+984024239
1373+985874633+985276179+982662570+978953977+975247633+972360461+970552927
1363+969740833+969575477+969573229+969435587+968916040+967564755+964965565
1353+961030237+955760292+949070472+941120974+932532940+924156891+916576335
1343+909397129+900677604+887262909+866894487+841015098+814915455+795936416
1333+791381005+804775659+832450742+864914454+892534905+910056765+916767353
1323+914361629+905331038+892255123+877158962+860419630+840299373+814956860
1313+786102792+760345568+745640108+746296966+761054017+784175872+808322997
1303+827739699+840010332+845978408+848377518+850145631+853414775+859307382
1293+868104559+879480156+892665800+906581456+920052041+932096071+942130304
1283+949975628+955710156+959552488+961878841+963214517+964007760+964353221
1273+963957757+962361216+959221513+954480043+948322205+941109003+933368448
1264+925649324+918252708+911093345+903648975+894946052+883893295+869912291
1254+853265624+834799650+815475547+796126377+777426127+759883101+743895079
1244+729951577+718725395+710772259+706120148+704165977+703785461+703449591
1234+701410097+695977574+685866549+670684998+651404880+630385024+610722339
1224+595057884+584397483+577873283+573680066+570250924+566797574+563199175
1214+559640129+556322900+553366708+550790470+548515807+546470855+544756747
1204+543726550+543946043+546038980+550420206+557094978+565704376+575731797
1194+586672576+598075357+609487332+620427251+630479541+639458542+647480730
1184+654844274+661797869+668436362+674802548+681020047+687305407+693887481
1174+700885589+708232928+715781075+723537570+731733249+740548813+749695021
1164+758265726+765025326+768702435+767778892+760236036+744345838+720429416
1154+691838396+663766724+640655914+624320645+614088646+608452869+606728145
1145+609419008+617026881+628416632+640497570+649810721+654727864+656431753
1135+657924781+661880745+669185026+679151662+690355223+700788493+707946136
1125+709996610+707458999+703769058+703888180+711252187+724883961+739756099
1115+751191687+759100904+767167870+778157263+791212343+803681865+814060369
1105+822546544+829920208+836896490+844107907+851864402+859827525+867145761
1095+872922753+876591065+878002341+877292503+874780290+871075401+867146357
1085+864030332+862372345+862229082+863298270+865356483+868480378+872799265
1075+878102678+883834296+889438458+894493176+898460914+900659481+900901760
1065+900166258+900221289+902343196+906512602+911850541+917549749+923268668
1055+928903453+934306344+939278187+943670690+947369295+950162149+951683287
1045+951509862+949345557+945253869+939872011+934377778+929938116+926676247
1035+922729146+914476651+898888656+877169875+856228530+844903994+847190398
1026+858986924+871595874+878106779+876977269+871168992+864907443+860772829
1016+859058159+859422404+862411965+868598773+876584715+883212229+886465896
1006+887471984+888813943+891260543+893020851+892084741+888377206+883458741
996+879013059+876161736+875683594+878155592+883770138+892174430+902473166
986+913421947+923782526+932604373+939311787+943769638+946293757+947360366
976+947196201+945665274+942470010+937488842+931117960+924318146+918176116
966+913420228+910392370+909192683+909539665+910717129+912204799+914441198
956+918544131+925051266+933073652+940796613+946825209+951165791+954947074
946+959109798+963456663+967049573+969145818+969405757+967591609+963590800
936+957630132+950118958+941352406+931569182+921277192+911537622+904046887
926+900775428+902994498+910257043+920358676+930395753+937937947+941704282
916+941967264+940571333+940000724+941898807+946337278+952310249+958632384
907+964446084+969348477+973373098+976807862+979854834+982468575+984546167
897+986120021+987206869+987536588+986573558+983879983+979611563+974765920
887+970709155+968111552+966371351+964322597+961571942+959068460+958316423
877+959991738+963291903+966626263+968834156+969595849+968915775+966766154
867+963403551+959658779+956552212+954603597+953658293+953419983+953970418
857+955519666+957719159+959605534+960382507+960088901+959468025+959369737
847+960261466+962120922+964754704+968243440+972927431+978818055+985134634
837+990608628+994235734+995656005+994939090+992308747+988194041+983394103
827+979080441+976616049+977108875+980788762+986806378+993755674+1000304280
817+1005375269+1008232612+1008794622+1007758902+1006055806+1003891237
809+1000461103+995189769+989410264+986071274+987144299+991558298+996022433
799+997643115+995634906+991065605+985581689+980274109+975006214+968548488
789+960067537+950975433+944733198+944108816+948622359+954946015+959842720
779+962561693+964376503+966326970+967987536+968054538+965457531+960443423
769+955292468+952982981+953932320+954948992+952868291+948498739+945192225
759+943548790+939081877+925508110+899412039+861688303+815597712+763836420
749+707119160+645586285+581617460+520988419+471264968+439072009+427752599
739+435981515+458741572+490885321+529752259+573977376+619985289+659512193
730+681250420+677109720+648038507+603557883+556260462+517606403+496759112
720+498523587+520448831+554299611+591510215+626644881+657243119+682496142
710+702126814+715935451+724415079+729370055+733081756+736963046+741705706
700+748353261+758165719+771218219+785650909+798620665+808023571+813458938
690+816071224+817749714+820093264+823732739+828523021+833955080+838947030
680+841691799+840557989+835252459+826718595+816303052+805561759+795984766
670+788675988+785234345+787472928+794755580+805810189+819981683+834865395
660+846788319+854492826+859743987+864123262+867050583+867010964+863534001
650+857119134+848224266+837734710+827705834+820551431+817677421+818816191
640+822393161+826888383+831940852+837901124+844808353+852226795+859619507
630+866718747+873752374+881000765+887718166+890907939+884970553+865242387
620+835044508+807665411+797159319+805885856+823140567+836228255+840771430
611+841474852+845188141+853800847+864013598+872249954+877409045+879810800
601+879941101+878203479+874641854+868975717+861556019+854301080+850233203
591+851505250+857821895+866944689+875960399+881852742+881834156+873888032
581+858409238+840246790+826842877+822547603+825475122+830137155+832185711
571+830589104+827287286+825023966+824202480+822504147+817737015+809661847
561+799628275+790408583+785986977+788879177+796427125+801506846+799219450
551+792925161+792130396+803628952+825269089+848623170+866539304+877270874
541+882671186+884639643+883506562+878533925+868856860+853315098+830448420
531+801451749+773510576+757588232+761424942+783162970+812097732+838324632
521+858717063+873871959+884507161+891350959+895835797+899259317+901935562
511+903739392+904965271+906252068+907829096+909379998+910935067+913454754
501+917852085+923503671+928687102+932190389+933640028+932642207+928116626
492+919012021+906144057+892920249+883956990+882913994+890295859+902756651
482+915739041+926578225+934462241+939218725+941161784+940847873+938732646
472+936015657+934622570+935047864+935866043+935807441+935245630+935196751
462+935581830+935033644+932029201+926244008+918996940+911410696+903129032
452+893530278+882735740+871117005+858842800+846437501+835214295+827030654
442+823448989+824584385+829522165+837463461+846476988+851838077+848572902
432+836098021+819004961+803338124+791833484+782951315+773966626+764574369
422+758462169+762458348+782352133+810915175+833081342+847130473+857603229
412+866410459+873589532+878604896+880644324+879639029+876663557+873446996
402+872246581+874999221+881591348+888923872+893558389+895426112+895547218
392+894493904+893170333+892433839+892548133+892746560+890675714+884467277
382+876683069+871688209+870930087+874347191+883379767+898485982+913016231
##END=
