##TITLE=X9659
##JCAMP-DX=5.0
##DATA TYPE=LINK
##BLOCKS=1


$$ === CHEMSPECTRA SPECTRUM ORIG ===
##TITLE=X9659
##JCAMP-DX=5.00
##DATA TYPE=INFRARED SPECTRUM
##DATA CLASS=XYDATA
##ORIGIN=Default
##OWNER=
##XUNITS=1/CM
##YUNITS=TRANSMITTANCE
##XFACTOR=1
##YFACTOR=9.270214e-010
##FIRSTX=3996.5625
##LASTX=399.65625
##MAXX=3996.5625
##MAXY=0.9953816479960123
##MINX=399.65625
##MINY=0.589603182090637
##NPOINTS=1765
##XYDATA= (X++(Y..Y))
1765A050075146A050664235A050465750A049874347A049744660A050031360A050151981
1758A050137836A050045762A049934657A050470122A051095089A050625592A049359778
1751A047923899A047144363A048161090A049549390A049543282A049443557A050004162
1744A050679537A051369444A052010741A051945223A051331573A051316077A050852303
1737A049264426A048490869A049295481A050813532A052022701A051974285A051528000
1730A051977500A052347207A052241889A052466478A052370097A051360442A050179564
1723A049116479A049109213A052266065A057739278A061401246A061079054A057373299
1716A052667213A051067569A053310311A054860318A054536775A056091347A057662057
1709A057460036A056711555A054330639A053459030A055714888A058776130A061192795
1702A060555870A059356539A059983241A058486601A055555046A056103949A062013481
1695A070625993A069268492A059567819A053918882A053825587A056791734A060807592
1688A065006118A066194840A062870817A059662849A057511409A055218902A054269429
1681A055298759A059287870A064935842A065445331A063376255A060591940A055024339
1674A051806663A053905315A057694784A058610629A060486493A062084915A058866532
1667A055543023A052305543A048954965A047835555A048392624A049181290A049529651
1660A050038175A051830710A052018521A049447608A048332892A050312273A053949230
1653A055782464A055006915A052938675A051789238A053790095A055834545A056723386
1646A061427351A070443647A073741823A069794955A069320829A068452306A062314648
1639A059122369A061624099A065852202A065129633A058793040A052624906A050019915
1632A050464528A052416969A053398977A051587346A049156664A049903409A055088122
1625A059825135A057146588A051482413A049545661A051463124A052027394A049390769
1618A047412417A048156590A052589993A059333649A061416999A055755395A050142208
1611A048537806A050764088A056393607A063752585A065573925A062475969A061896461
1604A058347784A051122993A046939706A046125449A046963431A049499110A051763841
1597A052354794A056496225A064996088A066141345A056808129A048973997A046290499
1590A045803771A044994337A044659993A046136187A050512237A057196097A056876991
1583A049342032A046313196A049518656A054128811A055249250A054707870A054559794
1576A053462566A051988752A050046084A046824485A045002439A045979816A047337961
1569A047550719A047205895A046566269A047002395A049541739A050271702A046671459
1562A043436101A042457501A042413972A042153891A041541398A041926087A044442669
1555A048546679A050648225A048110360A044918917A043336248A042429018A042605448
1548A044074569A044268682A042506881A041833306A042333408A041955406A041254827
1541A041076017A040959704A040527821A040599705A041944604A043609188A044176930
1534A043616839A042663894A041244732A039666885A039254549A039853218A040225433
1527A040185119A039964323A040322135A041931488A043082982A041849638A040029263
1520A039770853A040203443A040319049A040377816A040005216A039123447A039092842
1513A039809431A039330934A037981405A037664357A037937040A037767296A037569969
1506A037616134A037851525A037994907A037588486A037096036A037205405A037606682
1499A037672973A037141365A036542182A036670455A037066588A037349109A037611055
1492A037240254A036362729A035589687A035073447A035250521A036281908A037002098
1485A036875176A037083112A037605011A037272853A036421368A035965953A035906350
1478A036025492A036157043A036103741A035904999A035454149A034799542A034481979
1471A034505962A034508084A034466741A034184606A033763718A033725590A034023349
1464A034267678A034149950A033601883A033003921A032754964A032819903A032917699
1457A032874813A032695039A032439008A032362495A032465884A032236602A031824008
1450A031640376A031460345A031182775A031104268A031326285A031601862A031863936
1443A031894156A031579101A031462016A031816421A032150765A031728463A030614647
1436A029889313A030134863A030268536A029698351A029333466A029283829A029362785
1429A029690314A029637012A028948391A028500628A028679052A029145012A029625503
1422A029295081A028121468A027550962A027794518A027890257A027657180A027138947
1415A026606054A026758502A027400957A027806671A027587482A026698063A025536410
1408A024694827A024775070A025463690A025721649A025525029A025300890A025085302
1401A024598124A023833441A023583583A023925193A024516917A025273950A025298190
1394A024180837A023125210A022967554A022985236A022590838A022027854A021620083
1387A021445452A021297376A021181963A020759018A019762673A019048205A019040875
1380A019239038A019279224A019017985A018657601A018498466A018212280A017606925
1373A017107787A016950196A016810736A016506290A016658545A017248662A017302543
1366A016840698A016760648A017272581A017508486A016771064A015839209A015433945
1359A014998333A014425705A014184655A014148328A013924574A013641668A013681660
1352A014077215A014093804A013102474A012584369A013066660A012840463A012071536
1345A011631874A011398283A011626730A012283073A012321844A011390053A010997456
1338A011561662A011669037A011248407A010918499A010838707A010917470A010587241
1331A010022071A009725855A009542287A009152133A008793099A008578862A007854493
1324A007041522A006936589A006727689A005502575A004112539A003656545A003344190
1317A002587994A001968750A001182141I99927322I98939721I98613736I98373265
1310I97686059I97203318I97792856I98639069I98609170I98361370I98774156I99514086
1302I99818660I99538904I99310457I99391086I99377776I98885133I97882229I96833032
1294I96090530I95529218I94863295I93985641I93088056I92241008I90962335I89305917
1286I88099706I87019260I85774021I85258938I85746759I86537290I86802708I86761880
1278I87118149I87561734I87481298I87100596I86573104I85416209I83715426I81886049
1270I79980931I77640908I74334630I69537049I62298306I51797329I37635863I19022283
1262H95944501H69977087H41615383H10897903G79987725G51516330G27838787G12430603
1254G09036174G19174324G40341264G66203746G89440533H05017369H11104489H07825023
1246G96293495G78920139G59226113G40544120G24267735G10400041F99494765F92102802
1238F88248522F88522491F93350549G01438911G10510439G19558884G29079461G38834594
1230G48032915G56690691G65097003G73410790G81896766G91473281H02701650H14800920
1222H27054118H38616573H48030160H54355308H56786826H53887098H43596693H26072046
1214H07862251G98704309H02549587H13942363H23538618H25304341H18526350H06063480
1206G92481264G81984660G76816407G77282560G82439175G92077030H06592579H24791958
1198H44766448H64734507H82619024H97430340I09552500I19053274I25805418I30422453
1190I33820482I36397182I38204698I39554483I40925294I42599458I44426006I46445380
1182I48970514I51708214I54232254I56677210I59060441I61157936I63078421I64795857
1174I66055563I67147196I68569445I69987128I71156111I72553733I74042465I75125997
1166I75767616I76365899I77300198I78386881I79126810I79466298I79932065I80468366
1158I80608405I80726904I81267641I81759449I81894086I82061966I82466779I82870564
1150I83018769I83033235I82722102I81642107I80484054I80197097I80298751I80243005
1142I80677717I81834226I83033685I83719798I83947731I83969077I83920019I84018843
1134I84255070I84525246I84725274I84879136I85126294I85311340I85348504I85307868
1126I85228526I85058075I84916364I84988634I85025733I84812010I84348237I83513984
1118I82479574I81832747I81574016I81391606I81372445I81345505I81331681I81761185
1110I82252670I82376764I82626879I83109620I83519127I83838490I84221764I84917907
1102I85463917I85234441I84454712I83933071I84112010I84282075I84154253I84381478
1094I84931153I85282535I85394412I85293402I85074085I85191362I85303561I84868077
1086I84611533I85215924I86093191I86334562I86071652I85918111I85915410I85932770
1078I86143343I86650260I86735196I86167647I86095377I86841093I87694121I88124975
1070I87469532I86181021I85676997I85515226I84898811I84357688I84276803I84685474
1062I85083343I84951085I84415298I84127634I84653904I85365864I85337702I84793236
1054I84559130I84580284I84393952I84415491I84834129I84958865I84631143I84184472
1046I83623224I83192820I83427118I84271080I84805838I84592758I84453555I84964587
1038I85957911I87131587I87830302I87808119I87619472I87534729I87699072I87905787
1030I87900514I88295683I89189604I89896934I90037359I89741271I89232040I88597429
1022I87946615I87386267I87315605I87850555I88238909I88137384I88254469I88690145
1014I88942446I89221173I89595767I89924903I90066357I89785765I89686812I90099727
1006I90348235I90115544I89320255I88621669I88865418I89174944I89207414I89795281
998I90562472I90444294I89702243I89129422I88592221I88467292I89326235I90528716
990I91054858I90581375I89785636I89536486I89512824I89114119I88519372I87826958
982I87687756I88233701I88896988I89708351I89777856I88940646I88380877I87666923
974I85845069I83471741I81424847I79842885I78355183I76928562I75952599I75118796
966I74478848I73936118I71664442I68075065I66143392I67011851I69992529I73235795
958I75643652I76909980I75963400I73288969I71886074I72184347I72866731I73664463
950I73704456I73031010I72460696I72448608I73090549I73529761I73632443I74600627
942I76601290I77826340I77493346I77230500I78037234I79322980I80788243I82235953
934I82742613I82716959I83659681I85195413I85923062I86154402I87008780I88254469
926I89389246I90120495I89717224I88168504I87043243I86996563I87064397I87659143
918I88884000I89015809I88385185I89300259I91299701I92090939I91170207I89915966
910I89516361I89195390I88396887I87912088I87656186I87033277I86789141I87572021
902I88434565I88264628I87604620I87170037I86670835I86822897I87564563I87710581
894I86732432I85023226I84009134I83120486I82200011I83483635I86797050I90135605
886I91831501I91293721I89572106I87666345I86245897I85239714I84206719I84854125
878I86803865I85885448I82840988I81781181I83974864I87598190I88207854I84904534
870I83227798I85813950I87815256I88018499I88039910I84953849I79687544I77733174
862I80345237I82243926I81006210I80707229I82887088I85022969I85091702I83294217
854I81726979I81437900I82054186I83039022I83078758I81769543I80373271I79756856
846I80216450I81472427I82036954I81793012I82177700I83058247I82575055I80203527
838I78685733I79194129I79711784I79238880I79083795I80337843I81166824I80297143
830I78825450I77993512I78729519I80397125I81241151I81425683I81735209I82005320
822I82443118I82424279I81681906I80072747I77548384I76905415I78648505I80518325
814I82389880I83745581I84279889I83923041I81750383I81111014I83537838I83660902
806I80646211I79346384I81111014I82815012I82013164I79589362I78494450I80184109
798I81239415I78772405I75800665I75179685I76410650I76958910I76154941I76079842
790I77293640I78616035I78073562I75232473I71918737I71252878I74529771I79012940
782I81311170I80759181I79345420I78557718I78297380I78830401I81227841I82272152
774I80098916I78255972I76083057I74061625I75104072I77315887I77676207I77242395
766I76352526I74785738I74667045I75664741I75192866I73555094I74183468I77804672
758I79856323I76941743I72625360I70112443I68224491I66834456I66439544
751I66096584I66337762I68016941I70117136I71615447I72294102I72128731
744I71845760I72392927I72645742I71351638I69964431I69796423I70329188
737I70124916I68934201I68108564I68463290I70031943I71577577I70890307
730I69267259I68741503I68152736I67526034I67900499I68605194I68961270
723I70366673I73540820I74052624I70077465I66962471I66678150I67215094
716I67383552I67382459I67237148I66712292I66790477I68985896I72576559
709I72709011I69102788I67569756I68246417I68111072I68137112I70544390
702I72154642I70737666I68650523I65601819I62459627I61232199I61299582
695I61751461I63104976I64371947I63549589I61884555I61877547I63916918
688I66131883I66035245I64900661I66301306I68477500I65653257I60932318
681I59048546I59083588I59732472I59746425I58105245I57705383I60574698
674I61712433I56035977I48240615I42570203I40063201I38351423I34988114
667I31169133I26961862I23929361I23749073I23141209I18810167I13155122
660I09120232I07032831I04298282I02200273I04747975I05342850H96801001
653H85744756H76643009H72539835H73742895H79886018H91881256I04002709
646I06021183I03087185I01525412I02651830I04164416I00562694H93087210
639H79384245H54932502H30063922H08099764G96029556G94402136G99765337
632H13649619H39588615H61144616H71882205H83586950H97693893I09674150
625I18269558I25449855I26065177I23110540I23079806I21421716I15064999
618I10011387I10833938I11321502H95221675H80523329H71238272H54666505
611H37838130H30590450H32490039H42214437H53356970H55837224H56905196
604H62434027H69465669H75603584H79545951H79372285H80391778H84081394
597H83100415H79156248H76893445H74477359H70343708H66349453H64044665
590H62976886H61992178H58472756H49210460H38097504H35212822H43918757
583H58249260H71811672H82515313H91655252I02227985I12614063I15610687
576I17383546I23116776I26120473I25843996I27568375I33777146I44077324
569I36843210I12275218H93053454H82547976H80250131H82899937H90528384
562I03906071I19929898I27266887I21994795I20546120I23876059I24212846
555I24598242I28604328I33691438I39387376I42619069I40824927I38548108
548I35527566I33224192I35602857I44169718I51706992I42907569I32534864
541I30171695I32003322I30435183I22463455I15075929I12228925I12826308
534I13960634I15041659I16778512I18141865I18935868I20548692I20550943
527I09181314H81944099H47142155H08750706G78138802G69226731G74251344
520G80248835G79356843G79894880G87624980G99655453H11663422H19267372
513H23527495H27982694H33930290H43360145H53805955H59985020H63280432
506H62804570H57998309H50898962H40570879H28041269H13692955G99210197
499G92917455G96806456H07427282H20264553H32756292H42764626H48403276
492H51925720H54307343H52988870H45616839H31706838H14267834G93398975
485G70701896G57245252G55840943G54716132G46584755G41019982G47610098
478G59767686G67100817G67244070G62699048G57928665G52642427G45431782
471G39303511G36250242G35732266G36686497G37734794G35913005G27784392
464G13485973F96602045F79817135F65155631F55198349F51688121F56337626
457F69590062F88441477G08088823G24882478G38175293G49355181G59546633
450G68689659G75156260G76353212G71227973G61830203G53963086G53790127
443G60271131G64886301G60306108G47590102G34372643G27176464G27486311
436G33745426G44341498G57981645G72821895G86588321G97701598H06418849
429H13873951H19668263H22234547H21612474H20345439H21049490H23601436
422H25613931H24906857H21306421H16560278H12939910H12268585H14844064
415H18976621H22294408H23459147H22488520H20030512H17131685H15085306
408H14692259H15892747H18466296H21787426H22998524H19817625H16645857
401H18935343H24299958H28287398H30086426H30608003H31333851H32704019
394H33687312H33456486H31819615H28668486H22925418H12045989G95153060
387G76415194G62665035G58064524G61357492G67899835G74166408G79525301
380G85111870G91740757G98868073H05479149H10484795H13211628H13664665
373H12351850H10536554H09536351H10071559H12400908H16582717H22173915
366H27712390H31337452H32271043H30949291H27748268H21703583H08930095
359G86963429G65749038G61346755G73245033G87557340G97855718H05424111
352H11234883H15718116H19464892H22374329H24170721H25439943H26946420
345H29066805H31529635H33261088H33350396H31828423H29301360H25708511
338H20143418H12124560H01676628G89447992G76972713G66191015G59417075
331G58782850G64384207G70982423G67095609G48074708G31827320G39686785
324G65801504G89793459H03033679H07394555H06543199H04446476H04117854
317H06654562H12081160H19063358H24900299H27936593H28117075H25354428
310H19233938H11026625H04118883G98962268G87394154G64457955G48309134
303G56672495G77141428G92153864G99678665H02256329H00997395G97749499
296G95754686G97247597H01930858H07739958H12934573H17002705H20112041
289H22839646H25597663H28464214H31483534H34255119H35817792H36221191
282H36036916H34521694H30178242H21411739H07270205G90682815G79711377
275G80734984G91688612H05142812H15656070H22419080H26425422H28503628
268H29664960H30224793H30126547H29875018H29942851H30842687H32320809
261H33428260H33946172H34176355H34818939H36059677H37074733H37484947
254H37800452H38335789H38844313H39361003H39859755H40241100H40749303
247H41112388H41034910H40614858H39632787H37973990H35143638H29245936
240H18388240H03102477G86622334G71848310G58950857G47785950G40763052
233G39096282G38744256G35999741G33030573G33611110G38402775G46830112
226G58323576G69986592G77058292G76306789G68539204G57713077G47987650
219G43119342G46196337G57106435G72132310G86823712G98738450H08278317
212H15832822H20823551H23973330H26649690H29301682H31373780H32486695
205H32772945H31740208H29139332H26008135H22615250H20011802H21002104
198H24861271H28131735H29231405H28757923H27926499H27723063H28040433
191H28145623H28307523H28545357H28137200H26763046H24607812H22100424
184H19605574H16548061H09538344G92038451G60123119G17867231F83673923
177F81634938G05231595G27238318G43643234G60905227G75326968G85327072
170G94712561H05085073H15051035H23739675H30285682H32748191H30823462
163H25473892H15862592H02052829G87733192G75792992G66402681G58694570
156G50452666G38854911G22017085G02659010F88539658F81983363F76966337
149F68537521F57412542F47693030F41133006F36969457F36018955F37764232
142F38270763F36313564F36035094F40805477F48562196F54777268F56735881
135F54513586F49864145F44680590F42190433F42494751F44942150F50570640
128F58460647F67744483F77488814F86685913F95848742G06123651G18147501
121G31281953G43098510G52892542G62394152G71408841G78197505G83613108
114G89349425G94411330G97142986G98196427G99201838G99256427G96023512
107G90184578G84880208G79940917G72253703G60487426G46918391G35027250
100G25684068G17856108G12650113G11741340G13814916G18086677G25202677
93G34022867G42852896G51037768G58947707G66133855G71723124G77062600
86G83151199G88090555G91726418G95463293G98210058G99139470G98518362
79G97645338G97598273G97071295G96103369G94479485G88286275G74563249
72G53787748G32377830G21772499G27251756G43919325G62053635G72076372
65G72685135G70324730G66821961G61347655G57641514G55490203G51180892
58G45651484G41313241G38639774G37589612G37791954G39720541G44436722
51G50217403G55483838G62159339G70989753G80308117G86537719G87099096
44G85761076G85606185G85269655G85799397G88143985G90564444G92102620
37G92929671G92070343G88232522G83798091G79184077G72599042G69313210
30G73400696G78052644G77332133G75426500G77108958G80445455G82299972
23G86249026G92956805G97425700H00575607H06254120H12436143H15060294
16H16409694H19198703H21441766H23929801H32395715H44375072H40762677
9H26103166H18466168H15028081H14748004H17300207H21555957H30878500
2H36774080H31201721
##END=


$$ === CHEMSPECTRA PEAK TABLE EDIT ===
##TITLE=X9659
##JCAMP-DX=5.00
##DATA TYPE=INFRAREDPEAKTABLE
##DATA CLASS=PEAKTABLE
##$CSTHRESHOLD=0.93
##MAXX=3996.5625
##MAXY=0.9953816479960123
##MINX=399.65625
##MINY=0.589603182090637
##$CSSOLVENTNAME=- - -
##$CSSOLVENTVALUE=0
##$CSSOLVENTX=0
##NPOINTS=61
##PEAKTABLE= (XY..XY)
409.8515625, 0.7552888353152856
452.671875, 0.7188369596271
460.828125, 0.713169808972694
483.2578125, 0.727961774955617
509.765625, 0.6837613547416967
540.3515625, 0.6690985525044786
595.40625, 0.659799453444676
666.7734375, 0.5953242742662662
683.0859375, 0.5896181432890116
691.2421875, 0.589603182090637
758.53125, 0.6318901745136732
805.4296875, 0.7601684887065628
844.171875, 0.6888875327879188
866.6015625, 0.6795350280252622
937.96875, 0.7693119010113852
960.3984375, 0.7228091323024678
1001.1796875, 0.7376816230722804
1017.4921875, 0.6936985810334676
1046.0390625, 0.7454344587800756
1062.3515625, 0.678419586744648
1072.546875, 0.70340793990299
1125.5625, 0.705784734705557
1154.109375, 0.7504575214549114
1182.65625, 0.7027420363288136
1217.3203125, 0.7570481856603398
1229.5546875, 0.7552371585073426
1247.90625, 0.752990360842719
1264.21875, 0.7604777773453946
1290.7265625, 0.6741081437043296
1302.9609375, 0.6987795788377178
1333.546875, 0.6041288342927894
1353.9375, 0.6820395552524924
1376.3671875, 0.6869413811416148
1415.109375, 0.735051449218537
1455.890625, 0.7224804716974402
1462.0078125, 0.7130896410890434
1490.5546875, 0.845655735173995
1512.984375, 0.8651187969817088
1535.4140625, 0.853365952926968
1549.6875, 0.8160107087898034
1590.46875, 0.7742601595483908
1621.0546875, 0.815196926761899
1641.4453125, 0.76997512178563
1657.7578125, 0.8436000299926818
1690.3828125, 0.7364277802777104
1710.7734375, 0.8357333495678168
1725.046875, 0.808863099397469
1737.28125, 0.8363589601568422
1782.140625, 0.8896925398189008
1814.765625, 0.8915641858282654
1930.9921875, 0.8959101390942416
2336.765625, 0.9026077936205082
2359.1953125, 0.8956355998525888
2671.171875, 0.9097710205423684
2730.3046875, 0.9087579205702714
2852.6484375, 0.7201254331601098
2871.0, 0.7404159867152126
2921.9765625, 0.6380211084123708
2954.6015625, 0.6572917066721236
3013.734375, 0.9133561200672732
3066.75, 0.9244288159370052
##END=


$$ === CHEMSPECTRA PEAK TABLE AUTO ===
##TITLE=X9659
##JCAMP-DX=5.00
##DATA TYPE=INFRAREDPEAKTABLE
##DATA CLASS=PEAKTABLE
##$CSTHRESHOLD=0.93
##MAXX=3996.5625
##MAXY=0.9953816479960123
##MINX=399.65625
##MINY=0.589603182090637
##NPOINTS=130
##PEAKTABLE= (XY..XY)
3066.75, 0.9244288159370052
3058.59375, 0.925502354923318
3013.734375, 0.9133561200672732
3005.578125, 0.914749379464232
2954.6015625, 0.6572917066721236
2921.9765625, 0.6380211084123708
2871.0, 0.7404159867152126
2852.6484375, 0.7201254331601098
2732.34375, 0.9086636851368758
2728.265625, 0.908706242835307
2713.9921875, 0.9121149135014066
2689.5234375, 0.9130385466381896
2665.0546875, 0.9097154687849734
2638.546875, 0.9121270129847194
2632.4296875, 0.9123320534320142
2620.1953125, 0.913184757380419
2612.0390625, 0.9127559617778062
2599.8046875, 0.913964683659774
2587.5703125, 0.9141315169200678
2567.1796875, 0.9124456599045841
2556.984375, 0.9123073770493676
2546.7890625, 0.912707383075382
2542.7109375, 0.9125542595345728
2528.4375, 0.911440784466348
2518.2421875, 0.912609512791077
2503.96875, 0.9154658270262006
2497.8515625, 0.9158049175489996
2477.4609375, 0.915262694388947
2471.34375, 0.9160245011080176
2452.9921875, 0.9174608540217768
2442.796875, 0.9164734436667166
2422.40625, 0.9163303328840487
2399.9765625, 0.9156076863299784
2359.1953125, 0.8956355998525888
2342.8828125, 0.9009591889599836
2328.609375, 0.9014806700162112
2312.296875, 0.9059135862327
2300.0625, 0.9109996511359226
2275.59375, 0.9149669356274482
2265.3984375, 0.916254217937959
2240.9296875, 0.9147746509946174
2228.6953125, 0.914664978800869
2212.3828125, 0.9105204292772354
2191.9921875, 0.9123806905367866
2181.796875, 0.9101321649042734
2171.6015625, 0.9114732098208772
2157.328125, 0.9063795757879236
2149.171875, 0.9091365884177006
2136.9375, 0.90981393607106
2124.703125, 0.9082555723087185
2116.546875, 0.9101431324944568
2106.3515625, 0.9072626183656862
2098.1953125, 0.907631630358213
2088.0, 0.9066209146851568
2063.53125, 0.905612225480881
2047.21875, 0.9095109057536996
2039.0625, 0.9078750559806176
2028.8671875, 0.90708529493123
2018.671875, 0.904012436840259
2010.515625, 0.9048469016426188
1998.28125, 0.9003722027175892
1984.0078125, 0.906902606823932
1969.734375, 0.902975971293775
1955.4609375, 0.903537208589763
1949.34375, 0.9025064062170116
1928.953125, 0.8955922078348976
1914.6796875, 0.900921817019264
1904.484375, 0.8990220377644522
1896.328125, 0.8974573563512696
1880.015625, 0.8969173385751276
1861.6640625, 0.89613133196241
1851.46875, 0.8961629823270488
1839.234375, 0.8969578698047784
1835.15625, 0.8974596813209408
1818.84375, 0.8910828188420586
1804.5703125, 0.8916810702485058
1796.4140625, 0.8944835616211454
1786.21875, 0.8890585257808844
1776.0234375, 0.8878133849361962
1737.28125, 0.8363589601568422
1725.046875, 0.808863099397469
1710.7734375, 0.8357333495678168
1690.3828125, 0.7364277802777104
1657.7578125, 0.8436000299926818
1641.4453125, 0.76997512178563
1621.0546875, 0.815196926761899
1590.46875, 0.7742601595483908
1566.0, 0.8582771973535144
1549.6875, 0.8160107087898034
1535.4140625, 0.853365952926968
1512.984375, 0.8651187969817088
1500.75, 0.862289066939273
1490.5546875, 0.845655735173995
1462.0078125, 0.7130896410890434
1455.890625, 0.7224804716974402
1415.109375, 0.735051449218537
1376.3671875, 0.6869413811416148
1353.9375, 0.6820395552524924
1333.546875, 0.6041288342927894
1302.9609375, 0.6987795788377178
1290.7265625, 0.6741081437043296
1264.21875, 0.7604777773453946
1247.90625, 0.752990360842719
1229.5546875, 0.7552371585073426
1217.3203125, 0.7570481856603398
1182.65625, 0.7027420363288136
1154.109375, 0.7504575214549114
1125.5625, 0.705784734705557
1072.546875, 0.70340793990299
1062.3515625, 0.678419586744648
1046.0390625, 0.7454344587800756
1017.4921875, 0.6936985810334676
1001.1796875, 0.7376816230722804
960.3984375, 0.7228091323024678
937.96875, 0.7693119010113852
866.6015625, 0.6795350280252622
844.171875, 0.6888875327879188
805.4296875, 0.7601684887065628
791.15625, 0.7673169926745482
758.53125, 0.6318901745136732
691.2421875, 0.589603182090637
683.0859375, 0.5896181432890116
666.7734375, 0.5953242742662662
595.40625, 0.659799453444676
540.3515625, 0.6690985525044786
509.765625, 0.6837613547416967
483.2578125, 0.727961774955617
460.828125, 0.713169808972694
452.671875, 0.7188369596271
409.8515625, 0.7552888353152856
##END=

##END=

