##TITLE=X8254
##JCAMP-DX=5.0
##DATA TYPE=LINK
##BLOCKS=1


$$ === CHEMSPECTRA SPECTRUM ORIG ===
##TITLE=X8254
##JCAMP-DX=5.00
##DATA TYPE=INFRARED SPECTRUM
##DATA CLASS=XYDATA
##ORIGIN=ComPlat
##OWNER=
##XUNITS=1/CM
##YUNITS=TRANSMITTANCE
##XFACTOR=1
##YFACTOR=8.8002039e-010
##FIRSTX=3997.453
##LASTX=373.96442
##MAXX=3997.453
##MAXY=0.944914697835771
##MINX=373.96442
##MINY=0.4832575315972292
##NPOINTS=2559
##XYDATA= (X++(Y..Y))
2559I60017780I60732951I61158979I60968181I60575274I60360499I60216638I60022589
2551I59998951I60301640I60736609I61092738I61348758I61458147I61336773I61073841
2543I60840034I60675448I60535922I60397141I60239260I60090320I60076570I60331171
2535I60890968I61632080I62261640I62515157I62337363I61724059I60688113I59659280
2527I59470039I60487697I61989564I62827532I62703381I62364658I62643642I63553269
2519I64294111I64304541I63796085I63112138I62366484I61883904I62220595I63270493
2511I64190618I64644890I64999326I65322674I65136820I64282868I63316279I62871828
2503I63096763I63599799I63883119I63861310I63785045I63775766I63681078I63436975
2495I63414489I64159529I65632949I66948488I67428362I67286533I66864366I66217535
2487I65505344I65108440I65310279I65818126I65916065I65524038I65251692I65390201
2479I65459219I65213017I65091982I65105596I64743845I64316394I64617323I65477913
2471I65910849I65814333I66055726I66714071I67216635I67691497I68310219I68357360
2463I67280979I65698174I64444880I63924164I64610753I67207830I70598782I71496827
2455I69962991I68221560I67273732I67010596I66941918I66769340I66725653I67292087
2447I68433558I69316499I69325371I68834728I68308391I67658918I66767172I66090269
2439I66198097I66890373I67610762I68778173I71178423I73395665I73043193I71048177
2431I69658066I69070432I67985314I66055046I64026641I62991576I63891382I66177439
2423I67812058I68068691I67961947I68295996I68943843I69798537I70626280I70588622
2415I69357950I67744124I66640448I66374062I66970501I68159315I68985430I68517476
2407I67220563I66438474I66626969I66962237I66849533I66653316I66823728I67427143
2399I68195551I68569426I68288952I67879586I67851342I68079257I68355396I68756634
2391I69147171I69060340I68469116I67825401I67529349I68063205I69622169I70853111
2383I70461220I69291167I68597128I68206997I66979780I64938774I62913008I61728055
2375I62174944I63979771I65082567I64409795I63309641I62965026I63416453I64324183
2367I65239500I65698106I65710908I65673452I65732243I65780535I65801532I65880912
2359I66217129I67101966I68317941I68834999I68115696I66571023I64819094I63574740
2351I63493802I64437159I65392098I65756220I65769156I65964763I66968807I69230954
2343I72488611I75389123I76003646I73977406I70898017I68184985I66559644I66270027
2335I67010936I68330539I70386919I73231214I74922795I73939951I71857155I70649715
2327I70724897I71041674I70842342I70095947I69018144I67958425I67215890I66994274
2319I67584076I68922169I70140785I70745351I71432211I73104828I75042950I74931194
2311I72850295I70767364I69569406I69088855I68985633I69074428I69054109I68465256
2303I67147549I65474459I64168876I64171586I66002828I67930790I67660476I65977226
2295I64839819I65456984I67951381I71108660I73055113I73358142I72965234I72409502
2287I71672385I71120242I71549250I72960493I73891862I73110924I71173140I69452096
2279I68592725I68218376I67957138I67959915I68214919I68274322I67948671I67715880
2271I68298096I69909551I71584945I72119139I71594562I70701733I69949512I69689425
2263I69903862I70085178I69918898I69759324I69993402I70555976I71510847I73277745
2255I75395964I76076931I74846530I73236429I72466192I72418849I72411804I72223783
2247I72015646I71780755I71397465I70978007I70851147I71286454I72177455I72840135
2239I72634843I71932608I71665341I72128347I72788727I73057755I72896691I72655162
2231I72675210I73188408I74166443I75048165I75082505I74245011I73347373I73033372
2223I73072791I72866889I72324973I71978665I72328969I73225728I74004905I74184798
2215I73850411I73401761I73188543I73418355I74098306I74866849I75153351I74755432
2207I74030101I73465969I73253497I73212859I73097174I72949114I73059651I73549008
2199I74151404I74545263I74700367I74683976I74397000I73777600I73048002I72515094
2191I72358297I72613711I73058364I73251940I73003231I72535143I72006231I71321674
2183I70603997I70318917I70662178I71250557I71673808I72028447I72656855I73523202
2175I74160551I74356835I74574929I75304662I76185504I76330584I75582766I74777106
2167I74669684I75207198I75786433I75898392I75564478I75272897I75406056I75787991
2159I75965785I75797541I75565969I75646839I76137347I76690574I76787768I76288929
2151I75568542I75082437I75017619I75321934I75813728I76282562I76600421I76739408
2143I76774696I76910158I77356708I78087119I78730021I78794498I78126606I77151551
2135I76516776I76464623I76682446I76704594I76347110I75853961I75650565I75837976
2127I76011097I75771126I75367720I75496544I76333767I77150738I77248067I76944904
2119I77053883I77685000I78198536I78137646I77707216I77427690I77495556I77529625
2111I77196592I76980798I77658583I79017472I79881651I79522812I78366171I77191512
2103I76335528I75865407I75899137I76407932I77055102I77436834I77278275I76480675
2095I75269239I74071617I72963609I71580136I69800436I68089146I66897690I66021048
2087I64759761I62612012I59583150I55693563I50391853I42690095I31744430I17265510
2079H99656607H79872046H59172106H39146019H21617241H08050793G99316612G96095594
2071G98741102H06502192H17524732H29780449H41825050H52916066H62743831H71087204
2063H77845469H83407199H88550825H93708675H98574062I02552716I05378520I07230556
2055I08501324I09618073I10933070I12506664I14019300I15153997I16006391I16872535
2047I17825646I18825829I19984096I21338581I22612804I23627481I24775725I26599991
2039I28971117I31148126I32631028I33550002I34259959I34940926I35610176I36283964
2031I37090639I38220866I39651751I40977450I41725674I41967947I42361126I43286737
2023I44208756I44432542I44222847I44356684I44855319I45038870I44552968I43649437
2015I42801445I42508508I43002538I43826079I44186611I43876674I43371469I42947202
2007I42266844I41026216I39509042I38174877I37052981I35868095I34485367I32921662
1999I31132819I29096623I27062052I25477147I24582417I24174067I23824443I23209581
1991I22226263I21031962I19952602I19130618I18438205I17935641I17992331I18702762
1983I19643681I20410937I20962809I21343999I21478919I21384705I21313114I21515765
1975I22004715I22661638I23366714I23849504I23769513I23211207I22687511I22414555
1967I22045353I21247008I20089824I18898774I18077063I17901911I18248355I18707842
1959I18980391I18949370I18616676I18187600I17930425I17907871I18176492I19027261
1951I20542267I22178512I23268033I23750752I24089474I24665120I25484259I26269938
1943I26694747I26627151I26237088I25831989I25533228I25124607I24331610I23204772
1935I21994149I20720468I19258223I17801940I16868065I16787804I17409710I18284049
1927I19047445I19637382I20109060I20370028I20316723I20075669I19747444I19087403
1919I17847184I16335428I15269952I15062425I15402028I15549817I14936242I13456388
1911I11342639I08898025I06313343I03659508I00998560H98299616H95135902H90834985
1903H85318161H79595774H75133860H72750000H72113735H72149565H71920363H71211762
1895H70302880H69444593H68881613H69047825H70189092H71954500H73737247H75250560
1887H76537042H77640380H78521560H79247027H80057631H80994147H81443881H80497679
1879H77984115H74763303H71909797H70010350H69286712H69916949H71953551H74983429
1871H78079751H80377186H81685477H82273044H82247848H81657437H80963394H80821162
1863H81500030H82872937H84747189H86951764H89305687H91648502H93819889H95659327
1855H97114189H98266360H99215746I00017206I00713887I01366069I02014119I02587326
1847I02890558I02763833I02170916I01044211H99256791H96864261H94099686H91085925
1839H87966646H85237087H83292189H81691438H79613384H77034256H74757817H73337973
1831H72628152H72359189H72602076H73529584H75055563H76912340H78915890H80936644
1823H82764432H84293933H85715335H87280937H89072489H91108618H93349362H95502124
1815H97153269H98137197H98552727H98545886H98323932H98232630H98504232H98896055
1807H98800419H97888286H96567735H95671790H95725974H96546129H97502558H98161039
1799H98589031H98991827H99269930H99144965H98541619H97702026H97056956H96925219
1791H97171354H97318804H97113376H96720739H96314218H95736202H94588500H92573097
1783H89880520H87213816H85218935H83958594H83111960H82495337H82169483H82201452
1775H82565506H83219855H84130837H85276710H86702650H88460269H90392563H92110495
1767H93294635H93955825H94422695H95153377H96386555H97839181H98914749H99301290
1759H99229360H99185334H99531169I00324637I01353877I02342885I03172386I03951834
1751I04892889I06030905I07113923I07930623I08637667I09552442I10774038I12174579
1743I13577491I14864921I16065317I17317392I18659753I19996288I21281480I22548865
1735I23779605I24928119I26028138I27115559I28059729I28608621I28643706I28284122
1727I27671089I26814831I25760195I24641753I23412571I21795629I19689873I17421292
1719I15461292I14021467I12998255I12237837I11752953I11666055I12075014I13065715
1711I14689633I16758609I18755456I20090840I20496549I20202461I19754014I19620787
1703I19936956I20552156I21252698I21919374I22522654I23029959I23389542I23582847
1695I23592329I23387781I23074119I22930391I23186349I23896102I25022943I26412308
1687I27725003I28658945I29230188I29677754I30150381I30590633I30891087I31091842
1679I31362560I31784391I32250854I32657173I33078324I33647467I34323152I34914782
1671I35348125I35784244I36403102I37184921I37971413I38631587I39080305I39261282
1663I39265955I39378253I39824059I40520469I41224126I41868789I42581252I43429176
1655I44318822I45083911I45602256I45930345I46354206I47151941I48285216I49425535
1647I50245351I50625728I50683502I50674901I50791262I51008002I51194059I51322544
1639I51422447I51429017I51322883I51309675I51524383I51693639I51483270I51060832
1631I50904983I51136149I51424750I51521064I51528717I51612094I51747624I51909636
1623I52232442I52770362I53319050I53670100I53856022I54036254I54314967I54684981
1615I55021672I55222765I55391957I55746867I56373853I57171250I57906808I58295178
1607I58249798I58047892I58036649I58252236I58493765I58632207I58700345I58756290
1599I58760828I58607214I58320780I58209295I58637084I59548811I60391519I60699086
1591I60594983I60457354I60308617I59941583I59486972I59357741I59683595I60243527
1583I60945220I61907271I63011828I63865577I64348905I64751024I65210443I65495252
1575I65475407I65338252I65191411I64884386I64408983I64157159I64504483I65259751
1567I65842644I65997884I65982238I66014071I65944850I65592649I65085751I64754072
1559I64795997I65116365I65528169I66002693I66491507I66718270I66570685
1552I66423912I66593713I66858406I67013036I67383592I68228875I69068942
1545I69173180I68458957I67442586I66560051I66007705I65988130I66543183
1538I67277728I67672668I67538019I66947066I66093113I65400835I65340825
1531I65941464I66758503I67297506I67311526I66917806I66566350I66661512
1524I67204647I67918531I68522014I68817254I68831477I68852880I68964094
1517I68765372I68030220I67352029I67578725I68743698I70019478I70701936
1510I70920978I71310431I72180300I73167276I73691717I73626018I73330914
1503I73061480I72660987I72006367I71435530I71422797I71993904I72666405
1496I72880571I72479603I71886618I71735782I72285283I73346627I74621392
1489I75723104I76129355I75700482I75059747I74892790I75074580I74955509
1482I74320193I73636448I73438809I73714000I73932094I73673294I73140116
1475I72849888I72922225I73047798I73078345I73157726I73307818I73422012
1468I73620464I74058480I74477328I74516342I74335771I74351755I74534290
1461I74521625I74246704I73943608I73684334I73370130I73128805I73335113
1454I74144295I75223995I76067178I76416263I76323675I75983327I75592655
1447I75243975I74974203I74981653I75497899I76305320I76778556I76617763
1440I76182320I75986375I76178189I76562630I76928987I77316069I77878169
1433I78464110I78625987I78203887I77522649I76873041I76256347I75762321
1426I75726288I76335054I77312683I77936553I77212306I74419486I69803281
1419I64371931I58788056I52869046I46318986I39372970I32411374I25395531
1412I17990435I10000821I01649049H93497896H85998925H79321731H73928045
1405H70704047H69979464H71134887H73742462H78222799H84914958H93472429
1398I03086842I12146538I18321233I19866719I16567949I10048842I03483204
1391H99593684H98673627H99405392I00650762I02128784I03943842I05828389
1384I07293478I08428785I09816321I11513524I12879523I13637162I14470998
1377I16345114I19602026I24007384I29231069I34624690I39025036I41590754
1370I42646747I43300555I44486592I46636102I49826096I53734512I57611230
1363I60748259I63064794I65037526I67042837I68997689I70603861I71658839
1356I72171427I72486918I73180280I74495345I76045233I77324400I78244322
1349I78910321I79305464I79493214I79708124I79959000I79906983I79340955
1342I78497230I77799804I77486751I77554008I77934927I78599978I79427244
1335I80082609I80224505I79877858I79476078I79364119I79330318I78996407
1328I78590766I78666016I79158894I79764138I81000973I83427774I85954546
1321I86692069I85651789I84904513I85714779I86986631I87097168I86125703
1314I85426787I85761581I86730473I87575552I87910820I87956336I88217506
1307I88707946I88922247I88795793I88741541I88611091I87946786I87286815
1300I87814301I89686524I91640291I92304597I91631348I90965149I91409871
1293I92262807I91848835I89678464I86910434I85102626I85105129I86597178
1286I88223467I88601406I87454178I85551412I83491238I81044457I78254956
1279I76686171I78239988I82696483I87810308I91742159I93952966I94165844
1272I92213160I89064144I86721735I86454062I87642470I88859528I89571923
1265I90086475I90921463I93079575I97004788A000410167A000353882I97794261
1258I96099564I96878741I99352818A001664274A002186005A000788106I98860956
1251I97689684I97338296I96927033I95443248I92894331I90943678I91416305
1244I94073866I96964353I98843955I99958401A000595411A000243413I98491890
1237I96004199I94142883I93760203I94434194I94929240I94596410I94120194
1230I94382719I94989182I94795472I93652240I92666077I92805738I93895462
1223I94915288I95051833I94470566I93897291I93518675I92884239I91956392
1216I91477195I91968109I93019023I93876633I94238316I94273672I94312753
1209I94638336I95154988I95274126I94633527I93798675I93654204I94308486
1202I95194339I95988824I96725398I97228030I97243811I97189355I98017841
1195I99942755A001766480A002004893A000331666I97614299I95288553I94932898
1188I97275103A000776456A002174491I99714569I95493304I93565816I95588940
1181I99514763A002923999A005734025A008690347A010653733A009168799A003970107
1174I98520066I96693155I98603714A001391385A003203392A004030252A003944640
1167A003352604A003867766A006408422A009271546A010001145A008377768A006257653
1160A005442714A006555670A008769050A010058919A009157013A007438746A007191122
1153A008241087A008310308A006405374A003986769A002986721A003681438A004542502
1146A004225656A003433881A004044002A006554315A009408837A010884763A010327608
1139A007867483A004384824A001390911A000130776A001135362A004522995A009429292
1132A013310006A014058840A012555619A011041222A009988140A008331508A005963633
1125A004277470A004295622A005749942A008049273A010767724A012987133A013220330
1118A010538996A005556773A000356321I97552664I98783675A003333029A008458233
1111A011792494A013129977A013391622A012981511A012222450A012094303A013121105
1104A014409077A014664016A013759130A012703204A012430181A013082904A014201752
1097A015334147A016400977A017402109A018072984A018267643A018359622A018795674
1090A019400173A019430720A018411097A016714707A015313421A014770625A014604955
1083A014086948A013206784A012370984A011729301A011244753A011010472A011093510
1076A011355155A011734516A012433161A013524172A014580910A014968332A014723823
1069A014870593A016174214A017976739A018912510A018737561A018514726A018940550
1062A019600792A019907952A019947981A020329374A021495634A022945416A023275604
1055A022024139A020543404A020046801A020521324A021330912A021986751A022481187
1048A023132963A024225667A025766682A027450406A028851896A029813676A030619607
1041A031688131A033043834A034004327A033782169A032719403A031832940A031522664
1034A031299761A030465925A029025897A027665991A026967959A026933551A027274103
1027A028040072A029311451A030469583A030726012A030215388A029719868A029837788
1020A030658552A031782819A032826689A033837235A034842769A035465284A035588826
1013A035753073A036403562A037541239A039064576A040794358A042329413A043413583
1006A044227371A045070621A046058410A047000683A047429895A047197780A046823702
999A046772904A047029537A047361893A047828627A048703911A049725094A050238563
992A050370774A050968635A052391460A054073288A054975194A054695126A053965054
985A053480913A053247647A053199490A053598697A054406524A054913965A054764686
978A054356539A054044705A054084531A054857816A056524201A058628603A060245748
971A060944257A061168311A061403338A061769898A062338093A063176670A063979350
964A064532035A065415586A067266741A069444766A070443392A070290455A069849053
957A069575961A069694016A070170842A070783943A071362908A071909497A072656028
950A073671044A073741823A071482182A067978865A064941130A062983366A062047798
943A061792046A061812365A061886192A061854426A061443164A060346802A058173247
936A054586215A049213184A041683124A033167375A025250301A017054446A006332090
929I92611892I76413757I53966559I19619636H81191109H50634006H25765018
922H01880704G76384595G47269620G16705472F90924352F72284582F59783204
915F53764087F53725887F57263070F63485312F72347978F81805662F89344052
908F95014355F99911711G05272009G14226586G29091911G41685336G47813973
901G53647643G63963001G77504323G88663951G96730982H04256774H12352523
894H21090158H31345983H44002872H55689446H62535491H66604700H71133532
887H77297052H84220106H90426635H95308616H98085857H97049573H91603799
880H82332850H69554317H55378290H44343491H37700707H33578803H30556850
873H27641099H23350680H16152366H05356319G91236170G75301644G60815071
866G51738307G50489686G56878546G68523398G82019812G94643377H05440441
859H14819285H23524613H31893317H39656846H46382464H51973454H56637341
852H60915298H66098953H73520711H81647345H87503840H91751453H97013540
845I04401094I11972944I17795912I22188266I25630490I28263803I31387014
838I37845908I46551303I50767421I51323626I51622051I52771174I54857221
831I57606692I60602163I63982142I68445749I74117200I80303751I87009863
824I93924316I98519456A000702494A002687215A006109390A010806805A015017369
817A018096555A020454406A021533631A019943375A014152715A000612750I76153806
810I46844985I22164357I04354902H93013617H88193409H88576698H91470031
803H92945008H85370720H57603388H18366154G93637030G84852999G84480208
796G88409960G93600049G97948920H02358681H09006071H18848669H32544280
789H50061950H68035653H81691709H90039891H94227223H94559850H90697355
782H83061906H73184630H62688292H52951760H45410322H41197658H40237503
775H41246221H43446191H47298120H53682442H62273372H70810320H77757081
768H83662680H87977347H82644819H57377167H24247438H02675933G99675044
761H13102440H34730297H55450424H71085037H82464452H91446934H98677420
754I03949732I07474591I09947787I11065687I09381624I04461307H96707058
747H87012519H78370994H75060913H79469997H91146209I06629172I21350569
740I33833795I45106533I54363391I59840934I62470725I63987831I65067260
733I65671420I65563186I64609128I62787774I59975380I56214482I51925011
726I47200301I41409641I33612721I22779354I07977764H89890341H71162928
719H53466245H36253770H18650691H01421623G86492021G74516303G64794401
712G56873534G50980668G47454051G46340147G47374264G49943842G53319215
705G57267661G61966159G67265431G72692850G78315673G84781408G92108884
698G99206413H05345550H10953743H16694485H22919504H29666797H36698085
691H43678915H50337547H56398793H61222526H63030266H58807374H46293330
684H27018651H07806690G97386821G98636861H07197315H17957736H28485365
677H38021752H46391066H53885499H61155133H68839890H77350153H86790700
670H96683894I05305506I09092616I03466542H85423076H56216529H22592160
663G94539884G79156079G76434309G81164709G87660855G92989590G97171707
656H01443636H06665626H12919093H19850004H26877364H33050298H36878114
649H36497805H30610018H20013777H08128006G99098383G95090334G95726937
642G99578121H05363972H12065005H18737929H24529808H28753445H30952534
635H31004416H29257837H26570949H24082784H22731754H22757356H23420578
628H23065668H19790875H12911168H04211056G97329182G95455675G99369171
621H07364136H16825545H25845550H33672068H40130556H44776969H46440645
614H43857657H37452880H30399985H26837132H28523837H33764318H39630837
607H44457279H48191288H51358795H54252737H56855842H59140069H61187509
600H62990914H64384479H65324720H66083104H67054231H68460255H70232507
593H72059957H73586545H74667058H75423748H76027570H76469786H76577546
586H76264354H75779133H75661958H76331276H77694362H79263011H80618173
579H81683581H82644616H83744025H85076700H86465727H87582543H88221382
572H88359756H87958789H86846104H84914213H82493440H80524636H80180360
565H82002391H85345931H88877627H91638545H93528307H94940566H96047155
558H96062123H93284747H86992200H79641831H75689592H77212388H81615105
551H84313507H83002303H79222982H76630511H77864434H82585487H88336592
544H93038748H96292341H98682838I00680496I02324327I03514292I04358762
537I05158394I06051088I06823493I07095365I06473933I04402381I00028111
530H92684176H83038133H73785539H68512208H69260229H75211547H83729937
523H92304002H99466418I04549425I07169056I06822138I02817882H95124930
516H85651059H78008972H75138801H77170869H81895714H86942553H91156572
509H94414770H96970802H99129050I01124134I03029609I04814456I06505767
502I08224237I10033128I11747332I12926935I13090369I11563578I06653962
495H95908374H79156538H61433169H50684059H51382298H61267499H74465219
488H86454145H95729496I02459044I07168311I10454754I12883045I14780461
481I16354393I17948916I19897062I22174178I24408691I26233566I27665806
474I29244412I31610458I34840074I38271123I40508887I39257421I32538305
467I21392356I09934783I01063853H93634239H85584276H78069185H74375679
460H75951576H81253963H87688136H93420344H97852727I01295154I04283513
453I07104238I09802166I12374453I14948501I17555060I19129331I17374625
446I11394250I04341488I01281947I04036160I09851203I15109159I18461504
439I20372534I21551120I22418754I23058270I23044859I21500729I17832622
432I12973940I09622204I10231241I14605037I20162026I24394061I26391447
425I26526164I25813363I25477960I26229977I27769434I29315191I30463976
418I31235364I31525388I30922176I29072781I26113886I22739325I19723603
411I17139802I13982725I08761141I00821918H91438062H83565283H80114390
404H82117737H88375267H96626523I04960755I12389083I18584097I23411894
397I26613199I27761239I26651602I23484027I17973502I08765340H95348036
390H80459750H68599581H61668466H57348381H51941214H44249684H37190354
383H35893103H43256883H57010268H71734035H83448447H91531666H97134370
376I01306872I04590538I07240174I09335635I10883762I12004574I12982677
369I14040771I15038922I15559028I15478767I15299415I15557064I16072294
362I16237828I15872419I15297180I14789943I14377800I13884447I12975836
355I11539262I09975625I08650739I07290565I05385022I02888526I00093404
348H96979675H92683499H85297435H72630861H54230250H32860380H13158386
341G98278567G88009195G80066586G72767625G66833104G65445432G72018791
334G86520333H03846121H16696585H20228281H13934109H00408774G83632487
327G67662741G55346404G47687655G44399790G44731198G47692530G52095926
320G56988609G62172196G68157109G75478828G84049033G93212967H02347099
313H11232388H19919022H28440595H36498008H42917347H45343742H41438780
306H31582839H20248872H13420979H14147462H20976031H30219278H38841703
299H45670409H50992370H55402335H59054728H61862042H63859631H65108862
292H65642379H65634793H65349103H64959989H64503753H63798877H62523299
285H60639836H58467026H56119199H53316288H49935699H46338236H43059379
278H40525496H39088515H38983261H40039255H41635742H43364304H45776475
271H49943892H56019567H62625844H67837133H70346295H69575517H65227391
264H57029301H44477937H26232836G99710129G62279076G14317142F61336140
257F12145566E74515723E52849835E49143562E63594644E92837699F29551277
250F66039583F98107629G25322614G48794447G69463640G87705422H03568627
243H16952202H27331568H33428169H33284918H24174559H02328947G64410976
236G11508813F52499347F02293012E74191695E72270848E90716906F19260774
229F48632585F72535322F87357706F92066635F88475877F80618880F72773126
222F67297550F64062244F61888080F60261994F59482885F59520340F59383253
215F57866617F54737449F50879831F47098546F43467488F41333691F45796215
208F59466833F74292467F84181123F90593350F96331790G02440244G08487605
201G13937981G18638515G22626041G26078560G29379090G32997412G37197007
194G41886361G46780941G51651408G56392305G60859096G64740759G67830443
187G70399750G72983619G75864011G79053602G82585095G86385545G89995948
180G92933712G95366880G97796729G99830961H00266403G99122156G98687188
173H01561149H08051199H16190702H23769189H29445858H32662403H33770075
166H34020748H34350462H33390104H26158400H05315407G66590285G15711046
159F68430825F40460165F37127259F52308616F75082617F97174296G15938893
152G32135064G46468159G58749140G69036257G77928319G85762220G92486078
145G98042389H02299078H05296851H07971209H11824695H17438307H23714663
138H28980411H32092108H31111770H22817230H07578843G93651389G90911671
131G99798789H10891904H14732657H07486255G88768663G61212855G33286491
124G16370272G16029517G28609396G46526272G64343923G79743984G91734467
117H00273380H06607513H12082276H16819855H20271358H22479456H24286112
110H26604476H29675195H32993336H36001134H38449609H39975181H40366328
103H40563899H42257309H45847728H49840263H52600372H53997052H55162770
96H56900612H59047210H61510856H64382515H66501207H66226084H64533555
89H64279902H65949403H66708396H63460560H55101000H41537600H22779437
82H00136631G76828639G56066113G38614887G23912252G14098575G13972730
75G25692019G45285237G66104928G84524707G99852770H11567656H20376815
68H28850368H38135472H46764738H53178117H56705682H56155165H50062966
61H38559875H24764361H13634535H07244388H03221980G97883356G88790946
54G74400416G52818209G24601957F97485858F84230228F91732041G13618091
47G38583324G60988056G79846054G94828554H06052390H14252986H20094716
40H24549721H28972080H33789311H37722449H39069076H37839827H36186784
33H37376073H42553835H48220209H50852100H49293271H44358595H38729270
26H34625924H31842926H29809100H30179453H35165807H43789993H51429438
19H53009805H48372130H44584207H46220181H50633261H54865767H57528613
12H56404482H49514006H39599410H35188836H42925136H58607907H72858573
5H81012093H82983203H79934090H73648384H68026374
##END=


$$ === CHEMSPECTRA PEAK TABLE EDIT ===
##TITLE=X8254
##JCAMP-DX=5.00
##DATA TYPE=INFRAREDPEAKTABLE
##DATA CLASS=PEAKTABLE
##$CSTHRESHOLD=0.93
##MAXX=3997.453
##MAXY=0.944914697835771
##MINX=373.96442
##MINY=0.4832575315972292
##$CSSOLVENTNAME=- - -
##$CSSOLVENTVALUE=0
##$CSSOLVENTX=0
##NPOINTS=53
##PEAKTABLE= (XY..XY)
385.29667513682534, 0.7349832051803661
396.6289302736509, 0.7432513232319807
406.54465351837325, 0.730248927807549
420.70997243940565, 0.7358614197685258
443.37448271305675, 0.6021365520943489
480.20431190774025, 0.6283105603039647
546.7813108365908, 0.6301205748018517
559.5300978655196, 0.6960183971689717
594.9433951680999, 0.5606849789448111
619.0244373338542, 0.7028610106717633
670.0195854495696, 0.5643867248739595
681.3518405863952, 0.5803583856560252
701.1832870758403, 0.5036100148425907
732.3469887021106, 0.4832575315972292
763.5106903283813, 0.7383223765486918
803.1735833072712, 0.7158270471737618
831.5042211493351, 0.6550869935117181
848.5026038545734, 0.6736075875923585
915.0796027834244, 0.7356029745003702
944.826772517617, 0.7762815949406574
983.0731336044032, 0.8004860867167396
1002.9045800938479, 0.795838950722981
1024.1525584753958, 0.7708552475326347
1069.481579022674, 0.748619317367963
1100.6452806489683, 0.7701399907201931
1119.0601952462857, 0.7643084520039212
1148.807364980477, 0.7714527241761193
1157.306556333096, 0.7706246962707809
1174.3049390383344, 0.7745766636775404
1238.0488741829554, 0.7276335353691215
1255.0472568881937, 0.7000172133412133
1284.7944266223608, 0.6996957058119103
1308.8754687881155, 0.6832780234155605
1338.6226385222826, 0.7017166611972802
1376.8689996090693, 0.6567945472355974
1427.8641477248061, 0.770071445932016
1451.945189890539, 0.7037303440941471
1471.7766363799842, 0.7394261350826862
1501.5238061141513, 0.6903585785914411
1514.272593143101, 0.7816283101836096
1597.8479747771694, 0.6604462261646975
1667.2580374902263, 0.5752921100308359
2340.110686239263, 0.7914950838359429
2359.9421327287077, 0.7666164630003459
2801.9000830649043, 0.8023611892827117
2893.974656051612, 0.7779015883957724
2963.3847187646684, 0.7679076192363297
3028.5451858014153, 0.7649900313160577
3052.6262279671696, 0.7647798058851517
3107.870971759194, 0.8068625921398453
3144.700800953877, 0.8084014054740236
3187.196757716973, 0.808244347355
3307.6019685457386, 0.7005803577492228
##END=


$$ === CHEMSPECTRA PEAK TABLE AUTO ===
##TITLE=X8254
##JCAMP-DX=5.00
##DATA TYPE=INFRAREDPEAKTABLE
##DATA CLASS=PEAKTABLE
##$CSTHRESHOLD=0.93
##MAXX=3997.453
##MAXY=0.944914697835771
##MINX=373.96442
##MINY=0.4832575315972292
##NPOINTS=173
##PEAKTABLE= (XY..XY)
3986.1207448631744, 0.8448186512586109
3966.2892983737293, 0.8448869575612623
3952.1239794526973, 0.8443531979140952
3945.0413199921813, 0.8469005216553767
3933.709064855356, 0.8464774483328026
3919.543745934324, 0.8473468415965729
3906.7949589053947, 0.8478243943414308
3894.046171876466, 0.8493151057610916
3886.96351241595, 0.8494411704419998
3881.297384847537, 0.849300622385513
3877.0477891712276, 0.8486180891312737
3871.381661602815, 0.8499363059942499
3857.2163426817824, 0.8482729187337039
3841.6344918686473, 0.8507382861760647
3828.8857048397185, 0.8501791353005849
3809.054258350274, 0.8474522222782347
3801.9715988897574, 0.8518262501040993
3789.2228118608286, 0.8504288789271242
3780.7236205082095, 0.8504855628004848
3775.0574929397967, 0.8506746281411133
3765.1417696950743, 0.8517289154488634
3753.809514558249, 0.8514455550434261
3738.227663745113, 0.8463402980350414
3729.728472392494, 0.8474288577368801
3721.229281039875, 0.8498123278416863
3702.8143664425334, 0.8478941913986228
3681.566388060985, 0.8503373260058505
3670.2341329241594, 0.8541915407476889
3658.901877787334, 0.8509746781332469
3640.486963189992, 0.8527271146570569
3631.9877718373727, 0.8484882702833817
3623.4885804847536, 0.8490787138039094
3610.739793455825, 0.8546056141017344
3597.991006426896, 0.8518220180860439
3590.90834696638, 0.8516097061267932
3579.576091829554, 0.8533464659673757
3573.9099642611413, 0.8534079785126164
3549.828922095387, 0.8543688050148873
3541.329730742768, 0.855085312336303
3534.2470712822515, 0.8559563749987532
3522.914816145426, 0.8562892075104551
3517.248688577013, 0.8553610438449794
3507.3329653322908, 0.8564257611543917
3491.7511145191556, 0.8562150587524344
3476.1692637060205, 0.8556951277456758
3463.4204766770913, 0.8539004317627177
3442.1724982955434, 0.8577291954348568
3435.0898388350274, 0.8582600351743699
3428.007179374511, 0.8585179445101079
3416.6749242376854, 0.8580353853292514
3395.4269458561375, 0.8593087783536629
3388.3442863956216, 0.8585923907150204
3382.678158827209, 0.8583434813478108
3375.595499366693, 0.8597314354265926
3367.0963080140737, 0.8601562969505991
3361.430180445661, 0.8597630237584916
3350.097925308835, 0.8587814560556487
3307.6019685457386, 0.700580355989182
3235.3588420484753, 0.8309353580638503
3225.443118803753, 0.8294267047884781
3185.780225824863, 0.80780208078772
3173.0314387959343, 0.8107743258943945
3151.7834604143864, 0.8077723976999653
3140.4512052775603, 0.8077776426214897
3106.4544398670837, 0.8067919608233236
3086.6229933776385, 0.8052735921228458
3062.541951211884, 0.7674778691990567
3054.042759859265, 0.7646335359360891
3028.545185801407, 0.7649900313160577
3012.963334988272, 0.7751405825034932
2964.801250656763, 0.767693874603884
2936.470612814699, 0.7904630293633257
2927.97142146208, 0.7882094379477981
2910.973038756841, 0.7893124810252155
2889.725060375293, 0.7763271324757584
2862.810954425332, 0.7913014283089602
2800.483551172791, 0.8022847172708615
2786.318232251759, 0.8092850436278469
2769.3198495465203, 0.8121975635106928
2701.326318725567, 0.8366132971412314
2689.994063588741, 0.8371719112042733
2682.911404128225, 0.8368157739926034
2646.0815749335416, 0.8430917854872731
2633.332787904613, 0.843243717487525
2619.167468983581, 0.844254373384339
2596.5029587099298, 0.848477959084472
2589.420299249414, 0.8500840658178328
2582.3376397888974, 0.8490032546955281
2571.005384652072, 0.8504727479435656
2554.007001946833, 0.8500892508979707
2542.6747468100075, 0.8495196092994217
2534.1755554573883, 0.8505980962878765
2518.593704644253, 0.8512895098278713
2495.929194370602, 0.8548718686708309
2487.430003017983, 0.855147301852595
2476.097747881157, 0.8579255332639881
2469.015088420641, 0.8566460003373155
2461.932428960125, 0.8561277378492164
2446.3505781469894, 0.8574353451863707
2435.018323010164, 0.856373190496334
2420.853004089132, 0.8579971783639991
2410.9372808444095, 0.8588879103621863
2392.522366247068, 0.8586590284990123
2361.3586646207973, 0.7655996672012709
2341.527218131352, 0.7908511157152546
2270.7006235261924, 0.8602082718348529
2253.7022408209536, 0.8611798275457188
2240.953453792025, 0.8667360536430201
2233.870794331509, 0.867195665412187
2215.455879734167, 0.8688325279781579
2206.956688381548, 0.8720695368993882
2198.4574970289286, 0.8669103971225441
2184.2921781078967, 0.8595037451110267
2170.1268591868647, 0.8680996883583242
2154.5450083737296, 0.87658792679011
2137.546625668491, 0.8720506419815944
2121.9647748553552, 0.8745292414105392
2116.2986472869425, 0.8748460408307557
2109.2159878264265, 0.87356638822131
2095.0506689053946, 0.8725201478200061
2078.0522862001562, 0.8744359601292195
2068.136562955434, 0.8775469650909484
2056.8043078186083, 0.8755612369217902
2048.305116465989, 0.8743581768869882
2034.1397975449568, 0.8771102998534508
1951.9809478029708, 0.877866684418819
1667.2580374902263, 0.5752921100308359
1597.8479747771694, 0.6604462261646975
1514.2725931430805, 0.7816283101836096
1501.5238061141513, 0.6903585785914411
1471.7766363799842, 0.7394261350826862
1451.945189890539, 0.7037303440941471
1427.8641477247847, 0.770071445932016
1376.8689996090693, 0.6567945472355974
1338.6226385222826, 0.7017166611972802
1308.8754687881155, 0.6832780234155605
1284.7944266223608, 0.6996957058119103
1266.3795120250193, 0.724020719020464
1255.0472568881937, 0.7000172133412133
1238.0488741829554, 0.7276335353691215
1199.8025130961687, 0.7706003777873236
1174.3049390383107, 0.7745766636775404
1157.3065563330724, 0.7706246962707809
1148.8073649804533, 0.7714527241761193
1119.0601952462857, 0.7643084520039212
1100.6452806489442, 0.7701399898401727
1069.481579022674, 0.748619317367963
1025.5690903674745, 0.7694684260400948
1001.4880482017197, 0.7931464904988993
983.0731336043782, 0.8004860867167396
971.7408784675526, 0.8144394752956045
946.2433044096947, 0.7745186087324121
915.0796027834244, 0.7356029745003702
889.5820287255665, 0.8054821481550719
848.5026038545734, 0.6736075875923585
831.5042211493351, 0.6550869935117181
803.1735833072712, 0.7158270471737618
763.5106903283813, 0.7383223765486918
732.3469887021106, 0.4832575315972292
701.1832870758403, 0.5036100148425907
681.3518405863952, 0.5803583856560252
670.0195854495696, 0.5643867248739595
619.0244373338542, 0.7028610106717633
594.9433951680999, 0.5606849789448111
559.5300978655196, 0.6960183971689717
546.7813108365908, 0.6301205748018517
498.61922650508177, 0.7605839364272018
480.20431190774025, 0.6283105603039647
443.37448271305675, 0.6021365520943489
420.70997243940565, 0.7358614197685258
406.54465351837325, 0.730248927807549
396.6289302736509, 0.7432513232319807
385.29667513682534, 0.7349832051803661
##END=

##END=

