##TITLE=F. Mohr LL-16
##JCAMP-DX=5.0
##DATA TYPE=LINK
##BLOCKS=1


$$ === CHEMSPECTRA SPECTRUM ORIG ===
##TITLE=F. Mohr LL-16
##JCAMP-DX=5.00
##DATA TYPE=INFRARED SPECTRUM
##DATA CLASS=XYDATA
##ORIGIN=Angelika Moesle
##OWNER=
##XUNITS=1/CM
##YUNITS=TRANSMITTANCE
##XFACTOR=1
##YFACTOR=8.9576341e-010
##FIRSTX=3997.4121
##LASTX=373.82813
##MAXX=3997.4121
##MAXY=0.9618186368300964
##MINX=373.82813
##MINY=0.480893940396707
##NPOINTS=2560
##XYDATA= (X++(Y..Y))
2560A030708945A029839658A029378998A029444940A029807786A030124718A030184206
2553A030032427A029802462A029424179A028779068A028142074A028036275A028562743
2546A029299083A029889364A030280889A030426480A030276298A030046134A030072484
2539A030419626A030824992A030936780A030533477A029753023A029161210A029290432
2532A030047531A030835106A031189235A031084500A030733565A030371385A030229320
2525A030376242A030468334A030100963A029545482A029559855A030267182A030787729
2518A030466604A029670712A029088947A029046228A029582080A030564552A031500379
2511A031796352A031375682A030646929A030053786A029766730A029693336A029747633
2504A030024908A030673279A031576701A032256613A032338458A031935821A031368961
2497A030703555A029830343A028926256A028499264A028878945A029859554A031050631
2490A032130918A032674422A032385103A031426852A030367525A029972141A030539865
2483A031208332A031056753A030350624A030019119A030407250A031064605A031720096
2476A032172373A031957513A031174463A030596957A030649058A030883415A030859260
2469A030866247A031085432A031206602A031302088A031752435A032323220A032296737
2462A031552612A030588507A029928756A030056182A031445816A033468051A034140112
2455A033331510A032284161A031687824A031560931A031522471A031153836A030448172
2448A029961894A030346964A031443221A032182354A031928967A031014633A030103226
2441A029696729A029999822A030849080A031588013A031546891A030993073A031077314
2434A032292545A033508508A033935100A033829034A033380351A032595704A031676446
2427A030870106A030481908A030872036A031655419A031691949A030869907A030406651
2420A031059680A032020061A032707958A033347613A033739870A033444363A032735373
2413A032331937A032536616A033003731A033229503A033039929A032624250A032267459
2406A032134112A032150148A031994443A031487337A030840296A030360272A030215280
2399A030445311A030896922A031284322A031544229A031684963A031409019A030536938
2392A029550806A029242124A029750827A030345766A030481443A030335453A030604210
2385A031841666A033162697A033242479A032445389A032034168A032520180A032942780
2378A032690791A032201185A031936154A032087533A032784214A033994587A035147337
2371A035538396A035037810A034051812A033174208A032869186A033091698A033291719
2364A033089702A032750278A032699907A032760924A032381510A031612766A031491130
2357A032924082A034956033A035953942A035689709A034760071A033909215A033848331
2350A034610753A035286606A035210750A034620269A034004835A033554222A033142801
2343A032727787A032701703A033255654A033527605A032938122A032081345A031698004
2336A031881523A032152211A032150680A032294407A033394790A034999351A035843485
2329A036269544A037099173A037661707A036990578A035735556A034817628A034324030
2322A034002040A033931041A034363156A035147137A035523624A034914312A033806610
2315A033151651A033520485A034566171A035079399A034556057A033546436A032751409
2308A032574744A032931934A033404904A033694090A033807276A033771610A033331976
2301A032268524A031154235A031342012A032936126A034051080A033945148A033226243
2294A032418506A031799279A031680238A032194198A033062021A033966441A034619603
2287A034704908A034314382A034044227A034263611A034625060A034673701A034492178
2280A034415590A034590525A034950310A035419488A035922069A036241531A036102660
2273A035468928A034683549A034305798A034698920A035426874A035632218A035216340
2266A034652341A034247774A034000110A033895841A034107773A034693064A035251806
2259A035230313A034513737A033546969A033024625A033360256A034132526A034639898
2252A034782029A034759871A034618672A034342528A034040168A033830698A033723701
2245A033684508A033675259A033676590A033769081A034044626A034314980A034145701
2238A033415418A032579801A032254417A032684270A033556750A034262347A034432890
2231A034232270A034060596A034042164A033955661A033682046A033442700A033471245
2224A033743995A034100254A034373269A034421312A034266406A034173249A034378327
2217A034727998A034760470A034262214A033612178A033330579A033445494A033575115
2210A033426530A033071603A032823938A032884690A033138077A033335436A033433317
2203A033578176A033804082A033978618A033949140A033645781A033224446A033084711
2196A033490675A034203924A034748093A035020910A035295656A035650717A035785395
2189A035480240A034939530A034520458A034412396A034652541A035096633A035354478
2182A035126377A034584270A034143306A033992791A034065120A034219095A034302537
2175A034286634A034375532A034792077A035518367A036319383A036888505A037039951
2168A036871271A036609168A036287776A035797771A035207223A034748426A034513671
2161A034406607A034298811A034092868A033807409A033653567A033803350A034085016
2154A034108039A033616371A032612007A031336223A030185337A029392506A028787452
2147A028093766A027395356A027065580A027297874A027918565A028564541A028881141
2140A028674532A028081922A027549796A027496298A027965143A028634941A029187960
2133A029636577A030239035A031130147A032142895A033010252A033617901A033977619
2126A034065320A033849862A033487282A033320398A033583167A034154884A034656733
2119A034751354A034331083A033540182A032728719A032304389A032451244A032964139
2112A033463394A033772674A033980813A034195008A034393033A034506152A034448927
2105A034055139A033210939A032159930A031485008A031620485A032434476A033381881
2098A034002772A034214703A034186424A034078229A033979017A034007164A034244647
2091A034553528A034690403A034637436A034561247A034491712A034374202A034363422
2084A034674566A035186197A035512246A035437188A035092374A034780299A034706106
2077A034815765A034879511A034771649A034590991A034521922A034674632A035005539
2070A035320076A035451627A035431199A035347158A035139884A034734852A034222689
2063A033733083A033314210A033075661A033224513A033797428A034511475A035026965
2056A035274429A035417691A035546446A035551704A035310827A034855623A034337471
2049A033912942A033617834A033342489A033068808A033070139A033618500A034579546
2042A035557427A036278793A036585546A036344136A035697095A035135160A035028163
2035A035275694A035545316A035594290A035261387A034458109A033403441A032720867
2028A033018104A034276453A035777476A036722287A036829284A036344070A035679861
2021A035106348A034625525A034101917A033608984A033523413A034067582A034914577
2014A035534004A035768560A035795376A035732495A035604138A035520097A035588967
2007A035770623A036015026A036390715A036880254A037202444A037050997A036489727
2000A035984950A036025673A036684691A037533350A038033203A038004657A037658380
1993A037264460A036917583A036593797A036319184A036225694A036375344A036599320
1986A036686022A036665461A036685090A036724216A036691811A036644966A036689416
1979A036830016A037061244A037419300A037867517A038256247A038387665A038100276
1972A037431942A036714701A036320980A036313395A036502570A036775918A037127985
1965A037415440A037377512A036985854A036553673A036374213A036412207A036469166
1958A036507627A036636782A036872336A037108621A037256009A037226798A036886642
1951A036230418A035520563A035031224A034754880A034549536A034399820A034330484
1944A034223886A033914140A033389400A032788805A032243704A031833681A031729013
1937A032204645A033259181A034317176A034656999A034139579A033281006A032677283
1930A032563432A032793862A033026288A033004663A032776628A032594506A032617729
1923A032785345A032899329A032756267A032286423A031620884A030985089A030532080
1916A030311831A030287943A030270043A029957435A029209585A028235431A027465689
1909A027303796A027872385A028791178A029331288A029051352A028176343A027239784
1902A026600728A026370364A026498654A026811661A027093195A027169583A026952395
1895A026526934A026116778A025828990A025555242A025194991A024830814A024636382
1888A024675641A024804664A024825358A024754692A024794749A025019922A025272910
1881A025333262A025032964A024348794A023529679A022934140A022643624A022455381
1874A022268135A022245112A022583471A023255332A023967383A024372083A024394308
1867A024328765A024524328A025006747A025502209A025767839A025767240A025583788
1860A025305249A024953249A024423120A023582978A022493974A021396986A020472537
1853A019771464A019332829A019155033A019070460A018825258A018260328A017335347
1846A016012786A014148983A011461341A007636321A002534319I96259207I89030967
1839I81219831I73671398I67683541I64178248I62890954I62628251I62223418I61015507
1831I58658838I54930235I49789507I43471742I36558239I29946897I24449378I20142204
1823I16192021I11449272I05235377H97798000H90457040H85254762H83870251H86486296
1815H91622299H96904027I00050533H99656612H95462158H87879589H77336496H64209963
1807H49108105H32737451H15524593G97821397G80814415G67133932G60099192G61792451
1799G71520555G86108386H01813368H16134172H28149876H37798397H45406451H51780842
1791H58028806H64843163H72127896H79443504H86559756H93414571H99833278I05608936
1783I10820064I15823918I20860044I25746853I30061080I33640433I36860599I40308401
1775I44172614I48044878I51243685I53115539I53022848I50247772I44069210I34178746
1767I21453586I08383147H98225923H93178684H93032894H95375988H97030321H95491503
1759H89466517H78854088H64894799H50211016H37959692H30522780H28980103H33469065
1751H43387143H57199377H72717712H88023783I02073633I14453048I24922881I33358966
1743I39901039I44953668I49056095I52759547I56516696I60557441I64821230I69015418
1735I72815153I76083162I78898296I81377200I83581890I85597605I87512843I89273374
1727I90727087I91863534I92858583I93848175I94790988I95607442I96364607I97225044
1719I98237393I99293991A000292367A001180218A001877231A002390392A002960179
1712A003810834A004822651A005705578A006364995A006870638A007262828A007625142
1705A008136240A008839175A009527405A009979083A010152354A010100785A009918398
1698A009787512A009896905A010286101A010883968A011634480A012471295A013276569
1691A013988288A014683038A015442466A016169356A016631547A016717517A016607858
1684A016608657A016824914A017050620A016998718A016608391A016121846A015836054
1677A015779228A015666841A015162264A014127690A012634852A010835460A008938654
1670A007319920A006477583A006688250A007737729A009112058A010434420A011656971
1663A012908799A014229896A015428093A016220725A016552696A016693563A016975096
1656A017512944A018201905A018869640A019408420A019830620A020222544A020622852
1649A020980841A021254922A021482291A021714917A021950005A022168524A022376996
1642A022569099A022717883A022819025A022876982A022865404A022773179A022635240
1635A022442805A022130929A021753843A021534658A021604992A021812865A021923854
1628A021920328A022007097A022359096A022905262A023370248A023560221A023572464
1621A023637608A023803760A023889264A023735223A023438984A023281083A023414164
1614A023693502A023876688A023904235A023917611A024079437A024388851A024622675
1607A024563055A024328100A024286379A024588140A024989247A025197187A025227928
1600A025356418A025777687A026380412A026879267A027118414A027181561A027257883
1593A027458968A027741966A028030153A028365518A028778602A029068919A028994327
1586A028666947A028494141A028716253A029177380A029563781A029735722A029740979
1579A029607365A029324568A028987939A028743668A028646851A028715322A028949944
1572A029220365A029392373A029589665A030046267A030738955A031387393A031742454
1565A031792359A031784907A031993645A032342783A032467680A032278505A032177031
1558A032503678A033080053A033513898A033634004A033410427A032821743A032044149
1551A031427051A031095613A030867046A030608269A030430073A030532745A030975973
1544A031528526A031809394A031695875A031472232A031532452A032113551A033191043
1537A034421046A035375238A035947355A036267282A036276398A035824188A035124048
1530A034716486A034906992A035416361A035673607A035445505A035023505A034675497
1523A034232004A033488546A032700971A032318696A032471606A033012514A033844738
1516A034942858A036168136A037248822A037932660A038138737A038032870A037948430
1509A038146588A038600528A039018270A039097387A038796557A038372960A038129421
1502A038168880A038418141A038762422A039061588A039159270A039026388A038823772
1495A038739532A038802878A038875275A038789171A038510033A038181522A037999267
1488A038047842A038252455A038424129A038365108A038045181A037711014A037706888
1481A038154507A038839942A039371069A039401877A038858174A038101407A037731774
1474A038028945A038628076A038880199A038506573A037815017A037289678A037053260
1467A036814379A036342739A035876289A035896717A036490925A037136169A037314631
1460A037198651A037412911A038165952A038951663A039122872A038529596A037580195
1453A036829682A036524594A036493853A036450069A036331693A036292301A036440354
1446A036708380A037002090A037351894A037800975A038244536A038508237A038476630
1439A038109725A037527894A037053592A036924171A037052661A037230657A037364470
1432A037426353A037452038A037607277A038003992A038511164A038922186A039192607
1425A039411459A039621528A039700378A039443398A038818116A038061150A037456695
1418A037138099A037141359A037474595A038067871A038767013A039468684A040253996
1411A041271202A042347497A042907769A042628564A041970810A041680960A042003415
1404A042652586A043288980A043823966A044326747A044655724A044435408A043593869
1397A042539799A041619476A040877415A040361925A040300974A040791245A041421584
1390A041622803A041335214A041022274A041116961A041594590A042070089A042182410
1383A041865077A041323038A040764163A040236962A039884230A040103015A041080963
1376A042265718A042760315A042265851A041305271A040663687A040784391A041472421
1369A042129244A042403324A042483839A042649990A042788994A042573935A042030497
1362A041651149A041841855A042393609A042671283A042243893A041263084A040342429
1355A040079061A040557687A041323304A041903471A042293200A042844156A043697273
1348A044467747A044716343A044622653A044706561A044941982A044795592A044141964
1341A043471168A043208732A043392118A043958578A044910907A046162736A047408443
1334A048187833A048153897A047373509A046294819A045375294A044779889A044390493
1327A043956183A043231622A042188199A041202266A040869963A041463106A042688185
1320A044097781A045540581A046977858A048106187A048575565A048446277A048074847
1313A047753323A047743674A048237539A048991111A049614530A050383606A051877510
1306A053605503A054159853A053159614A052054574A052335908A053611292A054197714
1299A053381461A052215736A052034479A053055744A054647595A056122934A057054769
1292A057318070A056906383A055721960A053947987A052375832A051682346A051660055
1285A051784752A052080324A052743536A053191221A052268170A049803306A047520098
1278A047454156A049421096A051262941A051778497A051867329A052547906A053388847
1271A053442079A052833166A052724505A053828015A055464315A056478460A056721799
1264A056953094A057877277A059991073A063166790A065834336A066342707A064903101
1257A062883327A061222606A060176388A059687115A059579519A059735956A060144049
1250A060638446A060825026A060460783A059836499A059615584A060200476A061298596
1243A062134878A061970190A060528987A058213972A055878197A054188399A053220100
1236A052633211A052144604A051857947A052074204A052684514A053083425A052886265
1229A052315946A051761596A051448722A051546803A052097959A052815333A053216706
1222A053010031A052412297A052043129A052268103A052815599A053287173A053623535
1215A053800999A053646226A053229083A052930714A052968576A053245119A053698194
1208A054351822A054893064A054659107A053426176A051960020A051392162A052088176
1201A053316916A054107286A054385226A054876695A055811524A056484582A056408326
1194A055962504A055587748A055339085A055352793A055787636A056394885A056782085
1187A056805707A056507006A056141765A056163124A056760193A057740336A058985444
1180A060259897A060886243A060622343A060344536A060768333A061288149A061107558
1173A060797744A061601422A063598372A065556197A066382897A065969547A064830305
1166A063664514A063151485A063297409A063234595A062597136A062390860A063206049
1159A063787081A063142636A062632668A064174082A067420931A070269002A071494414
1152A071376105A070331417A068687864A067351728A067063807A067197288A066686455
1145A065787026A065652215A066654982A068064578A068823806A068191271A066544391
1138A065390843A065457583A065541890A064400852A062943413A063350908A066336785
1131A070293023A073071293A073741822A072761946A071232177A070147432A069791706
1124A069885329A070475012A071829180A073334927A073679474A072368358A070134989
1117A068050738A066845887A066647330A066957342A067077248A066587776A065528250
1110A064502593A064477174A065823291A067654688A068841839A069186453A069116385
1103A068884491A068466683A067994710A067728415A067584887A067252982A066793852
1096A066514248A066238637A065414399A064027759A062525405A060757953A057970168
1089A054097903A050122102A047156320A045890917A046589594A048999562A052215802
1082A055128884A057264438A058946718A060502570A061667231A062140734A062256581
1075A062521213A062849325A062834752A062442096A062038461A062041987A062614835
1068A063511337A064174747A064129699A063435215A062636062A062184850A061999135
1061A061686527A061088128A060442551A060111578A060161616A060127481A059704748
1054A059506923A060155761A061317759A062225373A062659684A062929439A063221819
1047A063557383A064032683A064684315A065282182A065513078A065390444A065365691
1040A065842854A066537937A066663432A066090052A065479143A065347791A065544885
1033A065520198A065116696A064722376A064691235A065012094A065361299A065377801
1026A065005373A064550968A064381754A064618772A065153826A065696664A065895088
1019A065669449A065204529A064630284A064000876A063406403A062911340A062540310
1012A062291049A062035666A061586251A060902080A060092880A059204762A058082289
1005A056508204A054462879A052154984A049766509A047409507A045343089A043817445
998A042908900A042580722A042582319A042388752A041523591A039858944A037528093
991A034672570A031244930A027069972A022560049A018868110A016359396A014509766
984A013037023A011930719A011294990A011477511A012474156A013557104A014252720
977A014584624A014513027A014037927A013283423A012073848A010061926A007325243
970A004031550A000199476I96009081I91513930I86445199I80899637I75461806
963I70249014I64642369I57793144I49497859I39698889I27098958I10079534
956H87657677H58787568H23520379G85638609G49248414G13029694F72021780
949F27300767E89113775E62416285E45483662E37250293E36853744E42983199
942E55114185E71197782E86249601E98935303F13743317F32361979F48579589
935F60405919F71310461F80760758F87409496F93367942G00619138G08138626
928G14412741G21132078G31074310G41503420G48523987G53723670G59478700
921G67351519G78401786G91007439H01630647H10072854H18879770H28058648
914H34911932H39190493H42456573H45399797H47871847H50164038H52890274
907H56188159H60554821H68940601H83964739H96874084I01794496I03688774
900I06323782I08963381I08749586I05561892I00667697H95195197H90905657
893H91064289H99652221I14391764I26737576I34661964I40902010I47112910
886I52866411I57252302I60584723I63687777I66361446I67860073I68114458
879I67206911I64408944I58719190I49890182I37761426I22059039I02957958
872H80994766H56365291H29096881H00773870G76018501G60745966G58050074
865G66627092G82639092H01835592H20755417H37570030H52146549H65011311
858H76393549H86252006H94672521I01868089I07905319I12692983I16504827
851I20557551I26343856I32812734I37151448I39471719I41766106I45126141
844I48642413I51264113I53189865I54634462I55585194I56882935I60580930
837I66016167I68363254I68105409I67814826I68528807I70423550I73169016
830I75903702I77945900I79390031I80584967I81719817I83375614I85914870
823I87772418I88217308I88403023I89623378I92036207I94323940I95789896
816I97052038I98711961A000517873A001978173A003280040A004726500A005910058
809A006549779A007071790A007760619A008418572A008925545A009383744A009847399
802A010422443A011109142A010679556A008208703A004366582I99648586I94199442
795I87747798I78452341I63470456I42318526I16513146H88659113H66631975
788H62764435H78239385I01070134I22057309I38716417I51231442I59920714
781I65026575I66920121I65327471I57567771I38048948I06011706H72137145
774H46142989H30464424H24982676H27252575H31588894H34275604H35841504
767H38599214H45332391H55162702H62979560H67570996H70132144H71034567
760H70414875H69138426H68375139H68627461H69597690H70378144H69823262
753H67246144H62661962H56765133H50135825H41550689H28869645H12478830
746G98271544G93985198H02250540H20363027H42347445H62344563H79279681
739H95357956I10086254I20669272I27437317I32548036I37350272I42362510
732I47622944I52952714I58381363I63905033I68891519I72771369I75885204
725I78739463I81098195I82360737I82213349I80463197I77225465I73204549
718I68874951I63007200I51505855I29294998H95250426H55502791H22934090
711H10081371H19239688H42498560H70105794H94789498I12368597I22953545
704I29204104I33079629I35575234I38067579I42221310I48505472I55436609
697I61330510I65992145I69922100I73290784I75927524I77748075I79016139
690I80243680I81811111I83653820I85400112I86789613I87868902I88843056
683I89825329I90750177I91616269I92704208I94309301I96385767I98578014
676A000526656A002072727A003203385A003851158A003758267A002559538I99978095
669I96005288I91182425I86772446I84259207I84445055I86951440I90465849
662I93565643I95299159I95094879I92741937I88820233I84817749I82395205
655I82372847I84408125I87531208I90803276I93584408I95615626I97081982
648I98439477I99995462A001629500A002891776A003268329A002279802I99347823
641I93220630I80835692I57609825I22210020H82944871H56409474H55611519
634H79000876I12828659I42850452I60879897I62447527I44519091I09141378
627H67841550H37535096H28688854H38977630H59088731H81371385I02246905
620I20110331I33900607I43154742I47829220I47401963I40280587I25134680
613I04127343H84428195H74582047H78305859H92240195I09716887I25765152
606I38725998I48927340I57127139I63862513I69387846I73836818I77392415
599I80317674I82862253I85128959I87033684I88454991I89395476I89940843
592I90150712I90046310I89612665I88814710I87702351I86507547I85586160
585I85221783I85433382I85941686I86309123I86078959I84890411I82644599
578I79517390I75662892I70980163I65240769I58270241I49799488I39050251
571I24391554I03490815H74307634H36834823G94771708G55584810G27681138
564G15925342G19165204G31827616G47796365G63416374G78040004G92659975
557H08218367H24769213H41553484H57460150H71504610H83125662H92197876
550H98943430I03947484I08068144I12029240I16059073I20023961I23846720
543I27654373I31611343I35803003I40269142I44981282I49776997I54405562
536I58607069I62062257I64290835I64685022I62739308I58135828I50097856
529I36603220I15736351H89500452H65545233H52702362H54004363H64996872
522H78706035H90946180I01107730I10005873I18270217I26061324I33237596
515I39532937I44701612I48588914I51169825I52462509I52199275I49517821
508I42998438I31142764I13500320H91825248H69071686H45840362H18748818
501G84734722G47256987G16098480F99646314F97858169G03309508G08473392
494G11423337G15217283G23250066G35950206G51276439G67120490G82678417
487G98086295H13573223H29099676H44312390H58530189H70925508H80884242
480H88167843H92820296H95135244H95749414H95565829H95333336H95105035
473H94111717H91482697H87506563H84195236H84202955H88888212H97357701
466I07087668I14991495I17910365I12818279H97673902H73237528H44585540
459H20008366H06898534H07761233H19781329H37709898H56990107H75005245
452H90613876I03090108I11456192I14527507I10960598H98795311H75802335
445H42171646H03608966G70212766G50088423G43456986G43807521G45139931
438G47433652G54884138G70021395G90738149H12481691H31858649H47924747
431H61247575H72620363H82412480H90573220H96929910I01305954I03510179
424I03717053I03054109I03384483I06071726I10986682I16813044I22115932
417I25880933I27311755I25931171I22461610I19171243I18462253I20963714
410I25413152I30214789I34595956I38484589I41976574I45122880I47945533
403I50452650I52643167I54542835I56237491I57827147I59387589I60975782
396I62548070I63916943I64977866I65920015I67035968I68390202I69742840
389I70720987I71084698I70836169I70038081I68652572I66570184I63444438
382I58077805I47434568I26324492H90523248H43461469G99190337G74696605
375G77521919H01792141H35244103H67852928H94824100I15230908I29978903
368I40439686I47727013I52533574I55372397I56972699I58397267I60569152
361I63636275I66989789I69955703I72288085I74011287I75140814I75750126
354I76113970I76588338I77359078I78331104I79226940I79809902I80113926
347I80536393I81614683I83572374I86101783I88637446I90691488I91899932
340I92002538I90893372I88377072I83331364I73192638I55910245I34173755
333I16649354I12057586I21258889I36408722I47189831I45832603I27063093
326H87831880H31473246G72330820G32064701G26535575G54661959H00696417
319H46826894H83082610I07993685I24152207I34505794I41103162I45333415
312I48313170I50812036I53146747I55443395I57878982I60595968I63590229
305I66773798I70063832I73426462I76816506I80019971I82715531I84799849
298I86468288I87924530I89165379I89988952I90150313I89560963I88126747
291I85310815I79954162I69780236I51002808I21821756H89423065H69926533
284H75274003I00968327I31085074I53588310I66821175I74083749I77872639
277I79436144I79987166I80435450I79706365I74044757I60883490I44870758
270I36664637I42789035I58865712I74988236I85113322I88473689I84229929
263I69908726I47088423I24858070I12725588I11027005I12999668I15559751
256I22333253I35834876I52337879I65930396I73793965I76247517I73897037
249I65141224I45103517I08948543H60604194H17692153H01037105H16714339
242H52402198H90351706I20122308I40602976I54828361I65431607I73547632
235I79652667I84348704I88218839I91434614I93985115I96027978I97494267
228I97127961I92287398I81140182I66298898I55090065I53870642I62096193
221I73561606I82688316I87844282I89767904I89110084I85722901I79230067
214I69603238I57467561I44323661I32190446I23697070I23087624I31725061
207I43267462I53647065I63590096I73192705I80956530I86204921I89922478
200I93162474I96044414I98365217A000291368A002040255A003530898A004773145
193A005990705A007202010A008296470A009418212A010775241A012244058A013384897
186A013829122A013793523A013986025A014638190A015118014A014797421A013595099
179A011435191A007730808A001536277I92065818I79383643I65025843I52210254
172I44890720I45361161I52564782I63211014I74183694I83743051I91395887
165I97441700A002340154A006147475A008655923A009948274A010571560A011175549
158A012062336A013185741A014336295A015026654A014729483A013565688A011737551
151A007763480I97334836I73942351I33992699H86367654H53547362H54121940
144H84679518I24278235I55394023I74958360I87304704I95700532A001264325
137A004643058A006871836A009116783A011749928A014215124A016033613A017287704
130A018073548A018259330A018026371A018057911A018780675A019502441A017864411
123A009765221I92232635I69377066I53062440I53265655I68414357I87752323
116A001903514A008538412A010131660A010096194A010720412A012633255A015440470
109A018678136A022060196A025197386A027350840A027651604A025969324A023357405
102A020598232A016618239A010159474A002699939I98109036I99158781A005093871
95A012730936A019145385A023300912A025911101A028041132A029680161A030211022
88A029958700A029995896A030604676A031048968A030726578A029177579A024731868
81A014104334I93507819I60630769I17479914H72276548H37096860H21821198
74H28243964H49499231H76238243I01348141I20074000I31659120I39807017
67I47881388I55769977I62222420I67704235I73410559I79336333I84539742
60I88337880I91110295I94175821I98499163A003427028A006196049A002319992
53I87584773I63178609I39635875I31031309I42019892I62893149I81289632
46I93107844A000369820A005437686A009020565A011147270A011784396A010561246
39A006475653I97292184I79762858I53109484I21863077H94412147H82708053
32H93830782I16509819I37665807I54512692I68224516I79675756I88728407
25I94951950I98393830I99274029I98045357I96474200I97119111A000303812
18A001338119I95544428I87415760I84459427I88188097I95182447A002188707
11A009175205A017360566A024666459A025377977A017725341A006801835I98165729
4I94520501I96702900A003440469A009700411
##END=


$$ === CHEMSPECTRA PEAK TABLE AUTO ===
##TITLE=F. Mohr LL-16
##JCAMP-DX=5.00
##DATA TYPE=INFRAREDPEAKTABLE
##DATA CLASS=PEAKTABLE
##$CSTHRESHOLD=0.93
##MAXX=3997.4121
##MAXY=0.9618186368300964
##MINX=373.82813
##MINY=0.480893940396707
##NPOINTS=46
##PEAKTABLE= (XY..XY)
2945.3124947987494, 0.7917386300333159
2922.656244888628, 0.6808690441641647
2868.8476513520905, 0.7999461903716085
2854.687495158265, 0.7425700438854312
1709.1308590777644, 0.480893940396707
1638.330078108636, 0.7980406893026104
1598.681640765924, 0.6790335192369924
1553.3691409456815, 0.8669331087863167
1488.2324224540835, 0.7728328123223234
1465.576172543962, 0.7389892950446851
1445.751953872606, 0.777858675669864
1427.343750820633, 0.7112228884500051
1379.1992197616255, 0.7256412512644351
1315.4785168894095, 0.8816633835862159
1299.9023450762015, 0.8799736513201283
1271.58203268855, 0.7664254918947198
1257.421876494724, 0.7423091536880322
1237.597657823368, 0.7834185967455003
1200.7812517194216, 0.88252562394636
1171.0449237123871, 0.6412997256553362
1115.820314556467, 0.7638195763959378
1076.1718772137551, 0.6251158131597963
1037.9394554904256, 0.7920297397051148
1020.9472680578347, 0.7227901823398409
996.8750025283312, 0.6659615649676822
971.3867213794447, 0.8089228280923517
955.8105495662367, 0.8227248797035628
904.8339872684637, 0.6939448726102231
842.5293000156307, 0.8169878133517283
828.3691438218052, 0.6508039841483108
775.9765659046498, 0.7792483576495576
754.7363316139113, 0.8390299092655322
739.1601598007032, 0.816064656600887
717.9199255099643, 0.7175397287113281
688.1835975029303, 0.8544424189768093
668.3593788315743, 0.8268681178030378
615.9668009144193, 0.8463985334245552
579.1503948104723, 0.7645764955816244
542.3339887065258, 0.8537184611973204
511.18164508010886, 0.8940695536391727
478.61328583430986, 0.7361573587307652
443.2128953497454, 0.8339837801666037
419.1406298202419, 0.7906975755897407
402.1484423876509, 0.892605127369022
393.6523486713554, 0.881842733336166
378.0761768581474, 0.8908550752906684
##END=

##END=

