##TITLE=TMGm4NMe2py_CuBr2
##JCAMP-DX=5.0
##DATA TYPE=LINK
##BLOCKS=1


$$ === CHEMSPECTRA SPECTRUM ORIG ===
##TITLE=TMGm4NMe2py_CuBr2
##JCAMP-DX=5.00
##DATA TYPE=INFRARED SPECTRUM
##DATA CLASS=XYDATA
##$CSCATEGORY=SPECTRUM
##ORIGIN=
##OWNER=
##XUNITS=1/CM
##YUNITS=TRANSMITTANCE
##XFACTOR=0.12501352010900002
##YFACTOR=0.0032026140201871075
##FIRSTX=4000.433
##LASTX=400.2361
##MAXX=4000.433
##MAXY=102.48364864598744
##MINX=400.2361
##MINY=60.16110436921481
##NPOINTS=3734
##XYDATA= (X++(Y..Y))
3734C1072C1062C1046C1092C1092C1050C1029C1017C1043C1040C1017C1088C1087C1040
3720C1007C1013C1042C1054C1072C1126C1118C1065C1085C1125C1059C0977C1053
3707C1112C1091C1063C1075C1112C1086C1085C1058C1032C1052C1082C1087C1085
3694C1041C0997C0973C1052C1080C1071C1109C1124C1108C1158C1200C1146C1090
3681C1143C1133C1133C1150C1100C1092C1156C1196C1173C1139C1141C1095C1026
3668C1077C1128C1118C1121C1051C1102C1078C0997C1025C1115C1139C1032C1071
3655C1191C1173C1127C1089C1097C1199C1118C1107C1277C1252C1138C1098C1149
3642C1132C1129C1175C1173C1161C1150C1187C1175C1203C1196C1121C1266C1189
3629C1108C1155C1130C1121C1150C1173C1191C1092C1098C1199C1139C1135C1108
3616C0968C1218C1346C1196C1199C1139C1037C1268C1233C1109C1103C1082C1030
3603C1192C1308C1239C1163C1098C1200C1190C1154C1164C1237C1361C1305C1212
3590C1209C1209C1163C1153C1188C1279C1177C0915C1503C1505C1389C1424C1294
3577C1291C1254C1237C1199C1177C1129C1274C1260C1161C1227C1156C0945C1178
3564C1279C1144C1236C1253C1098C1178C1332C1265C1200C1179C1196C1218C1286
3551C1274C1186C1107C1320C1361C1260C1219C1125C1159C1385C1279C1218C1203
3538C1159C1192C1184C1114C1059C1259C1291C1214C1279C1372C1351C1393C1346
3525C1300C1305C1233C1285C1257C1243C1271C1250C1210C1229C1263C1196C1185
3512C1170C1184C1257C1224C1150C1118C1076C1147C1322C1289C1222C1153C1160
3499C1215C1162C1118C1135C1204C1345C1362C1357C1265C1305C1257C1242C1292
3486C1294C1243C1330C1364C1320C1297C1289C1254C1307C1312C1414C1316C1281
3473C1545C1421C1268C1120C1057C1543C1395C1181C1173C1259C1218C1323C1454
3460C1487C1405C1513C1427C1470C1496C1352C1306C1302C1225C1296C1352C1367
3447C1345C1262C1318C1290C1207C1296C1333C1311C1256C1222C1236C1190C1348
3434C1473C1395C1371C1369C1281C1241C1341C1316C1296C1375C1513C1366C1242
3421C1280C1284C1305C1354C1317C1262C1252C1273C1234C1147C1034C1363C1409
3408C1285C1211C1342C1353C1241C1170C1181C1358C1403C1313C1387C1667C1691
3395C1538C1477C1317C1366C1564C1541C1507C1434C1410C1365C1361C1317C1264
3382C1235C1288C1309C1286C1240C1337C1364C1287C1253C1204C1257C1338C1421
3369C1574C1532C1527C1376C1268C1256C1315C1346C1322C1294C1305C1361C1409
3356C1369C1330C1361C1392C1348C1314C1292C1357C1363C1323C1273C1264C1255
3343C1230C1237C1264C1224C1234C1297C1311C1299C1268C1273C1318C1362C1411
3330C1389C1353C1374C1372C1351C1354C1334C1363C1363C1346C1310C1261C1213
3317C1263C1323C1314C1346C1366C1267C1307C1354C1323C1177C1252C1354C1312
3304C1381C1353C1340C1323C1314C1320C1256C1247C1267C1288C1331C1309C1244
3291C1206C1236C1239C1288C1305C1282C1381C1352C1372C1244C1129C1224C1302
3278C1254C1244C1310C1320C1293C1285C1264C1261C1257C1251C1296C1325C1323
3265C1293C1317C1327C1281C1304C1328C1297C1256C1234C1248C1232C1149C1100
3252C1167C1170C1183C1244C1258C1245C1206C1235C1248C1222C1255C1296C1305
3239C1317C1297C1302C1337C1339C1302C1229C1188C1248C1326C1308C1257C1256
3226C1238C1196C1230C1222C1191C1188C1177C1169C1226C1245C1218C1187C1184
3213C1193C1219C1228C1288C1286C1208C1265C1323C1323C1355C1352C1305C1282
3200C1278C1279C1301C1323C1320C1276C1248C1202C1214C1250C1231C1192C1159
3187C1166C1195C1205C1190C1186C1230C1250C1217C1181C1218C1288C1309C1299
3174C1301C1296C1328C1314C1274C1248C1205C1196C1250C1279C1258C1222C1230
3161C1203C1202C1240C1240C1196C1172C1147C1151C1181C1173C1217C1286C1263
3148C1245C1241C1228C1202C1253C1311C1285C1287C1294C1240C1200C1239C1283
3135C1237C1209C1230C1222C1208C1232C1280C1243C1210C1192C1144C1144C1190
3122C1190C1173C1166C1162C1219C1304C1320C1313C1286C1290C1257C1276C1318
3109C1307C1348C1340C1304C1284C1330C1356C1278C1271C1307C1282C1237C1191
3096C1170C1237C1261C1232C1241C1200C1190C1236C1256C1212C1244C1286C1311
3083C1297C1301C1311C1328C1352C1329C1310C1303C1306C1277C1241C1250C1316
3070C1366C1339C1285C1252C1265C1265C1270C1297C1323C1274C1268C1294C1297
3057C1303C1271C1280C1312C1335C1346C1337C1336C1395C1426C1398C1369C1337
3044C1326C1341C1357C1352C1358C1349C1338C1317C1302C1311C1268C1297C1312
3031C1301C1288C1252C1243C1294C1256C1258C1297C1315C1313C1372C1421C1354
3018C1297C1320C1380C1394C1408C1418C1412C1348C1333C1360C1379C1349C1356
3005C1403C1374C1323C1343C1367C1363C1322C1330C1307C1274C1294C1329C1348
2992C1311C1326C1371C1386C1369C1369C1390C1409C1379C1333C1374C1424C1458
2979C1431C1410C1412C1418C1398C1372C1357C1358C1326C1283C1283C1300C1283
2966C1233C1248C1308C1313C1306C1343C1356C1371C1424C1428C1477C1496C1441
2953C1421C1444C1460C1427C1447C1442C1421C1372C1361C1355C1333C1365C1326
2940C1284C1372C1398C1343C1325C1355C1353C1317C1323C1360C1393C1381C1352
2927C1342C1367C1335C1278C1310C1382C1418C1438C1458C1434C1372C1354C1353
2914C1356C1349C1311C1299C1356C1345C1291C1304C1345C1372C1313C1268C1252
2901C1279C1327C1309C1297C1297C1309C1303C1316C1346C1379C1389C1361C1406
2888C1464C1437C1383C1372C1360C1333C1331C1316C1330C1357C1379C1392C1358
2875C1311C1326C1322C1332C1372C1316C1219C1276C1339C1317C1282C1271C1310
2862C1316C1343C1326C1320C1395C1395C1361C1378C1406C1398C1360C1375C1408
2849C1383C1380C1434C1387C1330C1331C1346C1305C1300C1331C1313C1277C1267
2836C1274C1313C1340C1352C1339C1338C1359C1371C1366C1320C1320C1335C1346
2823C1356C1335C1312C1318C1348C1337C1346C1352C1349C1320C1251C1212C1230
2810C1278C1274C1248C1215C1222C1268C1251C1195C1181C1178C1187C1243C1257
2797C1247C1267C1252C1265C1290C1278C1259C1283C1283C1264C1241C1233C1214
2784C1158C1170C1161C1154C1160C1191C1182C1103C1060C1034C1028C1016C1028
2771C1069C1058C1031C1014C1043C1084C1111C1127C1121C1120C1156C1217C1236
2758C1200C1186C1219C1231C1224C1193C1164C1169C1147C1081C1077C1144C1153
2745C1101C1084C1107C1161C1177C1164C1158C1165C1181C1180C1166C1188C1196
2732C1185C1213C1241C1261C1251C1216C1255C1252C1212C1210C1189C1147C1167
2719C1160C1114C1072C1074C1072C1039C1036C1029C1013C1009C0955C0895C0928
2706C0941C0900C0853C0812C0792C0784C0825C0901C0909C0899C0903C0876C0870
2693C0881C0870C0813C0784C0766C0784C0815C0858C0830C0829C0890C0890C0883
2680C0888C0922C0944C0913C0899C0950C0976C0945C0914C0908C0952C0930C0898
2667C0869C0833C0807C0795C0769C0756C0749C0723C0689C0696C0627C0509C0445
2654C0445C0426C0403C0350C0293C0270C0206C0166C0123C0087C0012B9944B9884
2641B9801B9741B9666B9628B9618B9576B9507B9485B9519B9527B9509B9543B9559
2628B9601B9664B9674B9637B9611B9644B9689B9684B9660B9653B9680B9695B9693
2615B9675B9686B9671B9690B9718B9734B9779B9824B9843B9863B9855B9871B9874
2602B9865B9884B9901B9876B9856B9843B9840B9850B9835B9788B9762B9755B9742
2589B9750B9704B9653B9630B9610B9600B9568B9556B9569B9568B9558B9574B9592
2576B9605B9630B9697B9732B9700B9703B9741B9788B9808B9827B9875B9871B9883
2563B9944B9941B9903B9912B9957C0012C0042C0039C0070C0119C0140C0151C0169
2550C0165C0171C0220C0289C0331C0347C0382C0423C0462C0474C0476C0511C0532
2537C0553C0616C0611C0573C0589C0609C0607C0593C0583C0572C0539C0541C0549
2524C0534C0485C0446C0446C0432C0407C0404C0428C0457C0452C0453C0469C0503
2511C0533C0546C0573C0603C0603C0593C0579C0552C0560C0616C0612C0565C0572
2498C0619C0624C0582C0590C0631C0618C0577C0580C0569C0563C0598C0605C0612
2485C0651C0674C0687C0687C0687C0693C0706C0731C0778C0831C0867C0911C0937
2472C0925C0902C0902C0933C0949C0934C0922C0915C0898C0900C0948C0960C0951
2459C0981C0988C0987C1001C0997C0993C1007C0985C1008C1009C0996C1011C1046
2446C1097C1124C1138C1179C1154C1114C1116C1124C1149C1170C1153C1121C1120
2433C1144C1098C1087C1125C1126C1075C1020C1050C1085C1066C1082C1111C1115
2420C1116C1114C1128C1125C1111C1131C1185C1189C1193C1202C1225C1257C1243
2407C1210C1190C1178C1173C1150C1120C1114C1131C1156C1131C1114C1087C1054
2394C1058C1092C1098C1104C1118C1104C1100C1109C1138C1147C1161C1169C1181
2381C1189C1203C1224C1210C1221C1230C1216C1207C1198C1191C1180C1156C1156
2368C1133C1092C1121C1136C1130C1123C1111C1127C1141C1151C1159C1144C1146
2355C1142C1141C1166C1222C1213C1184C1172C1162C1190C1204C1186C1188C1196
2342C1187C1150C1110C1126C1142C1113C1082C1077C1074C1048C1068C1098C1095
2329C1072C1058C1065C1068C1071C1098C1146C1167C1164C1166C1180C1165C1165
2316C1190C1217C1203C1179C1182C1169C1188C1209C1196C1161C1113C1098C1089
2303C1109C1121C1068C1017C1011C1038C1072C1074C1103C1138C1113C1090C1123
2290C1165C1159C1169C1186C1178C1127C1126C1203C1253C1221C1163C1121C1109
2277C1045C1025C1055C1083C1111C1098C1039C1025C1023C1020C1114C1180C1179
2264C1151C1132C1141C1161C1167C1167C1233C1282C1245C1219C1242C1251C1226
2251C1226C1222C1224C1255C1279C1277C1276C1229C1170C1138C1173C1175C1140
2238C1131C1129C1164C1156C1126C1155C1200C1209C1173C1166C1233C1263C1205
2225C1172C1231C1254C1215C1181C1193C1242C1266C1258C1268C1278C1276C1248
2212C1233C1240C1229C1164C1124C1137C1151C1147C1178C1151C1124C1154C1193
2199C1243C1280C1226C1214C1248C1195C1165C1196C1253C1257C1247C1233C1210
2186C1202C1244C1319C1297C1213C1173C1196C1256C1245C1211C1207C1150C1100
2173C1092C1139C1240C1259C1212C1173C1153C1156C1245C1308C1297C1244C1233
2160C1218C1205C1234C1326C1360C1348C1341C1312C1247C1221C1237C1214C1205
2147C1231C1208C1191C1140C1116C1149C1204C1210C1206C1219C1215C1271C1253
2134C1173C1173C1204C1235C1268C1244C1250C1255C1213C1221C1209C1228C1262
2121C1239C1237C1256C1217C1187C1173C1150C1147C1155C1164C1154C1113C1120
2108C1206C1239C1215C1199C1224C1224C1219C1215C1140C1163C1245C1257C1250
2095C1216C1277C1338C1294C1200C1126C1183C1217C1105C1057C1112C1182C1144
2082C1109C1133C1189C1137C1075C1069C1083C1046C1111C1163C1154C1196C1229
2069C1233C1227C1207C1175C1154C1209C1172C1159C1183C1261C1257C1215C1237
2056C1222C1135C1131C1142C1162C1139C1138C1154C1147C1154C1078C1015C1072
2043C1042C1039C1183C1189C1098C1157C1069C1029C1142C1193C1229C1274C1141
2030C1076C1149C1219C1180C1231C1225C1155C1141C1128C1082C1065C1030C1008
2017C0991C1034C1105C1133C1127C1113C1065C1092C1085C1089C1068C1071C1036
2004C1017C1043C1189C1290C1263C1071C1074C1111C1161C1086C1094C1026C1022
1991C1015C1065C0973C1054C1043C1060C1058C1095C1043C1151C1092C1010C1005
1978C1032C1052C1032C1057C1028C1105C1111C1086C1068C1114C1161C1157C1143
1965C1125C1146C1131C1135C1118C1108C1075C1023C1014C1007C1056C1112C1074
1952C1057C1053C1048C1062C1072C1102C1083C1033C1000C1051C1137C1173C1185
1939C1196C1196C1180C1214C1226C1245C1235C1186C1211C1142C1061C1120C1151
1926C1183C1167C1077C1106C1177C1060C1017C1080C1085C1015C0968C1092C1212
1913C1193C1112C1204C1199C1088C1144C1158C1283C1338C1398C1287C1203C1263
1900C1301C1308C1312C1134C1087C1188C1198C1149C1235C1366C1308C1075C1165
1887C1343C1277C1016C0934C1033C1304C1478C1255C1050C1198C1287C1237C1257
1874C1346C1268C1301C1305C1455C1541C1339C1304C1335C1170C1136C1266C1271
1861C1316C1409C1412C1262C1094C1180C1290C1161C0957C1267C1558C1563C1442
1848C1501C1744C1643C1508C1635C1447C1356C1434C1597C1479C1250C1043C1189
1835C1456C1356C1618C1592C1219C1199C1368C1537C1501C1839C1749C1499C1815
1822C1827C1721C1787C1993C2000C1819C1465C1286C1450C1585C1470C1424C1328
1809C1287C1365C1594C1715C1547C1562C1541C1320C1381C1608C1505C1488C1421
1796C1234C1060C1020C1103C1156C1071C1028C1178C1243C1268C1286C1251C1263
1783C1331C1233C1133C1141C1228C1286C1227C1166C1124C1069C1092C1126C1130
1770C1164C1154C1101C1157C1152C1107C1146C1142C1022C1027C1149C1155C1182
1757C1141C1184C1160C1187C1208C1109C1142C1170C1076C1095C1205C1203C1263
1744C1310C1167C1097C1114C1113C1217C1296C1371C1339C1175C1202C1271C1185
1731C1187C1134C1113C1222C1282C1267C1213C1271C1353C1342C1359C1312C1186
1718C1263C1369C1488C1358C1259C1316C1574C1649C1610C1653C1555C1437C1499
1705C1512C1563C1291C1258C1521C1684C1586C1534C1609C1634C1695C1970C1795
1692C1697C1411C1334C1592C1587C1509C1653C1693C1434C1446C1633C1812C1859
1679C1900C1592C1352C1522C1755C1477C1200C1247C1519C1477C1453C1747C1544
1666C1207C1286C1354C1338C1262C1118C1162C1169C1297C1130C1244C1397C1424
1653C1204C1104C1160C1322C1465C1453C1384C1312C1369C1418C1297C1398C1410
1640C1297C1291C1166C1209C1300C1477C1689C1727C1369C1304C1443C1450C1490
1627C1421C1331C1435C1320C1219C1411C1369C1209C1282C1401C1388C1569C1496
1614C1159C1026C1188C1286C1271C1388C1369C1100C0939C0991C0959C0983C1037
1601C1072C1095C0997C0958C1053C1179C1247C1205C1185C1230C1170C1207C1265
1588C1271C1256C1235C1181C1121C1149C1167C1129C1167C1188C1147C1132C1101
1575C1126C1107C0971C0820C0818C0945C0935C0855C0898C0936C0986C1043C1068
1562C1034C1100C1105C1101C1048C1108C1079C1076C1153C1170C1101C1031C1088
1549C1091C1111C1104C1078C1079C1092C1048C1025C1040C1033C1007C1016C1028
1536C1066C1056C1042C1061C1094C1080C1085C1086C1074C1144C1181C1121C1195
1523C1219C1182C1191C1195C1166C1212C1214C1173C1151C1192C1216C1180C1147
1510C1134C1097C1084C1080C1100C1092C1072C1069C1083C1094C1108C1091C1163
1497C1166C1141C1138C1133C1144C1118C1142C1170C1154C1153C1169C1185C1169
1484C1151C1173C1151C1120C1101C1106C1158C1108C1074C1103C1129C1143C1131
1471C1133C1151C1144C1123C1115C1164C1252C1292C1294C1278C1262C1278C1291
1458C1305C1323C1291C1290C1289C1244C1239C1260C1252C1212C1185C1195C1156
1445C1134C1185C1193C1203C1176C1160C1156C1163C1169C1216C1236C1219C1199
1432C1247C1271C1288C1297C1268C1278C1277C1207C1261C1316C1292C1234C1183
1419C1238C1240C1193C1158C1160C1138C1132C1190C1170C1176C1166C1175C1228
1406C1222C1198C1202C1151C1200C1280C1224C1270C1304C1311C1294C1258C1238
1393C1265C1242C1185C1265C1314C1233C1219C1163C1054C1135C1234C1193C1104
1380C1107C1167C1158C1142C1126C1136C1144C1167C1182C1190C1186C1149C1118
1367C1202C1252C1213C1232C1245C1222C1196C1173C1195C1193C1170C1157C1196
1354C1184C1184C1177C1125C1030C1152C1209C1156C1124C1062C1185C1193C1140
1341C1133C1137C1144C1177C1193C1207C1196C1146C1170C1356C1299C1239C1205
1328C1231C1230C1204C1160C1098C1147C1169C1102C1055C1053C1020C1019C1089
1315C1049C1020C1000C0996C0938C0940C0963C0938C0907C0837C0771C0730C0677
1302C0582C0528C0791C0802C0650C0533C0473C0445C0410C0328C0363C0264C0152
1289C0056B9969B9875B9760B9570B9404B9244B8989B8764B8539B8083B7763B7294
1276B6629B5862B4893B3962B3264B2634B2114B1633B1440B1326B1260B1211B1266
1263B1353B1681B1976B2282B2587B2862B3113B3450B3876B4347B4742B5182B5579
1250B5937B6237B6539B6787B7012B7212B7395B7569B7689B7811B8001B8173B8325
1237B8463B8561B8646B8741B8780B8841B8848B8843B8803B8770B8697B8636B8552
1224B8452B8322B8295B8099B8000B7837B7603B7343B7056B6719B6340B5885B5493
1211B5076B4614B4099B3547B3091B2674B2373B2091B1775B1634B1520B1471B1447
1198B1453B1546B1604B1658B1699B1747B1757B1730B1679B1619B1568B1537B1483
1185B1397B1345B1273B1192B1136B1087B0995B0775B0533B0046A9630A9258A8994
1172A8821A8785A8870A9033A9288A9642A9931B0272B0660B1156B1603B1933B2248
1159B2771B3216B3617B4012B4335B4728B5095B5358B5681B5935B6251B6620B7006
1146B7193B7359B7498B7681B7869B7997B8210B8356B8386B8627B8700B8712B8751
1133B8793B8829B8910B8898B8870B8891B8931B8877B8826B8763B8662B8520B8382
1120B8232B8031B7815B7617B7408B7255B7105B7068B7053B7069B7115B7246B7404
1107B7550B7606B7750B7876B7895B7881B7821B7691B7523B7358B7257B7255B7321
1094B7399B7517B7662B7828B7913B7829B7783B7711B7584B7497B7433B7341B7182
1081B7016B6800B6583B6490B6471B6485B6677B6736B6749B6678B6519B6272B5934
1068B5464B5029B4583B4142B3716B3408B3258B3403B3754B4184B4842B5741B6189
1055B6661B7086B7434B7636B7708B7648B7414B7112B6852B6600B6412B6436B6723
1042B7077B7192B7047B6724B6314B5765B5154B4682B4252B3838B3475B3326B3389
1029B3568B3700B3710B3653B3578B3486B3511B3656B3956B4347B4673B5109B5583
1016B6032B6427B6813B7202B7509B7793B8094B8346B8555B8758B8911B9110B9261
1003B9301B9399B9464B9556B9586B9527B9353B9034B8627B8064B7385B6706B6354
990B6126B6162B6439B6854B7146B7550B7886B8189B8461B8734B8953B9127B9301
977B9502B9617B9749B9865B9944C0012C0113C0131C0189C0244C0323C0403C0473
964C0615C0750C0831C0927C0975C0994C1027C1053C1147C1160C1195C1207C1169
951C1141C1084C1000C0840C0627C0349B9993B9615B9304B9109B9052B9147B9329
938B9561B9786B9971C0169C0345C0469C0584C0700C0815C0893C0936C0997C1023
925C0964C0847C0622C0290B9723B8824B7682B6427B5312B4589B4314B4460B4957
912B5602B6266B6890B7429B7879B8288B8651B8950B9184B9375B9539B9676B9767
899B9817B9886B9925B9901B9876B9868B9847B9771B9696B9661B9618B9545B9510
886B9524B9520B9488B9462B9439B9378B9297B9170B9030B8825B8571B8327B8111
873B7883B7696B7614B7592B7651B7764B7910B8082B8282B8482B8602B8648B8673
860B8684B8677B8692B8750B8859B8985B9110B9278B9401B9477B9561B9641B9749
847B9900C0060C0248C0411C0514C0593C0681C0777C0839C0884C0915C0945C1001
834C1036C1041C1040C1046C1071C1117C1160C1195C1178C1166C1205C1236C1251
821C1245C1242C1237C1225C1196C1173C1173C1152C1082C1022C0973C0865C0725
808C0619C0486C0272C0032B9771B9494B9247B9026B8842B8695B8432B7975B7359
795B6648B5933B5344B5039B5152B5527B6058B6659B7236B7754B8184B8524B8826
782B9064B9214B9269B9266B9208B9069B8883B8724B8644B8601B8603B8711B8880
769B9015B9079B9145B9197B9230B9260B9317B9400B9480B9529B9596B9720B9883
756C0035C0169C0297C0396C0466C0515C0518C0466C0386C0365C0368C0394C0480
743C0529C0495C0472C0448C0452C0490C0593C0741C0831C0867C0912C0973C0973
730C0949C1008C1041C0992C0951C0959C0938C0860C0726C0550C0339C0034B9664
717B9336B9150B9096B9194B9428B9734C0039C0229C0347C0451C0485C0426C0344
704C0280C0125B9851B9555B9289B9093B8998B8986B8972B8827B8567B8418B8461
691B8629B8893B9217B9537B9832C0047C0189C0357C0531C0645C0742C0835C0928
678C1007C1032C1055C1097C1117C1124C1131C1111C1013C0886C0719C0437C0133
665B9869B9667B9539B9427B9328B9284B9258B9227B9159B9009B8692B8179B7460
652B6464B5089B3392B1701B0371A9611A9483A9819B0397B1110B1885B2630B3327
639B3972B4549B5037B5486B5902B6266B6579B6800B7012B7232B7416B7617B7842
626B8025B8205B8376B8498B8668B8831B8968B9081B9172B9245B9314B9398B9474
613B9565B9633B9671B9747B9837B9885B9929B9984C0045C0096C0117C0127C0107
600C0056C0008C0007C0024C0021C0032C0039C0100C0178C0241C0280C0342C0390
587C0406C0389C0359C0349C0355C0409C0495C0567C0640C0707C0777C0798C0806
574C0838C0889C0929C0945C0949C1001C1038C1020C0985C1020C1078C1077C1083
561C1120C1161C1202C1173C1163C1221C1211C1166C1179C1185C1147C1141C1167
548C1156C1092C1029C0944C0791C0547C0151B9589B8898B8060B7252B6766B6687
535B6947B7397B7917B8394B8784B9059B9279B9486B9603B9722B9882C0005C0127
522C0260C0351C0438C0518C0561C0602C0663C0717C0750C0795C0825C0852C0893
509C0867C0816C0808C0833C0838C0762C0634C0500C0292B9951B9539B9274B9223
496B9416B9720B9989C0200C0378C0549C0667C0720C0740C0743C0794C0867C0870
483C0888C0919C0870C0827C0883C0895C0841C0739C0658C0612C0459C0194B9869
470B9473B8955B8455B8207B8276B8697B9168B9528B9826C0028C0123C0120C0120
457C0065B9742B9340B8899B8636B8717B9079B9566B9948C0122C0191C0304C0416
444C0414C0376C0397C0374C0232B9958B9509B8973B8218B7434B7014B6962B7082
431B7215B7251B7076B6689B6411B6385B6482B6409B5837B4755B3649B3125B3398
418B4353B5563B6637B7522B8225B8774B9171B9403B9674B9913C0022C0114C0195
405C0238C0255C0329C0448C0530C0612C0628C0589C0648C0691C0650C0710C0837
392C0823C0867C0935C0935C0964C0977C0999C1037C1014C0997C1030C1014C0993
379C1005C1076C1116C1076C1066C1041C1055C1089C1094C1058C1049C1046C1049
366C1049C1061C1063C1020C0915C0798C0690C0593C0579C0539C0458C0438C0412
353C0405C0471C0633C0824C0911C0963C1034C1074C1045C1051C1059C1046C1009
340C0968C0891C0803C0581C0460C0451C0468C0524C0722C0893C0966C0975C1020
327C1065C1078C1064C1049C1097C1138C1089C1071C1140C1165C1150C1209C1274
314C1257C1200C1222C1225C1207C1209C1221C1205C1213C1213C1235C1259C1213
301C1167C1216C1271C1237C1242C1271C1232C1160C1143C1161C1205C1245C1248
288C1258C1256C1237C1196C1209C1162C1177C1169C1135C1227C1271C1256C1274
275C1285C1198C1202C1244C1218C1219C1218C1210C1218C1260C1211C1162C1115
262C1125C1198C1189C1090C1079C1126C1117C1050C0977C0983C1055C1034C0934
249C0951C0966C0926C0986C1050C1103C1090C1004C1005C1092C1063C1031C1130
236C1095C1063C1059C1092C1092C1115C1089C1053C1020C1057C1035C1001C1007
223C0952C0880C0852C0834C0783C0704C0678C0596C0446C0139B9925B9812B9566
210B9360B9299B9355B9499B9630B9879C0116C0168C0251C0339C0408C0471C0487
197C0476C0398C0218B9947B9749B9630B9291B8967B8878B8981B9032B9012B9082
184B9312B9580B9781C0051C0221C0275C0428C0580C0606C0520C0538C0654C0711
171C0676C0609C0536C0450C0241C0089C0078C0124C0148C0132C0130C0071B9888
158B9906B9964B9970C0058C0267C0521C0559C0621C0618C0678C0684C0653C0769
145C0874C0616C0438C0566C0761C0674C0677C0763C0852C0799C0764C0813C0918
132C0990C0971C0812C0681C0732C0855C0922C0869C0857C0839C0873C0903C0690
119C0500C0472C0297C0028B9782B9598B9366B9136B9124B9274B9569B9993C0356
106C0573C0668C0691C0677C0749C0779C0671C0537C0615C0792C0690C0533C0790
93C0903C0740C0753C0844C0843C0939C1109C1042C0888C0760C1043C1248C0937
80C0609C0629C0830C0968C0818C0671C0772C0827C0683C0574C0351C0145C0375
67C0778C0997C1033C0697C0409C0257B9946B9746B9678B8978B8280B7636B7195
54B7456B8158B8627B9030B9179B9134B9332B9327B9089B8831B9038B9150B9315
41B9479B9645B9720B9819C0009B9875B9589B9604B9929C0075C0065B9921B9508
28B9481B9933B9808B9371B9203B9171B9193B9341B9135B8846B8963B9465B9842
15B9855B9802B9944C0390C0266B9768B9861B9999B9768B9529B9374B9455B9873
2C0296C0280
$$ === CHEMSPECTRA INTEGRALS AND MULTIPLETS ===
##$OBSERVEDINTEGRALS= (X Y Z)
##$OBSERVEDMULTIPLETS=
##$OBSERVEDMULTIPLETSPEAKS=
$$ === CHEMSPECTRA SIMULATION ===
##$CSSIMULATIONPEAKS=
##END=


$$ === CHEMSPECTRA PEAK TABLE EDIT ===
##TITLE=TMGm4NMe2py_CuBr2
##JCAMP-DX=5.00
##DATA TYPE=INFRAREDPEAKTABLE
##DATA CLASS=PEAKTABLE
##$CSCATEGORY=EDIT_PEAK
##$CSTHRESHOLD=0.93
##MAXX=4000.433
##MAXY=102.48364864598744
##MINX=400.2361
##MINY=60.16110436921481
##$CSSOLVENTNAME=
##$CSSOLVENTVALUE=0
##$CSSOLVENTX=0
##NPOINTS=0
##PEAKTABLE= (XY..XY)
##END=


$$ === CHEMSPECTRA PEAK TABLE AUTO ===
##TITLE=TMGm4NMe2py_CuBr2
##JCAMP-DX=5.00
##DATA TYPE=INFRAREDPEAKTABLE
##DATA CLASS=PEAKTABLE
##$CSCATEGORY=AUTO_PEAK
##$CSTHRESHOLD=0.93
##MAXX=4000.433
##MAXY=102.48364864598744
##MINX=400.2361
##MINY=60.16110436921481
##NPOINTS=51
##PEAKTABLE= (XY..XY)
2897.131297990892, 95.25534880242513
2879.771655826413, 95.1176363995571
2921.241912108224, 95.03757104905242
2919.3130629788375, 95.02476059297167
2925.099610366997, 94.9671135406083
2929.9217331904633, 94.83260375176044
433.0265351995713, 94.76214624331632
2886.5226277792663, 94.66286520869052
2889.415901473346, 94.65645998065015
1254.7162643182428, 94.50913973572155
2936.6727051433163, 94.50593712170135
2939.565978837396, 94.42907438521686
426.2755632467183, 94.41626392913612
404.09379825877295, 94.0735842289761
600.8364094562012, 93.83338817746207
878.5906840878652, 93.58998951192784
421.45344042325223, 93.42345358287811
446.52847910527726, 93.30495686413119
506.3228021162604, 93.27293072392932
1088.8352391909993, 93.18325753136408
1306.7951908116797, 93.04234251447585
578.6546444682563, 92.91744056768854
581.5479181623359, 92.4850876749633
1488.1070089740156, 92.4594667628018
417.5957421644789, 92.38260402631731
442.67078084650393, 92.33456481601449
1227.7123765068309, 91.84136225690568
836.1560032413608, 91.71005508207801
1144.7718639432092, 91.59796359137147
1067.6178987677472, 91.01188522567722
849.6579471470668, 90.33933628143792
1238.3210467184572, 88.36652604500267
1456.2809983391376, 87.28724512019961
452.315026493437, 87.09508827898838
1471.71179137423, 86.64031708812182
816.8675119474951, 86.3488792122848
916.2032421109029, 85.46816035673334
1437.956931609965, 84.77639572837292
1407.0953455397803, 84.58744150118189
810.1165399946422, 84.50097092263684
1354.0519944816501, 83.67149389140837
1163.0959306723812, 80.19025245146499
1281.7201521296543, 77.86835728682934
1386.8424296812213, 75.21659287811441
1393.5934016340743, 74.70417463488447
1423.490563139566, 74.48639688151175
804.3299926064828, 74.06044921682687
1555.616728502545, 68.6864628909529
1619.268749772301, 67.93384859620892
1022.2899442271632, 62.39652895530541
1528.612840691133, 60.16110436921481
##END=

##END=

