##TITLE=NR- 187
##JCAMP-DX=4.24
##DATA TYPE=INFRARED SPECTRUM
##DATE=20/5/2020
##SAMPLING PROCEDURE=Diamant-ATR
##ORIGIN=Fabienne
##XUNITS=1/CM
##YUNITS=TRANSMITTANCE
##RESOLUTION=4
##FIRSTX=3997.453
##LASTX=373.96442
##DELTAX=-1.4165319
##MAXY=1.0024953
##MINY=0.63358384
##XFACTOR=1
##YFACTOR=9.3364649e-010
##NPOINTS=2559
##FIRSTY=0.99845207
##XYDATA=(X++(Y..Y))
3997+1069411253+1068912210+1068657294+1068648037+1068658507+1068505417
3989+1068395994+1068678489+1069245076+1069559746+1069352456+1069024059
3980+1069155954+1069684619+1069858776+1069199876+1068179000+1067566704
3972+1067418529+1067284656+1067164890+1067540338+1068503885+1069486138
3963+1069958304+1069945089+1069742522+1069511355+1069337262+1069394591
3955+1069829984+1070536509+1071069196+1070892102+1069940046+1068856797
3946+1068332664+1068428872+1068789700+1069042637+1068926957+1068487414
3938+1068064661+1067846134+1067671977+1067457855+1067434298+1067665529
3929+1067842304+1067861967+1067964431+1068191704+1068244628+1068026484
3921+1067903272+1068270739+1069132205+1070102392+1070781338+1071060450
3912+1071033381+1070783573+1070304257+1069533636+1068493607+1067482242
3904+1066978348+1067086111+1067428489+1067815746+1068259248+1068491436
3895+1068272080+1067880672+1067890057+1068411699+1068869309+1068918786
3887+1068828324+1068867841+1068923319+1068805469+1068631758+1068628630
3878+1068724966+1068638334+1068333494+1068098688+1068134120+1068276676
3870+1068401740+1068639100+1068872693+1068768824+1068403528+1068269526
3861+1068508418+1068751459+1068750438+1068583878+1068524314+1068902698
3853+1069611649+1069960602+1069911509+1069787275+1069511228+1068968071
3844+1068427340+1068258482+1068348880+1068236840+1067706259+1067014609
3836+1066643248+1066854561+1067524633+1068214176+1068417828+1068023101
3827+1067482689+1067379587+1067779676+1068253055+1068565619+1068955750
3819+1069534274+1069970944+1069990990+1069672617+1069287083+1068972859
3810+1068724263+1068477008+1068164955+1067915976+1068027634+1068543275
3802+1069155188+1069563322+1069860755+1070201729+1070336752+1069897655
3793+1069000630+1068244947+1068153464+1068718964+1069409465+1069709261
3785+1069625439+1069591156+1069875311+1070249418+1070275465+1069827814
3776+1069176958+1068589815+1068232562+1068227646+1068475412+1068627991
3768+1068590645+1068696748+1069085665+1069402315+1069299276+1068890377
3759+1068618160+1068808405+1069364905+1070031912+1070644272+1070932194
3751+1070442408+1069230456+1068105008+1067537401+1067478604+1067748714
3742+1068099646+1068283699+1068183150+1067867202+1067656272+1067925361
3734+1068555277+1068956324+1068861840+1068609222+1068712644+1069304511
3725+1069934555+1070148805+1070144336+1070304512+1070542766+1070584709
3717+1070390761+1070017165+1069409529+1068550680+1067799212+1067699429
3708+1068125118+1068403464+1068190044+1067745905+1067643823+1068224774
3700+1069169297+1069834134+1069914126+1069539445+1068959069+1068256630
3691+1067529165+1067357625+1068416551+1070100413+1071069196+1070899444
3683+1070005291+1068969348+1068185256+1067710728+1067318874+1066861775
3674+1066676381+1067104497+1067911890+1068674084+1069205367+1069661189
3666+1070077048+1070185960+1069823217+1069232754+1068842369+1068771250
3657+1068763972+1068563959+1068229179+1067969411+1067867393+1067906847
3649+1068032230+1068167828+1068325897+1068605073+1069032742+1069406720
3640+1069349966+1068733967+1067932256+1067370138+1067014290+1066536187
3632+1065843643+1065288995+1065411506+1066141652+1066602518+1066422678
3623+1065885204+1065303487+1064876584+1064796528+1065084130+1065376649
3615+1065324810+1064900971+1064204406+1063346387+1062665015+1062687040
3606+1063429316+1064183147+1064377159+1064101303+1063820787+1063872115
3598+1064197447+1064532738+1064738944+1064896822+1065067723+1065103921
3589+1064849899+1064414888+1064028141+1063639352+1063094280+1062472152
3581+1061904161+1061359409+1060805208+1060374602+1060144903+1059952998
3572+1059643371+1059287970+1059018306+1058809739+1058490344+1057885581
3564+1056964679+1055867130+1054854999+1054182118+1053900644+1053876832
3555+1053937544+1053861446+1053386216+1052482934+1051470038+1050608124
3547+1049845994+1049103910+1048499338+1048077670+1047682177+1047206564
3538+1046657726+1046028193+1045426749+1045185495+1045449604+1045812794
3530+1045640935+1044650638+1043043768+1041203687+1039417041+1037728519
3521+1035922721+1033863347+1031862580+1030357088+1029177951+1027529584
3513+1024733170+1020652728+1015554793+1009970838+1004397545+998803440+992747256
3503+986112803+979440556+973462641+968631879+965064397+962627214+961191118
3493+960867828+961837122+964091337+967495706+971839172+976764418+981898231
3483+987037088+992001597+996450208+1000132412+1003261628+1006371436+1009766612
3473+1013205136+1016215735+1018632233+1020667028+1022520834+1024132812
3465+1025371960+1026348850+1027403499+1028767455+1030323189+1031728834
3456+1032753860+1033447808+1033995944+1034538846+1035205023+1036128096
3448+1037258906+1038358116+1039322110+1040196855+1040836475+1041063046
3439+1041176044+1041706305+1042646487+1043432877+1043679493+1043554238
3431+1043471692+1043656894+1044000293+1044269445+1044448135+1044747676
3422+1045264913+1045853461+1046421579+1047085203+1047868337+1048530493
3414+1048916920+1049234464+1049711801+1050203566+1050437670+1050461482
3405+1050558456+1050889151+1051428541+1052118531+1052917753+1053716273
3397+1054272900+1054361894+1054073653+1053835144+1053992128+1054453569
3388+1054871151+1055051628+1055052969+1054971891+1054847530+1054814077
3380+1055076846+1055563695+1055863171+1055746279+1055505919+1055523794
3371+1055749088+1055861895+1055751578+1055603148+1055610362+1055812482
3363+1056200761+1056792820+1057505729+1058102448+1058390242+1058389412
3354+1058216467+1057917437+1057562930+1057420565+1057791097+1058609407
3346+1059414502+1059825891+1059871410+1059812995+1059896818+1060262753
3337+1060819891+1061214490+1061154352+1060754390+1060405820+1060355322
3329+1060495963+1060561464+1060475662+1060424015+1060557059+1060795376
3320+1061001582+1061193040+1061496666+1061953383+1062382647+1062467619
3312+1062076340+1061469725+1061069125+1061055591+1061271947+1061470300
3303+1061551058+1061565423+1061587001+1061674016+1061904353+1062280055
3295+1062609856+1062664823+1062454149+1062198084+1062055464+1062033950
3286+1062124667+1062334129+1062552528+1062580681+1062389798+1062210341
3278+1062251710+1062487665+1062776800+1062977707+1062906397+1062479175
3269+1061930208+1061629519+1061694764+1061970173+1062271501+1062519394
3261+1062764862+1063114453+1063490092+1063610049+1063371284+1063000179
3252+1062666100+1062257264+1061666993+1061013520+1060523415+1060393754
3244+1060683591+1061204595+1061653267+1061904800+1062060380+1062250689
3235+1062516713+1062798953+1063005733+1063159525+1063383287+1063620199
3227+1063550102+1062972089+1062128434+1061499986+1061356217+1061606345
3218+1062021756+1062469279+1062861070+1063030694+1062888266+1062628370
3210+1062516202+1062498391+1062314274+1061999667+1061989516+1062563253
3201+1063351941+1063639160+1063169101+1062446807+1062130987+1062330809
3193+1062658631+1062764670+1062627285+1062444701+1062413993+1062578894
3184+1062816317+1062989326+1063085980+1063147970+1063150651+1063079852
3176+1063031269+1063070595+1063117390+1063150268+1063391522+1064023417
3167+1064792570+1065170571+1064931360+1064373328+1063937679+1063774183
3159+1063716088+1063539186+1063227005+1063067977+1063396565+1064109794
3150+1064603729+1064391267+1063624158+1062845939+1062432315+1062437678
3142+1062745199+1063167122+1063509500+1063698085+1063799081+1063866433
3133+1063828448+1063630797+1063429571+1063454788+1063710342+1063978090
3125+1064071234+1063927592+1063542569+1063011351+1062569637+1062436146
3116+1062611006+1062858835+1062914760+1062749157+1062586874+1062626008
3108+1062846578+1063154992+1063525651+1063911888+1064181423+1064230325
3099+1064076724+1063853282+1063753690+1063884372+1064111900+1064185317
3091+1064003946+1063599707+1062956128+1062095747+1061232110+1060539758
3082+1059818230+1058622877+1056706124+1054287711+1051998894+1050562670
3074+1050324416+1051040326+1052135960+1053035156+1053218826+1052232296
3065+1049806349+1045923813+1040952602+1036001819+1032920739+1033316360
3057+1037252842+1043059855+1048538473+1052331632+1054313311+1055091082
3048+1055359532+1055531838+1055645858+1055478978+1054820078+1053730318
3040+1052543774+1051626447+1051189777+1051260512+1051669093+1052119170
3031+1052435373+1052681543+1052917562+1053027495+1052923307+1052675414
3023+1052294668+1051615211+1050487721+1048832331+1046364888+1042468882
3014+1036671444+1029530351+1022993447+1019329246+1019233740+1021119403
3006+1022333079+1020835504+1015990378+1008686491+1001193253+996275731+995510154
2996+998101192+1001414205+1002743624+1000637647+994883238+985936539+974690936
2986+962244553+949383717+936487576+924265594+914378584+908822784+908364918
2976+911491453+914867860+914870222+909123346+897551325+882641202+868207523
2966+856906251+848574912+840957567+831888485+820974471+809834141+800968392
2956+796015822+794734539+795451470+796270099+795956195+794264608+791821360
2946+789426121+787030882+783485616+777729803+770243012+762802507+756673736
2936+751620872+747004360+743383379+742654318+746754423+756306269+770184790
2927+786060759+801460923+814661136+824882415+832009336+836518596+839560158
2917+842425456+845478063+847849234+848539735+847748494+846909499+847535649
2907+850269180+854917868+860882952+867307050+873211612+877963914+881603919
2897+884637310+887729178+891606224+896772597+902990361+909216298+914276822
2887+917580515+919169957+919238585+917696066+914111156+907979576+899082034
2877+887710345+874656902+860944558+847349426+833966755+820328275+806339629
2867+793466535+785086613+785280370+796358519+816736023+841230933+863898595
2857+880880412+891031083+894718905+892536128+884999222+873284646+860130908
2847+849455722+844316546+845006727+849358492+854923039+860699729+866969588
2837+873989830+881191252+887672935+893321304+899140512+906318632+915152398
2827+924989292+934916967+944232857+952484651+959478208+965304182+970208553
2817+974428231+978198727+981811217+985524830+989441521+993452185+997252047
2808+1000532501+1003340343+1006118818+1009161785+1012196772+1014781618
2799+1016928517+1019016363+1021220335+1023341762+1025158030+1026681205
2791+1028037373+1029275244+1030379816+1031378029+1032326638+1033252456
2782+1034148715+1034981453+1035683956+1036244095+1036811383+1037571407
2774+1038480562+1039258525+1039718306+1039983436+1040282530+1040636462
2765+1040873184+1040897316+1040822750+1040869673+1041169596+1041631803
2757+1041995184+1042078432+1041966456+1041905999+1042050279+1042331688
2748+1042549896+1042604224+1042624270+1042804493+1043165767+1043596564
2740+1044038661+1044449604+1044657788+1044484588+1044030936+1043656383
2731+1043572369+1043579072+1043351544+1042879569+1042432621+1042184536
2723+1042095733+1042101990+1042219137+1042459306+1042769827+1043098479
2714+1043463073+1043881230+1044263508+1044498506+1044596437+1044611950
2706+1044541023+1044440091+1044442517+1044540640+1044591649+1044564517
2697+1044514210+1044394701+1044202668+1044161107+1044483758+1045049068
2689+1045497549+1045612270+1045539620+1045605950+1045921770+1046275256
2680+1046454202+1046502529+1046578372+1046731589+1046927516+1047145213
2672+1047322946+1047295622+1046948584+1046403576+1045883146+1045448136
2663+1045061964+1044824348+1044903319+1045309027+1045906448+1046518425
2655+1046936582+1047033109+1046941881+1046932368+1047060944+1047123316
2646+1046960586+1046629636+1046237271+1045802196+1045379316+1045143807
2638+1045221310+1045568029+1046074286+1046637041+1047132381+1047467034
2629+1047619230+1047584820+1047446350+1047473610+1047869231+1048440222
2621+1048787132+1048773023+1048567392+1048284067+1047821350+1047141957
2612+1046575882+1046615527+1047332650+1048194244+1048628105+1048631552
2604+1048648789+1048982421+1049524428+1050016321+1050361125+1050626383
2595+1050863551+1051011534+1050988743+1050864764+1050842867+1050936712
2587+1050802455+1050196735+1049504255+1049404855+1050010895+1050718122
2578+1050968569+1050843058+1050808520+1051133789+1051685883+1052163986
2570+1052368404+1052256172+1051853465+1051251128+1050684286+1050468249
2561+1050792305+1051616999+1052725976+1053774304+1054393175+1054440162
2553+1054137174+1053891898+1054014026+1054526730+1055125875+1055409583
2544+1055281327+1055019389+1054921585+1055060119+1055362596+1055710528
2536+1055940610+1055912584+1055575633+1054954527+1054168839+1053491234
2527+1053222975+1053418136+1053810118+1054086740+1054175606+1054230254
2519+1054449483+1054937545+1055574420+1056007196+1055998322+1055807247
2510+1055948782+1056501259+1056947123+1056858065+1056461423+1056258920
2502+1056295437+1056192781+1055797671+1055366746+1055094912+1054838145
2493+1054421521+1054042690+1054195652+1055128301+1056444058+1057435887
2485+1057766454+1057605129+1057221063+1056778839+1056439653+1056339359
2476+1056419735+1056448846+1056279157+1056065100+1056142730+1056672608
2468+1057454465+1058090829+1058278137+1058011156+1057496344+1056816888
2459+1055876450+1054806991+1054101551+1054084506+1054500492+1054788732
2451+1054622108+1054178607+1053969018+1054299393+1054928097+1055405753
2442+1055596509+1055671649+1055758856+1055798565+1055644772+1055245002
2434+1054785604+1054637175+1055017091+1055667436+1056012367+1055768304
2425+1055275518+1055072185+1055299267+1055677203+1055904413+1055917500
2417+1055873258+1055974765+1056292819+1056711423+1056996152+1056940866
2408+1056585529+1056245003+1056153902+1056230958+1056348616+1056561014
2400+1056879260+1057134942+1057237279+1057282031+1057280307+1057063504
2391+1056580486+1056089104+1055894070+1056012431+1056219849+1056348488
2383+1056404924+1056429566+1056363427+1056107937+1055718508+1055492832
2374+1055777178+1056643305+1057804950+1058797290+1059195720+1058875878
2366+1058255219+1057980384+1058139284+1058159904+1057721510+1057195463
2357+1056920118+1056738172+1056458486+1056102063+1055664308+1055199547
2349+1054975722+1055221955+1055752089+1055980511+1055602510+1055053927
2340+1054963911+1055461422+1056106979+1056418713+1056404221+1056405051
2332+1056550353+1056652306+1056547671+1056225723+1055704527+1055074356
2323+1054613554+1054624534+1055081953+1055586741+1055737724+1055499152
2315+1055181097+1055105957+1055337507+1055735809+1056157541+1056517347
2306+1056780243+1057012432+1057300034+1057514666+1057347659+1056734150
2298+1056042053+1055647645+1055500237+1055296266+1054932821+1054623832
2289+1054676501+1055182119+1055792755+1055895539+1055240661+1054289881
2281+1053753875+1053938119+1054607744+1055269644+1055619300+1055865597
2272+1056372812+1056978788+1057204784+1057117258+1057301822+1058002346
2264+1058808079+1059147137+1058812995+1058147647+1057672991+1057446995
2255+1057130409+1056702932+1056470680+1056344466+1055874727+1055042499
2247+1054337889+1054047797+1054085463+1054504641+1055552395+1057081316
2238+1058371089+1058746154+1058187420+1057380090+1057285734+1058375494
2230+1060077041+1061303548+1061601876+1061306804+1060694636+1059838659
2221+1059268434+1059760008+1061189146+1062401417+1062499604+1061672675
2213+1060668780+1060035097+1059912268+1060092043+1060151990+1059720554
2204+1058804440+1057934547+1057744812+1058272711+1059055972+1059975725
2196+1061208298+1062350408+1062658120+1062240219+1062075829+1062884499
2187+1064575639+1066479241+1067766014+1068003055+1067466985+1066859030
2179+1066756374+1067192342+1067691959+1067934809+1068142164+1068468773
2170+1068535678+1067889546+1066448215+1064545443+1063051123+1063155694
2162+1065375372+1068721263+1071069196+1071010016+1069237542+1067593198
2153+1067142163+1067806298+1068878566+1069400272+1068814470+1067574045
2145+1066437426+1065364902+1063984602+1062712129+1062384690+1063034461
2136+1063811466+1064080491+1064033504+1063995263+1063638522+1062474387
2128+1060858451+1059821997+1059874091+1060493282+1060810889+1060401479
2119+1059463659+1058522711+1057927205+1057628494+1057574102+1057996089
2111+1058845170+1059335020+1058741940+1057407350+1056372556+1056297033
2102+1057124217+1058403137+1059611003+1060458999+1060970363+1061173951
2094+1061095555+1061129455+1061719087+1062555783+1062837129+1062337704
2085+1061455234+1060347087+1058944953+1057692527+1057277434+1057645285
2077+1058107044+1058403967+1058882007+1059631879+1060148159+1059980960
2068+1059381688+1059194060+1060052653+1061596385+1062709512+1062748327
2060+1062136222+1061640627+1061526161+1061528842+1061367261+1061178101
2051+1061437167+1062238559+1062824106+1062337257+1060832914+1058996856
2043+1057673885+1058084189+1061051250+1065419103+1068539061+1068916807
2034+1067321364+1065146120+1063080745+1061638073+1061701659+1063822766
2026+1067080238+1069253375+1068898101+1066884374+1065081896+1064410356
2017+1064902184+1066365349+1068184299+1069575962+1070357245+1070647337
2009+1070303491+1069470050+1068775272+1068282613+1067392865+1066088281
2000+1065178742+1065185190+1065671976+1065792251+1065128627+1063973877
1992+1063049719+1063018118+1063971004+1065187105+1065667315+1065224325
1983+1064698788+1064893694+1065954790+1067747118+1069677277+1070249354
1975+1068427085+1065159526+1062427719+1061527437+1062656077+1064798763
1966+1065948917+1064993413+1063053294+1061893628+1061918079+1062368475
1958+1062572318+1062368475+1062017159+1062056805+1062679954+1063271948
1949+1063105899+1062395543+1062089619+1062666739+1063565999+1063862666
1941+1063320084+1062563827+1062352068+1062904226+1063724834+1064100920
1932+1063805848+1063144969+1062489708+1062030502+1061749667+1061405949
1924+1060742708+1059824678+1059044864+1058825508+1059302461+1060072827
1915+1060569061+1060757391+1060927782+1061100599+1061177016+1061340831
1907+1061694764+1061918015+1061750561+1061372624+1061074935+1060945338
1898+1060976875+1061216469+1061727131+1062419356+1062966598+1063077936
1890+1062872944+1062770927+1062933912+1063121859+1063072702+1062813189
1881+1062637308+1062735623+1062852770+1062563253+1061877157+1061221257
1873+1060869240+1060800228+1060998326+1061446104+1061894713+1062074935
1864+1061979047+1061766904+1061664440+1061865985+1062315359+1062716790
1856+1062917824+1063121540+1063577043+1064214812+1064716153+1064872754
1847+1064752861+1064482879+1064044038+1063494625+1063122178+1063061785
1839+1063139160+1063160227+1063172995+1063332852+1063614198+1063824873
1830+1063794995+1063537590+1063244752+1063081256+1063048953+1063034716
1822+1063000689+1063080490+1063407163+1063860623+1064083300+1063805274
1813+1063053869+1062094151+1061314082+1061039056+1061290078+1061766138
1805+1062131179+1062326212+1062545633+1062865794+1063084831+1063062551
1796+1062912334+1062784588+1062743028+1062844216+1063135776+1063546016
1788+1063908887+1064035419+1063831895+1063452873+1063179571+1063127349
1779+1063191318+1063228664+1063198532+1063176379+1063288994+1063518182
1771+1063591343+1063342045+1062906460+1062445084+1061959894+1061441891
1762+1061075190+1061077041+1061310443+1061400203+1061134370+1060595810
1754+1059995644+1059421460+1058689718+1057442718+1055639218+1053703696
1745+1052073396+1050949864+1050389853+1050449161+1051076587+1051943416
1737+1052741361+1053486191+1054276858+1054860106+1054935055+1054583676
1728+1054114192+1053863617+1053969529+1054222338+1054215379+1053745512
1720+1052993149+1052395281+1052241872+1052137556+1051573843+1050666539
1711+1049864827+1049541602+1049836929+1050662517+1051650771+1052341846
1703+1052711611+1053216464+1054189524+1055277752+1056159201+1056946867
1694+1057530180+1057713275+1057641199+1057570463+1057531137+1057362917
1686+1057129643+1057342552+1058201401+1059039310+1059468830+1059574550
1677+1059474193+1059209062+1058860492+1058617898+1058673631+1059108450
1669+1059702168+1060053164+1060108003+1060122240+1060307889+1060582595
1660+1060691699+1060594789+1060429314+1060313123+1060387370+1060804505
1652+1061228471+1061296909+1061156970+1060980067+1060810953+1060708425
1643+1060797100+1061068231+1061325701+1061397905+1061356727+1061414886
1635+1061544611+1061532225+1061411503+1061309038+1061230131+1061111324
1626+1061004518+1061055144+1061212192+1061152437+1060726875+1060168907
1618+1059823082+1059821103+1059919482+1059962063+1060094661+1060408182
1609+1060761604+1060954914+1060948721+1060812677+1060612919+1060410481
1601+1060276479+1060273606+1060409523+1060599896+1060726364+1060770351
1592+1060804505+1060851939+1060858451+1060790588+1060685889+1060639924
1584+1060753305+1061014350+1061256625+1061326850+1061263520+1061268755
1575+1061436273+1061595300+1061642925+1061664950+1061801569+1062117709
1567+1062550612+1062958554+1063178549+1063176123+1063129775+1063289632
1558+1063544165+1063516586+1063351877+1063236389+1063118348+1062935380
1550+1062775459+1062730771+1062721131+1062611389+1062400778+1062258924
1541+1062400331+1062779162+1062971003+1062851621+1062641968+1062524118
1533+1062510520+1062485686+1062414057+1062381371+1062483197+1062697318
1524+1062855005+1062788866+1062481984+1062122241+1061944445+1062030055
1516+1062222918+1062235942+1061967108+1061541929+1061111260+1060744048
1507+1060479109+1060330424+1060194635+1059977258+1059657096+1059291928
1499+1059030372+1058951721+1058838723+1058382070+1057501260+1056303545
1490+1054988745+1053630726+1051996340+1049928604+1047407854+1044110418
1482+1039469008+1033219642+1025511707+1016556517+1006368180+993965273+976979497
1472+955466011+934333846+917019163+903344550+892532872+883784526+875607298
1462+867144064+859385887+855569171+861154083+875726042+888986393+896386360
1452+899574501+900035814+899026429+898613315+900507214+904612873+910129092
1442+916817810+924768786+934232084+945292932+955860611+962075950+963411050
1432+962134109+959918326+957812285+957259807+960113167+967559547+978522782
1422+990082481+1000501603+1009815641+1017514638+1022679415+1025866151
1414+1028170800+1030104662+1031708022+1032920229+1033797655+1034499711
1405+1035062595+1035284633+1034960386+1034047975+1032553464+1030431144
1397+1027474234+1023268536+1017659429+1011212476+1004463939+996785563+986296983
1387+971549463+953742632+935657264+919484564+907265965+901359615+902900154
1377+910343916+920181449+929018406+935303778+939031883+940475960+940883519
1367+943576894+952189196+967649243+986646703+1003214066+1013882868+1019334417
1357+1021089207+1019584290+1014708073+1006964388+998164395+991165986+988596589
1347+991248404+997552481+1004651886+1010058938+1012501675+1011796235+1008594624
1337+1004140778+999937634+997640135+998460232+1001759967+1004577129+1003520438
1327+997610002+989467057+983797492+984139551+990242083+998143646+1002988134
1317+1002898885+1000632412+1000785311+1005370797+1012464264+1018924432
1309+1023305245+1025795798+1026827783+1026395199+1023939758+1018748743
1300+1011081794+1002804081+996542522+994430416+997479129+1005123158+1014992739
1290+1023965996+1030117303+1033543378+1035360220+1036355178+1036612647
1282+1035867498+1033867689+1030444359+1025424373+1018727420+1010655721
1273+1001890776+992991574+984077625+975568490+969355832+968314846+973592173
1264+982545831+990247318+993067545+990472739+984029298+975804701+967950762
1254+962919477+962926372+968626772+978432575+989462652+999237748+1006558553
1244+1011245673+1013541193+1013820049+1012651254+1010876482+1009452324
1235+1009177937+1010439493+1013003144+1016107142+1018979208+1021275941
1227+1022961207+1023905794+1023772495+1022348209+1019876680+1016735143
1218+1012694218+1007072407+1000140392+993950972+990975677+991725805+994067290
1208+995036711+993048392+988191839+980967562+971700510+961579014+953648531
1198+951743141+957787706+970115473+984607503+997372961+1006260736+1010391612
1188+1009311172+1003308870+994321312+985607248+979993991+978608903+981244566
1179+987143575+995031987+1003079618+1009563279+1013619653+1015330456+1015324455
1169+1014293939+1012452964+1009127630+1003151630+994300245+984478098+976737477
1159+972330937+968965255+963021686+953932430+945569554+942679613+946640226
1149+955324923+966008792+977034847+987315115+995926842+1002575404+1007693960
1139+1011696771+1014269424+1014507230+1011897167+1007401633+1003550634
1130+1002997710+1006535698+1012502760+1018107654+1020922072+1019139958
1122+1011717520+999649648+986737676+977443683+973281908+972181485+971849578
1112+972543590+975611519+980440621+984204987+984095245+978832090+968555142
1102+954350842+937729405+919383440+898047878+871587441+839793241+804893573
1092+768866479+732739858+700270351+679694812+678612138+697571804+729902266
1082+766353773+798784465+821825340+834441411+840590802+846772178+857345028
1072+871323587+883503754+889516910+890663105+893434813+903551393+920711454
1062+939500921+954550089+964070142+969287842+971699488+970880476+964652496
1052+951986055+936121705+923649978+919354648+922738205+930228059+938824465
1043+946001564+948399931+944191489+936689249+932592336+934894687+938673099
1033+935575867+922307280+903852019+889140760+884761033+891756122+905512005
1023+916868116+914995860+894070730+860503036+831211263+820805676+831039085
1013+854008394+881719279+909301717+932757492+948348476+953718755+948438938
1003+935186758+920800129+913219940+915116966+921080390+922359566+915036974
993+904058863+899445351+907964892+927766043+950555513+967978405+975554892
983+972912334+963691056+955142594+954447561+963485042+977839495+991097165
973+999309697+1001908269+1000287481+996274774+990983210+984656788+978223433
963+974686020+977434809+986615868+998099213+1006573108+1009499438+1008466879
953+1007283975+1008478179+1011161595+1012226649+1009265335+1001998795+991828078
943+981334773+973674209+970488813+970137689+969778522+969698721+973669868
933+984060197+998137709+1010098392+1015614930+1014192304+1008737819+1003367731
924+1000250006+997744770+991785368+978823855+957792366+931446587+907328528
914+895423515+901732891+923458264+951288021+976227326+994063843+1005049167
904+1011433237+1015292982+1017188348+1015679537+1007795530+990960865+966422544
894+941284502+925392382+924858993+938821464+961768365+987221652+1009709219
884+1026084103+1036391439+1042708221+1046785088+1049167623+1050043645
875+1049871530+1049099122+1047903577+1046287705+1043881294+1039459240
867+1030851407+1015353886+991006703+959784069+930417411+914838557+918446705
857+935131536+954102374+969898478+983751718+997687249+1010847435+1021081099
847+1027580273+1031458532+1034593876+1038002906+1041138761+1042848096
839+1042851416+1042028190+1041414681+1041122354+1040218370+1037812086
830+1034360858+1031547398+1030490069+1030087553+1027451507+1020553136
822+1010542915+1000526692+991851060+983473181+975913038+973370135+979645740
812+993318630+1008865053+1021703992+1030754305+1037062596+1041787446+1045594523
802+1048832012+1051642727+1054056735+1056180779+1058205614+1060113174
793+1061523862+1062048441+1061729940+1060920057+1059743984+1057880729
785+1054767027+1049851867+1043137741+1036128032+1031776778+1032416909
776+1037632502+1044744165+1051236700+1056163223+1059627347+1061963023
768+1063571808+1064868796+1066029803+1066978539+1067679766+1068238436
759+1068717305+1069073025+1069306171+1069551639+1069994310+1070630419
751+1071069196+1070881185+1070035168+1069210283+1068889802+1068697195
742+1067729242+1065255543+1061012818+1055360617+1049663410+1046189773
734+1046740974+1051013577+1056704528+1061452297+1064431615+1066176062
725+1067531144+1068950770+1070294234+1071069196+1071086688+1070344285
717+1069114521+1067721071+1066743095+1066867457+1068281336+1070367459
708+1072160234+1073090903+1073290214+1073271572+1073423769+1073706838
700+1073741823+1073263145+1072448666+1071624738+1070749609+1069466731
691+1067539444+1064891587+1061282161+1056475978+1051135448+1047208224
683+1046668515+1049660409+1054375300+1058845043+1062281013+1064780249
674+1066495584+1067403463+1067476178+1066505224+1063734474+1058384624
666+1049870828+1036178530+1015565773+992036964+976891525+979425107+997312504
656+1019359251+1035740264+1043690474+1045427707+1044702094+1045180963
647+1048741741+1054208229+1058934675+1061528140+1062296399+1061708873
639+1059521243+1055163477+1048344269+1039783232+1031765670+1027184397
630+1027430312+1031402352+1036559595+1040575622+1042072559+1040382887
622+1035094451+1025600063+1010563344+989075969+964862788+948231137+949400826
612+968906585+996726383+1021341058+1037928276+1047862208+1053657411+1056414947
602+1056706379+1055703889+1054622619+1053656645+1052271941+1050319500
594+1048288919+1046782087+1046063050+1045854035+1045549770+1044804686
585+1043693219+1042263826+1040371204+1038109711+1036046252+1034763820
577+1034249775+1033892267+1033120625+1031760626+1029748559+1027151647
568+1024466571+1022018344+1019168240+1015125911+1010314748+1006046040
560+1003178188+1001823041+1001853557+1002950787+1004447979+1005548274
551+1005619201+1004383947+1002082490+999034607+994810013+988831140+982443176
541+979138015+981455049+988230016+995913627+1001950914+1005904696+1008270505
531+1009759334+1011496312+1014555941+1018731186+1022297392+1023826951
523+1023737510+1022966953+1020998936+1016559645+1010518847+1006525483
514+1007497330+1012843414+1019624637+1025411988+1029674248+1032984899
506+1035916592+1038714347+1041161871+1042658106+1042815473+1041404019
497+1037619734+1030814316+1022324396+1015205201+1011484948+1010648571
489+1011425065+1013729778+1017851972+1023071205+1028345085+1033415505
480+1037963708+1040764080+1041014655+1039620821+1037984711+1036392014
472+1034324022+1031108877+1025475637+1016340608+1005486029+997981108+998159415
462+1005503202+1015423153+1023948440+1030510115+1036361434+1042000866
453+1046939710+1050522897+1052590442+1053701270+1054474764+1055161371
445+1055918138+1056654605+1056704464+1055580932+1053453057+1050176753
436+1045024744+1038039040+1030873113+1026276072+1027054609+1033940786
428+1044025127+1052857232+1057634368+1057740279+1053558011+1045747038
419+1035904973+1027607470+1023840038+1024912434+1030201892+1038189129
411+1046291344+1052217931+1054905050+1055205357+1055980319+1059383348
402+1064189786+1066593899+1062322829+1049965951+1035975453+1029480492
394+1032470535+1041914872+1053739766+1063556423+1068219411+1067913103
385+1065249542+1062053485+1058690165+1056269454+1056326463+1059085658
377+1063832725+1069022782+1071069196
##END=
