##TITLE=LL- 206
##JCAMP-DX=5.0
##DATA TYPE=LINK
##BLOCKS=1


$$ === CHEMSPECTRA SPECTRUM ORIG ===
##TITLE=LL- 206
##JCAMP-DX=5.00
##DATA TYPE=INFRARED SPECTRUM
##DATA CLASS=XYDATA
##ORIGIN=Marie
##OWNER=
##XUNITS=1/CM
##YUNITS=TRANSMITTANCE
##XFACTOR=1
##YFACTOR=8.8999874e-010
##FIRSTX=3997.453
##LASTX=373.96442
##MAXX=3997.453
##MAXY=0.955628869555303
##MINX=373.96442
##MINY=0.47589021789682756
##NPOINTS=2559
##XYDATA= (X++(Y..Y))
2559A015094319A015319545A015576582A016072306A016722667A017232120A017368675
2552A017034888A016312868A015576381A015282844A015451412A015605647A015414309
2545A015089966A014991853A015174417A015508873A015966758A016559591A017170573
2538A017630199A017897215A018046494A018066318A017798298A017185641A016434287
2531A015776358A015313115A015215471A015711128A016633461A017325679A017351530
2524A017138761A017401826A018047633A018246606A017491702A016290365A015548721
2517A015605244A016140483A016616115A016667080A016274359A015744145A015467887
2510A015591382A015967093A016412119A016903356A017431896A017783832A017726035
2503A017304047A016809261A016486860A016405489A016601180A017181221A018168249
2496A019255533A019860487A019496765A018194837A016667549A015748029A015649782
2489A016024488A016557984A017202920A017844575A018125454A017888776A017609639
2482A017629194A017545279A017002340A016584906A016955058A017564902A017568384
2475A017238951A017246318A017447300A017483330A017498332A017615063A017529474
2468A017325210A017481522A017860581A017953203A017783899A017874043A018433322
2461A019290090A020199029A020721140A019921967A017300766A014861325A014273783
2454A015049984A016541977A018266965A019555968A019820505A019170077A018198855
2447A017250336A016509429A016296125A016587049A016921706A017009506A017032812
2440A017229240A017500207A017731125A018103152A018600752A018622651A017882079
2433A017190530A016863707A016425581A016149055A016648663A017525188A018098331
2426A018269912A018222764A018060023A017976308A018083128A018176553A018155658
2419A018149229A017963316A017373028A016732579A016495700A016539232A016610958
2412A016848038A017390374A017835735A017639374A017039175A016862035A017350726
2405A017904247A017990975A017809348A017767089A017976777A018286052A018416714
2398A018289668A018185193A018217808A018201467A018216669A018529762A018965077
2391A019022874A018736570A018811645A019588315A020623160A021053453A020378446
2384A019670087A020268612A021457358A021381814A019291430A017314696A017390976
2377A019028298A021018493A022225121A021894080A020482988A019329537A019132238
2370A019700760A020412333A020548688A019845888A018899244A018484623A018706835
2363A019198272A019660041A020047271A020402087A020557327A020087789A018870513
2356A017655246A017162268A017338270A017949787A018798653A019547797A019815148
2349A019600638A019386596A019591730A020104331A020369070A019959739A018945521
2342A017769701A017023838A016984459A017410063A018060759A018858257A019710203
2335A020554849A021373576A021735224A020829968A019379162A019393963A020693011
2328A021443763A020784763A019944537A019883860A020184429A020238741A019989274
2321A019843142A020076873A020489217A020780075A021082317A021598601A022026416
2314A021695643A020319109A019012091A018986508A019913931A020817311A021033696
2307A020609297A020088258A019863501A019946010A020238341A020677541A021143529
2300A021304060A020683100A019527505A018859932A018900851A019303953A019804633
2293A020067631A019642897A018595662A017623904A017210622A017467458A018242721
2286A018898172A018685671A017701055A016975418A017188521A018066385A019067008
2279A019858746A020344089A020587263A020700780A020723818A020668634A020677541
2272A020888100A021090220A020760385A019817023A019046448A018951482A019197335
2265A019299064A019173091A019076384A019127684A019168068A019207447A019620461
2258A020583915A021537925A021466868A020066090A018624326A018330119A018826513
2251A019338913A019638544A019888749A020144313A020312345A020352729A020242493
2244A019968312A019704711A019655956A019678057A019420082A018931725A018695918
2237A018963001A019476740A019827537A019932415A020116520A020614521A021152370
2230A021251153A020775788A020035283A019458725A019229280A019203161A019160366
2223A019089711A019099891A019105985A018911299A018563113A018328914A018322351
2216A018422875A018522997A018665714A018969162A019465087A019942528A020050888
2209A019781461A019587712A019681403A019639012A019001510A017995931A017341752
2202A017482794A018282101A019240464A019799744A019672431A019073169A018513488
2195A018290405A018237029A018051651A017776197A017778809A018298308A019113217
2188A019751525A019968981A019936835A020040305A020499999A021053854A021094506
2181A020332704A019229615A018541950A018593853A019174832A019872542A020333106
2174A020433162A020335852A020265934A020281203A020373825A020591349A020831174
2167A020789384A020410726A020117390A020255888A020594161A020690467A020489954
2160A020247650A020083034A019924043A019767531A019762039A020028586A020494976
2153A020937190A021154848A021085398A020822334A020566167A020458678A020456133
2146A020469460A020535829A020674393A020733730A020580164A020287632A020045664
2139A020048611A020421910A021063766A021681579A022130356A022510353A022837777
2132A022924840A022720041A022459990A022318479A022150782A021758530A021282094
2125A021128126A021470217A021986970A022208512A022009740A021605767A021232669
2118A021065909A021246666A021682182A022067269A022335153A022756071A023394177
2111A023861103A023790514A023245567A022618847A022361073A022709660A023444674
2104A023984733A023908854A023392034A023037888A023228289A023719592A024015473
2097A024023241A024073269A024345710A024566716A024391585A023937652A023714435
2090A024003083A024569998A025075700A025464604A025808035A026062125A026154814
2083A026095075A025822367A025130550A023954863A022620722A021487362A020413539
2076A018993205A017300766A015903872A015140931A014900771A015074563A015681325
2069A016569369A017468998A018335209A019297122A020329490A021263342A021971499
2062A022238247A021688410A020233921A018395484A016798680A015512021A014082443
2055A012026819A009194255A005798191A002112945I98143404I93745981I88992739
2048I84177011I79498844I74937408I70435308I66147786I62428585I59388677I56576539
2040I53346298I49379971I44638449I39170753I33223942I27215518I21426626I15980562
2032I11100408I07061284I03866939I01203746H98759818H96510778H94658946H93344360
2024H92566552H92448414H93344427H95475866H98616834I02346683I06473340I11088621
2016I16331895I22135922I28126934I33853007I39137937I44080173I48752314I53102119
2008I57054248I60502013I63332501I65612348I67565240I69294179I70760991I72053677
2000I73377639I74764889I76026299I77012456I77752894I78345794I78832878I79204102
1992I79471787I79710675I80023231I80496319I81190881I82076514I82925647I83401078
1984I83356341I82927790I82295846I81560096I80866873I80393718I80133869I79905562
1976I79594278I79233234I78885451I78573095I78232478I77700455I76902355I76057575
1968I75482490I75223510I75103029I75034717I75058827I75154931I75256795I75365088
1960I75500907I75648110I75815339I75998975I76084296I75975334I75807771I75841725
1952I76170020I76640496I76998526I77075074I76944346I76888893I77115123I77562427
1944I78054400I78538203I79086098I79713957I80312549I80807067I81260733I81711452
1936I82035996I82163443I82288611I82678120I83372883I84188330I84910819I85491865
1928I86122403I87017813I88091703I88975527I89314537I88906546I87720077I85922760
1920I83711224I81080579I77986357I74685929I71735696I69692459I68844733I69085898
1912I70049954I71492857I73429341I75845744I78554678I81423876I84410607I87255495
1904I89442252I90598785I90733465I90025843I88592181I86545864I84137766I81673747
1896I79273551I76806049I74085663I71018564I67575286I63880797I60443346I58060697
1888I57300435I58070877I59687772I61345319I62635862I63700376I64921201I66584307
1880I68762224I71221555I73403356I74717540I74884701I73953930I72154001I69760770
1872I66942672I63848517I61001353I59298466I59347088I60995527I63610835I66628776
1864I69809124I73082361I76220986I78777426I80398942I81084397I81124711I80950654
1856I81028408I81728663I83190921I85226454I87335057I89006535I90119402I90897813
1848I91466871I91666513I91283101I90229570I88472503I86034134I83174112I80439192
1840I78393143I77345037I77350462I78292015I79874220I81729400I83611771I85374665
1832I86864247I88041407I89077659I90143177I91219076I92207309I93061197I93753817
1824I94268494I94680905I95155198I95789955I96464225I96913336I97023907I96982652
1816I97057861I97332780I97732734I98189413I98631560I98915587I98931124I98708711
1808I98259801I97404372I95941378I93913611I91557148I89118042I86849781I85066193
1800I84052980I83948839I84706087I86131712I87969747I89952174I91820481I93397126
1792I94661818I95732627I96780465I97921460I99093195A000083503A000758846
1785A001207958A001632826A002172215A002773685A003150335A002971119A002171947
1778A000968065I99548937I97926081I96119522I94379801I93168619I92875685
1771I93511246I94707761I96038620I97284560I98450804I99668414A001029143
1764A002398981A003483050A004170112A004651502A005097401A005441032A005622726
1757A005802277A006120526A006454446A006628572A006718984A006930413A007271366
1750A007569256A007786712A008111458A008641672A009145031A009316344A009199612
1743A009132574A009316478A009660310A010033342A010421174A010819656A011173665
1736A011442157A011613671A011677160A011654055A011624587A011677897A011864413
1729A012184068A012576187A012924908A013108410A013085372A012971319A012973127
1722A013168216A013408443A013521692A013517071A013473071A013345557A013049207
1715A012680060A012511291A012737120A013264052A013788306A014048892A013979242
1708A013651014A013156362A012564869A011965741A011518035A011366077A011434723
1701A011447916A011286046A011167305A011323751A011666712A011946185A012084347
1694A012204963A012469166A012959599A013589400A014067577A014120753A013811612
1687A013487603A013348704A013288497A013227017A013304436A013588797A013897001
1680A014088272A014281485A014626723A015066861A015431923A015627212A015688290
1673A015712199A015746288A015758811A015743475A015773612A015900322A016077998
1666A016219442A016271211A016243418A016194127A016170151A016176714A016223795
1659A016342871A016544120A016813882A017138360A017470338A017716726A017817184
1652A017786578A017662613A017484000A017322598A017257098A017299292A017386690
1645A017449376A017468597A017483397A017547020A017644531A017657523A017485138
1638A017223614A017117933A017266677A017475629A017503757A017355080A017226159
1631A017241496A017351396A017462971A017567380A017667703A017635624A017320924
1624A016838595A016524766A016530389A016681278A016796469A016885006A016965506
1617A016939923A016746977A016492552A016339320A016337714A016429264A016581022
1610A016810935A017040648A017058864A016761912A016377964A016297263A016619062
1603A016993031A017059601A016945749A017064021A017509181A018022854A018497012
1596A019055422A019625149A019869395A019645910A019225931A018994411A019125273
1589A019551146A020109957A020669638A021121563A021329175A021253631A021127724
1582A021279884A021741787A022220835A022435880A022326382A022048584A021877337
1575A021957301A022129151A022178777A022130155A022078051A021931450A021571612
1568A021102409A020791527A020839210A021234008A021774603A022211258A022381433
1561A022282850A022063852A021850147A021570674A021151298A020806662A020828026
1554A021185989A021649969A022132834A022644631A023075459A023256751A023131381
1547A022803220A022503187A022451284A022634585A022826191A022890819A022929729
1540A023087313A023369733A023672645A023854875A023831502A023693138A023629448
1533A023712224A023904233A024213575A024608171A024908807A024979663A024862998
1526A024616878A024269764A023989555A023988950A024210494A024380334A024419512
1519A024566984A024965733A025338698A025320749A024972564A024641791A024409534
1512A024038645A023465971A023019069A023077468A023678405A024505236A025195446
1505A025615023A025842860A025973522A026007007A025881369A025594596A025339836
1498A025443374A026016852A026738337A027156575A027163605A026997517A026834308
1491A026592942A026190309A025829935A025899786A026562135A027520700A028278617
1484A028609457A028688617A028771662A028837361A028601688A027933513A027223614
1477A027110432A027734205A028526747A028888394A028781440A028565792A028577713
1470A028966349A029648187A030355206A030858765A031092563A031059412A030829298
1463A030605412A030538172A030525649A030436175A030415279A030675464A031051778
1456A031082785A030634946A030192867A030318438A030951923A031486624A031472895
1449A031012867A030491560A030166145A030043318A029986929A029887878A029758623
1442A029637739A029457050A029126411A028672209A028098330A027261587A026161846
1435A025195312A024802054A024984083A025366021A025541823A025272396A024638577
1428A024085123A024046414A024483269A024967340A025169527A025122513A025080187
1421A025258265A025704631A026334298A027056319A027870894A028804746A029710068
1414A030271090A030409989A030483590A030727367A030857024A030700311A030680487
1407A031155316A032032711A033274900A034744324A035628818A035144814A033661527
1400A032224383A031197575A030169427A029061381A028430978A028718152A029793917
1393A030948909A031210299A030304374A028998696A027941348A027040915A026098759
1386A025372451A025311574A026027166A027111905A027803789A027603677A026906570
1379A026597161A027026114A027671520A027765481A027222140A026838795A027392248
1372A028656806A029671359A029909175A029682677A029359070A028922147A028488305
1365A028495203A029144761A030091137A030794741A031000812A030820659A030442403
1358A029961413A029587510A029676784A030263589A030853475A030946297A030546142
1351A030018473A029703907A029735584A030006016A030301160A030566568A030921853
1344A031339956A031545960A031413625A031265149A031525133A032215811A033039897
1337A033774508A034314701A034595982A034714857A034823819A034830583A034591495
1330A034272978A034121287A034181227A034544950A035289406A035941107A035696191
1323A034412949A032911914A032234161A032853917A034375779A035774548A036212007
1316A035754323A035081258A034579842A034126578A033690325A033566963A033762855
1309A033672711A032850501A031868496A031870505A033151471A034558143A034733876
1302A033795336A033145578A033658446A034772318A035437882A035329656A034917312
1295A034653310A034355755A033572254A032421548A031608178A031630881A032424428
1288A033589801A034515281A034574885A033668425A032478273A031944978A032410631
1281A033373683A034285301A035232078A036180731A036240671A034927023A033515998
1274A033710416A035434868A037091143A037704737A037726637A037600194A036710342
1267A034600670A032393085A031684659A032406211A033134327A033324861A034113853
1260A036514651A039453098A040633472A039205771A036863841A035968096A037105877
1253A039096273A040654635A041195967A040702989A039676581A038842785A038452877
1246A038172601A037800506A037630398A037918577A038350946A038271652A037405173
1239A036251788A035546175A035330861A035026609A034462173A034102669A034101798
1232A033984531A033534281A033156762A033155758A033388015A033704791A034061682
1225A034238755A034061548A033798082A033789711A033812481A033330888A032362680
1218A031643472A031811637A032723188A033696017A034217659A034298561A034249471
1211A034174061A033781406A032814202A031470819A030218450A029434145A029283727
1204A029554426A029701362A029538686A029607066A030430616A031905331A033636547
1197A035220760A036224396A036608680A036970527A037749540A038621578A039094063
1190A039190368A039269261A039412714A039162374A037999345A036158028A034664628
1183A034398081A035252638A036419887A037386890A038382556A039730360A041068185
1176A041929172A042880436A044738296A046635802A046390552A043380781A039858611
1169A038626132A039959671A041635434A041979200A041702071A042221704A043558189
1162A044663689A044813304A044167832A043354395A042655747A041834139A040914351
1155A040574470A041345715A042964620A044740774A046023347A046380640A045854512
1148A044911953A043860432A042511892A040614586A038525273A037197427A037139497
1141A037629193A037548559A036681210A035814999A035853709A037248995A040221396
1134A044688134A049344067A051880550A051570739A050471801A050770093A052193642
1127A052948812A052313990A051409738A051451262A052136850A052254050A051197640
1120A049387130A047603274A046467971A046197942A046307307A045985106A045067662
1113A044137360A043631657A043423844A043192859A042679656A041705553A040452917
1106A039453031A038856648A038084131A036687103A035211987A034458690A034306397
1099A034130462A033746715A033201231A032444988A031824295A031996345A032953570
1092A034105549A035252170A036555303A037810552A038576640A038791350A038819077
1085A039044772A039593336A040368064A041105421A041441284A041307608A041213513
1078A041727052A042762767A043710416A044136690A044140306A044077353A044114991
1071A044149080A044069584A043953322A043925394A044022704A044182298A044223485
1064A044001809A043667621A043548880A043753813A044152763A044660207A045218683
1057A045566935A045370843A044711172A043975891A043334169A042770871A042268785
1050A041721426A040997195A040260775A039848364A039704174A039413785A038867163
1043A038400773A038228991A038109312A037530008A036121729A034246725A032811858
1036A032257333A032414315A032919884A033512850A034158992A034953141A035908291
1029A036843214A037564163A038160814A038781238A039322101A039680332A040042917
1022A040579761A041124709A041414830A041503098A041673608A042008399A042248693
1015A042066598A041422197A040553106A039658500A038767107A037845712A036947958
1008A036253462A035943518A036037077A036400398A036853662A037255090A037602404
1001A038073547A038798450A039695133A040571055A041275529A041838358A042390405
994A042939639A043352519A043543790A043549282A043402413A043078338A042659497
987A042434473A042565737A042952632A043440252A043882734A044111776A044034089
980A043827549A043745308A043737740A043661125A043616120A043769819A044024847
973A044079295A043828018A043510104A043224604A042847888A042423355A042160492
966A042076911A041994201A041913634A041966944A042042287A041820142A041330580
959A040896470A040548485A040291381A040297476A040645728A041185653A041709304
952A042106044A042197125A041514752A039791170A037873037A036677727A036187763
945A036113692A036259222A036441719A036458194A036269334A036107397A036194996
938A036628637A037505161A038704355A039847694A040723616A041414294A042064254
931A042670012A043219715A043873826A044788859A045723448A045934744A045205222
924A044473423A044243108A044421989A044788792A045061501A045101684A045094518
917A045204820A045325168A045306014A045240315A045239511A045214330A045047504
910A044849268A044856367A045111261A045539812A046088376A046562401A046494827
903A046107530A046101168A046296189A046212475A045778767A045534119A045713938
896A046106124A046504538A046775706A046743359A046209997A045438484A045004843
889A044881280A044684317A044137427A043295727A042470034A041788665A041122566
882A040472138A040000323A039703370A039482029A039439234A039762707A040361099
875A041094639A041953750A042915864A043871884A044706484A045336888A045728672
868A045987115A046319294A046812005A047362980A047836804A048185123A048452206
861A048712123A048951413A048939492A048200862A046094538A041914438A035210112
854A026673777A018665177A014032016A014834067A021628404A030980118A037834126
847A041641194A043900950A045294495A046061454A046624886A047242297A047893328
840A048518776A049096339A049530583A049690511A049788290A049990678A050214631
833A050370206A050393445A050269615A050117120A050133662A050452179A051090486
826A051934127A052739862A053258892A053564819A053880657A054218863A054496126
819A054663488A054777273A054942625A055225513A055627343A056070025A056445133
812A056668685A056763650A056934428A057280403A057669441A058020239A058375389
805A058727526A059026018A059299061A059603648A059839120A059883790A059952235
798A060171768A060479436A060820790A061197974A061616011A062028087A062415853
791A062807235A063144303A063218039A062770133A061674410A059806639A056738670
784A051684993A044113116A034868355A026185822A020331766A018686274A021473499
777A027532621A034318184A039638676A043397792A046422029A049258410A051916045
770A054062886A055602162A056687370A057202046A056344810A053312804A048366750
763A041069524A029518731A010656044I81010527I41172333I00449109H70706350
756H57680440H61174750H76805856H98768859I23656178I48654602I68838438
749I82711606I93026304A001718817A008715073A013712762A017334385A020384674
742A023123277A025339836A026779793A027330232A027060337A026183946A024752763
735A022692315A020160452A017728178A016177384A016071033A017543806A020311072
728A023709814A027156441A030536096A033794667A036595151A038758535A040565161
721A042270459A043806520A045071680A046113893A047041851A047932507A048805013
714A049646243A050423047A051112385A051790607A052604915A053608149A054692219
707A055681858A056473998A057106545A057687725A058303930A058943710A059472049
700A059722188A059678857A059566412A059586637A059663119A059604586A059393424
693A059288614A059559045A060140961A060746653A061246931A061739373A062302336
686A062892289A063443666A063946355A064448106A064999751A065575171A066121794
679A066658571A067208944A067703194A068047897A068257585A068436466A068626063
672A068731476A068635171A068325360A067833186A067074331A065777828A063539034
665A060036553A055413503A050386346A045730882A041857780A039139403A038303195
658A040042247A044220806A049697878A055038194A059364426A062577991A064975776
651A066796801A068072944A068834479A069330068A069884392A070612575A071431637
644A072220362A072817414A073079474A073102445A073177051A073430070A073687844
637A073741823A073583569A073319634A072975735A072488182A071836883A071065035
630A070210008A069351232A068686672A068378469A068296697A068028475A067149741
623A065390866A062475860A057774654A050164804A038471897A022407351A003334775
616I84057802I67348185I54012130I42187623I28980889I13345832H97405449
609H84539469H75909039H68951024H59372946H44633835H25711343H05899200
602G88163444G73473491G61185340G50559892G41766655G35688713G33067981
595G33824224G37001088G41315802G45879180G50515758G55496436G61029698
588G66928155G72659049G77758803G82277578G86852542G92399532G99678140
581H08932076H19768618H31402188H43059936H54198385H64454082H73526591
574H81148161H87164220H91654265H94972238H97599602H99877373I01837833
567I03331702I04358377I05202955I06168887I07285438I08418731I09569504
560I10812562I11906411I12143692I10703802I07112986I01420198H94160007
553H86214898H78446393H71211584H64292881H57416840H50756179H44783852
546H39679477H35055891H30362856H25552018H21316398H18631440H17943507
539H18701827H19700909H19910263H19015924H17349871H15510898H14034710
532H13258978H13385085H14537800H16694018H19674991H23350259H27769180
525H32939588H38537008H43978518H48713813H52231429H53879399H53111570
518H50117069H45992287H42082887H39147923H37043341H34910161H31515839
511H25605997H16358022H03898825G89477293G75052547G62701711G54263489
504G50979871G53027796G59484462G68959136G80175071G91878158H02299878
497H08831217H08715356H01181184G89456465G79739086G77080046G82236056
490G92533543H04892081H17519845H29673316H41002635H51300792H60481192
483H68599959H75839322H82382247H88257733H93329560H97440411I00482998
476I02251651I02267456H99882463H94647762H86648605H76587998H65656222
469H55350364H47245393H42535481H41387789H42652346H44517372H45873815
462H47177350H49778460H54295561H59781875H64448791H66921247H66824676
455H64495805H60277733H54104759H45804164H35659841H24394949H12554235
448H00041328G86336191G71369377G56560749G45038820G40136164G42580293
441G48705114G52131515G48278036G37494536G23724102G10665778F99569721
434F89847453F80724648F72311943F65654831F61996306F61984653F65518544
427F72129847F81317213F92565898G05178057G18104582G29932102G39097568
420G44191161G44239581G39120004G30053455G19574341G10696317G05912468
413G06610915G12658449G22099840G31791770G39138488G43369888G45086906
406G45050674G43864406G42387080G41552546G41530379G41655348G41729619
399G43189868G48353714G58294510G71738055G86149273G99606146H11544036
392H22193994H31835562H40571673H48445189H55530183H61952760H67862937
385H73326012H78292492H82800217H87103745H91404595H95567282H99335640
378I02735119I06050079I09505546I13132059I16834316I20461766I23878390
371I27015607I29828750I32248233I34179359I35430188I35738458I35219428
364I34797641I35713947I38397097I42097546I45754062I48948272I51874396
357I54674211I57194821I59373943I61451938I63605276I65684075I67487285
350I68949744I69964699I70409190I70300495I69341930I66299343I59651072
343I49520143I38796047I31684399I30735813I35327788I42923306I51205818
336I58820691I65027686I69610888I72972796I75757207I78358116I80865265
329I83204785I85215004I86818438I88141596I89276162I90085447I90533889
322I90956949I91653587I92493813I93267000I94094301I95146425I96228954
315I96972673I97305723I97544946I98030557I98695116I99039015I98664242
308I97817185I97166489I96973008I96749658I95916799I94571942I93436773
301I93223938I94161205I95960130I98161419A000489084A002832220A005059830
294A007105544A009128087A011372573A013858894A016232167A017959030A018803408
287A019060511A019113955A018767779A017141306A013195741A006180666I95332070
280I79190975I55493608I21787201H76988957H24532710G74400378G38934224
273G24839045G31160696G54677843G92724613H39749864H86243897I24261467
266I51871784I71319468I85253245I95359059A002690240A008080919A012315801
259A015993480A019286943A022073162A024319859A026230492A028067590A029920694
252A031659009A033126892A034327560A035272730A035661031A034859783A032096401
245A026330279A015970241I99535945I77180153I50363182I18038800H74879485
238H18748640G60951006G23475035G22062001G53020362G97315784H34900852
231H53106815H45630038H11501308G58711676G04417997F64975538F45966920
224F45231907F62249861F97784124G45828282G93868220H32192051H59214759
217H78387391H92950902I04151702I12371261I18121042I22040220I24728393
210I26440991I26625230I25199739I24084461I24522322I26707337I30597584
203I35595005I40605151I44811771I48079718I50634818I52637671I54180027
196I55415787I56534146I57641455I58591782I59174703I59760035I61239839
189I63827488I66512447I68212990I68798790I68582405I67620291I65977745
182I63979781I61767174I59209729I56641837I54929172I54114194I52651267
175I48648575I41008990I28864961I11965547H93476696H80082308H76345627
168H79833642H84174742H86089728H86678074H87238090H86941607H83655377
161H74768580H57767503H31375868G96422584G55938851G14282445F75253001
154F40698264F10700008E84643633E62378320E45049718E35049250E34708867
147E43975661E59191007E75560810E90722512F04973132F19155307F33492052
140F47675232F60975391F72316765F80387714F83459500F79290384F66152966
133F44818826F19185109E94201285E73619102E60075501E55821264E61527680
126E74597691E90189953F04610012F17252108F29168098F40893219F52212290
119F62871289F72710558F81559449F89119338F94853782F98658438G01572038
112G04746559G07864958G09505762G08771419G06184507G03335267G01471313
105G00243589F97860941F92486670F83619763F71919556F58216630F43771591
98F31014371F22867208F21453772F27723051F41250579F59948382F80642675
91G00480401G18275962G34197122G48354317G60608379G71247823G80908410
84G89733527G96937461H01693182H04637455H07872987H12972607H19454320
77H25927059H31789552H37067248H41745953H45864372H49482044H52185688
70H53353672H53150547H52117176H49929347H45543511H38081802H27351210
63H14740657H03830916G98768130H00923611H07337951H14837029H23180687
56H32569905H41844200H49407170H53731928H53673596H49973013H45414188
49H42865115H43323603H45449215H47201728H48243672H50164551H53562356
42H57097117H60345173H64476317H69526043H73500740H74555074H72944407
35H70330506H67436930H63670782H60503762H61921082H68887602H78916064
28H88228734H93745922H94688346H92302081H88640877H85093458H81864289
21H79488672H80119343H86914684I01080116I17813173I30935589I40006960
14I46881261I52095938I55036728I54574155I49293779I39487730I30344163
7I27738432I30738356I34385364I33247315I18741065H82156952H33803991
##END=


$$ === CHEMSPECTRA PEAK TABLE EDIT ===
##TITLE=LL- 206
##JCAMP-DX=5.00
##DATA TYPE=INFRAREDPEAKTABLE
##DATA CLASS=PEAKTABLE
##$CSTHRESHOLD=0.93
##MAXX=3997.453
##MAXY=0.955628869555303
##MINX=373.96442
##MINY=0.47589021789682756
##$CSSOLVENTNAME=- - -
##$CSSOLVENTVALUE=0
##$CSSOLVENTX=0
##NPOINTS=24
##PEAKTABLE= (XY..XY)
458.9563335261919, 0.7109026292521562
508.5349497498041, 0.5530930740482473
553.8639702971068, 0.49468022462520733
582.1946081391711, 0.47589021789682756
665.76998977326, 0.8224340059435792
689.8510319390148, 0.5742555842377972
705.4328827521499, 0.6426342710918788
759.2610946520717, 0.6451058367528033
854.1687314229866, 0.8283537008428756
941.9937087333851, 0.6599611029817225
958.9920914386234, 0.6282612070702903
980.2400698201718, 0.5891655070693372
1000.0715163096165, 0.6587202533884333
1032.6517498279904, 0.7488340720613859
1069.481579022674, 0.691600261819142
1086.4799617279123, 0.6683711389553625
1126.1428547068022, 0.7237994657136877
1216.800895801407, 0.652429579424344
1443.4459985379199, 0.7633345109226456
3020.045994448788, 0.8537744260239328
3046.960100398749, 0.8519961809514519
3083.789929593432, 0.8622705916256365
3156.033056090696, 0.8677796695862566
3238.1919058326816, 0.7942779639749984
##END=


$$ === CHEMSPECTRA PEAK TABLE AUTO ===
##TITLE=LL- 206
##JCAMP-DX=5.00
##DATA TYPE=INFRAREDPEAKTABLE
##DATA CLASS=PEAKTABLE
##$CSTHRESHOLD=0.93
##MAXX=3997.453
##MAXY=0.955628869555303
##MINX=373.96442
##MINY=0.47589021789682756
##NPOINTS=39
##PEAKTABLE= (XY..XY)
3238.1919058326816, 0.7942779639749984
3156.033056090696, 0.8677796695862566
3140.4512052775603, 0.8684676866722085
3130.535482032838, 0.8694298838899949
3083.789929593432, 0.8622705916256365
3046.960100398749, 0.8519961809514519
3020.045994448788, 0.8537744260239328
3003.0476117435496, 0.8730448460621759
2977.5500376856917, 0.8698358514752533
2946.3863360594214, 0.8873133040818585
2920.888762001564, 0.8757132269344629
2882.6424009147768, 0.8836581086266369
1443.4459985379199, 0.7633345109226456
1216.800895801407, 0.652429579424344
1137.4751098436277, 0.7279686906211812
1126.1428547068022, 0.7237994657136877
1086.4799617279123, 0.6683711389553625
1069.481579022674, 0.691600261819142
1032.6517498279904, 0.7488340720613859
1000.0715163096165, 0.6587202533884333
980.2400698201718, 0.5891655070693372
958.9920914386234, 0.6282612070702903
941.9937087333851, 0.6599611029817225
888.1654968334633, 0.8319687226449723
854.1687314229866, 0.8283537008428756
798.9239876309616, 0.8839680533578381
759.2610946520717, 0.6451058367528033
705.4328827521499, 0.6426342710918788
689.8510319390148, 0.5742555842377972
665.76998977326, 0.8224340059435792
611.9417778733382, 0.77994650383451
582.1946081391711, 0.47589021789682756
553.8639702971068, 0.49468022462520733
508.5349497498041, 0.5530930740482473
458.9563335261919, 0.7109026292521562
441.95795082095356, 0.7501488903399551
417.87690865519926, 0.7658472639452599
402.29505784206367, 0.7827438099242733
382.46361135261895, 0.8256860355295756
##END=

##END=

