##TITLE=S. Grosjean sgr_SML757-F1
##JCAMP-DX=4.24
##DATA TYPE=INFRARED SPECTRUM
##DATE=22/3/2017
##SAMPLING PROCEDURE=Diamant ATR
##ORIGIN=Angelika Moesle
##XUNITS=1/CM
##YUNITS=TRANSMITTANCE
##RESOLUTION=4
##FIRSTX=3997.4121
##LASTX=373.82813
##DELTAX=-1.4160156
##MAXY=0.96011597
##MINY=0.53520554
##XFACTOR=1
##YFACTOR=8.9417768e-010
##NPOINTS=2560
##FIRSTY=0.91920853
##XYDATA=(X++(Y..Y))
3997+1027993150+1028077873+1028160263+1028156063+1028183593+1028339908
3989+1028566414+1028749125+1028866444+1028892308+1028673134+1028194592
3980+1027890095+1028272182+1029213069+1029976577+1030057234+1029692744
3972+1029424710+1029448307+1029603355+1029769535+1029958712+1030095962
3963+1030023104+1029775468+1029593556+1029573425+1029586090+1029593490
3955+1029738805+1030097629+1030596168+1031067778+1031207628+1030754616
3946+1029949580+1029427310+1029458772+1029691544+1029692878+1029467438
3938+1029304524+1029326588+1029440241+1029562827+1029649149+1029574958
3929+1029254264+1028857845+1028696198+1028940102+1029457239+1029844593
3921+1029859191+1029763536+1029918717+1030232146+1030355398+1030227746
3912+1029989242+1029643950+1029185539+1028801785+1028781588+1029287327
3904+1030114893+1030613633+1030307870+1029668014+1029554028+1030105094
3895+1030755549+1031031183+1030861336+1030421590+1030052834+1030069099
3887+1030366863+1030467851+1030070699+1029551295+1029423843+1029563427
3878+1029587424+1029513966+1029533230+1029583424+1029602089+1029761669
3870+1030167487+1030631298+1031033049+1031467197+1031789224+1031611312
3861+1030987654+1030579837+1030834206+1031630310+1032581262+1033141728
3853+1032681850+1031375808+1030594102+1030720020+1031154301+1031567584
3844+1031812755+1031664773+1031051313+1030287006+1029775868+1029663681
3836+1029876122+1030245877+1030558240+1030624698+1030455919+1030355331
3827+1030601035+1031086576+1031509258+1031798423+1032074123+1032280898
3819+1032192842+1031735231+1030880601+1029667347+1028690132+1028621940
3810+1029293659+1030012039+1030221480+1029900386+1029669680+1030130091
3802+1031199962+1032363288+1033043806+1032960549+1032148448+1030864069
3794+1029808797+1029658148+1030308736+1031160034+1031813421+1032170378
3785+1032111785+1031596314+1030969390+1030665493+1030829074+1031489794
3777+1032551132+1033485019+1033708392+1033252847+1032664652+1032331425
3768+1032184510+1032088388+1032103986+1032248036+1032380686+1032344757
3760+1032029729+1031451798+1030952059+1030964457+1031516524+1032259301
3751+1032718379+1032529602+1031905210+1031390272+1030965390+1030117693
3743+1028955300+1028765923+1030128358+1032231504+1033910968+1034388444
3734+1033953763+1033665331+1033874639+1034091879+1034010156+1033695327
3726+1033221918+1032602259+1031995066+1031676571+1031729898+1031934807
3717+1032010331+1031910876+1031833552+1031972402+1032278232+1032412416
3709+1032111252+1031587782+1031286552+1031427735+1031855750+1032209374
3700+1032319760+1032401617+1032685449+1033138528+1033586674+1033829578
3692+1033708992+1033242649+1032687316+1032378686+1032397218+1032535734
3683+1032609858+1032648987+1032896291+1033556211+1034431905+1034927778
3675+1034612350+1033995824+1033907502+1034225330+1034336450+1034088013
3666+1033935098+1034092346+1034247127+1034001557+1033333838+1032699181
3658+1032558598+1032911289+1033381099+1033657265+1033651866+1033266579
3649+1032421881+1031531522+1031401404+1032103186+1032955683+1033323639
3641+1033034007+1032437079+1032056592+1032144581+1032628656+1033274245
3632+1033779451+1033908835+1033625736+1033161059+1032875693+1032756107
3624+1032533601+1032257101+1032225438+1032548866+1032986680+1033310441
3615+1033499284+1033452090+1033099733+1032812634+1033069470+1033676996
3607+1033938298+1033667997+1033358301+1033315907+1033394297+1033429359
3598+1033506883+1033777584+1034216531+1034633947+1034895116+1035106557
3590+1035378324+1035511975+1035228875+1034710871+1034398376+1034292989
3581+1034133674+1033822645+1033420094+1033029808+1032779638+1032741243
3573+1032870360+1033078469+1033265646+1033254647+1032892958+1032393485
3564+1032291230+1032703381+1033152926+1033212919+1032929020+1032620057
3556+1032452611+1032376153+1032275566+1032057992+1031836285+1031985534
3547+1032734443+1033786650+1034529960+1034628215+1034251127+1033748454
3539+1033317240+1032918821+1032405150+1031766427+1031246557+1031127704
3530+1031389006+1031644108+1031514791+1031066445+1030749750+1030955458
3522+1031692236+1032570997+1033131862+1033279111+1033299775+1033436892
3513+1033629602+1033687995+1033489152+1033020876+1032481807+1032257968
3505+1032542533+1033041073+1033254514+1033089667+1032938952+1033034807
3496+1033128529+1032947618+1032640988+1032519336+1032604726+1032672251
3488+1032556465+1032292497+1032062658+1032049726+1032310361+1032773639
3479+1033293776+1033689661+1033839243+1033809114+1033811447+1033942831
3471+1034012289+1033753987+1033190322+1032643454+1032360089+1032307028
3462+1032376220+1032544066+1032791103+1033089667+1033426693+1033671730
3454+1033624069+1033387631+1033397163+1033854508+1034388910+1034464301
3445+1033972761+1033299042+1032867227+1032795569+1032919154+1032974948
3437+1032779838+1032337425+1031812355+1031413536+1031311282+1031585316
3428+1032141448+1032730777+1033129796+1033256914+1033154459+1032971015
3420+1032877360+1032887158+1032890025+1032903756+1033077535+1033437892
3411+1033861441+1034285589+1034709005+1034971507+1034746200+1033892504
3403+1032759974+1031977268+1031871014+1032215306+1032602459+1032881159
3394+1033158659+1033502484+1033785650+1033844176+1033707459+1033577808
3386+1033612871+1033849709+1034270525+1034760465+1035077960+1035090226
3377+1034963041+1034964641+1035133487+1035226942+1034971507+1034361980
3369+1033705260+1033324839+1033280377+1033430693+1033569276+1033411695
3360+1032763640+1031888612+1031393339+1031536388+1031897145+1031953538
3352+1031764761+1031814221+1032326826+1033043273+1033602339+1033895037
3343+1034069549+1034339050+1034735868+1035012835+1034942577+1034660144
3335+1034500230+1034588886+1034783196+1034869519+1034666677+1034101012
3326+1033321972+1032678784+1032498339+1032802769+1033259180+1033527214
3318+1033613004+1033736256+1033976827+1034216198+1034254926+1033904035
3309+1033159125+1032338891+1031888412+1032017663+1032529802+1032963016
3301+1032972348+1032641988+1032331692+1032258101+1032382353+1032624657
3292+1033001678+1033537746+1034121276+1034566755+1034839922+1035047297
3284+1035157017+1035013901+1034685741+1034446637+1034378512+1034349048
3275+1034363380+1034585287+1034987171+1035270937+1035188414+1034763198
3267+1034188801+1033687262+1033461956+1033566010+1033803248+1033951430
3258+1034040552+1034192867+1034313186+1034225530+1034019155+1033980293
3250+1034182135+1034397843+1034458369+1034450303+1034441437+1034308387
3241+1034028754+1033838843+1033879972+1033996824+1034067549+1034242995
3233+1034702872+1035324064+1035701152+1035534772+1035002170+1034580820
3224+1034494298+1034560823+1034528027+1034267725+1033757187+1033156726
3216+1032817967+1033006544+1033650066+1034372179+1034754999+1034666077
3207+1034353048+1034168137+1034241995+1034439504+1034488498+1034188668
3199+1033634535+1033136528+1032815167+1032495206+1032123984+1032004532
3190+1032423881+1033227917+1033944231+1034260392+1034257526+1034198467
3182+1034218931+1034280990+1034290256+1034170670+1033930232+1033708059
3173+1033668664+1033835977+1034071615+1034170337+1033997024+1033649066
3165+1033422027+1033490085+1033734856+1033971961+1034131141+1034193667
3156+1034201800+1034311120+1034560023+1034694873+1034483832+1034075881
3148+1033821979+1033858108+1034027754+1034112077+1034011156+1033741922
3139+1033374366+1033018876+1032836698+1032950017+1033307174+1033690795
3131+1033869773+1033743522+1033409029+1033125396+1033123996+1033410895
3122+1033788916+1034022488+1033939365+1033504284+1032897824+1032410949
3114+1032157047+1032000732+1031842951+1031816088+1032075256+1032532668
3105+1032934286+1033118664+1033084868+1032904223+1032709113+1032681517
3097+1032919154+1033346703+1033783517+1034017488+1033865840+1033363567
3088+1032851096+1032691582+1032870560+1032983613+1032655120+1031945405
3080+1031303816+1031065778+1031063179+1030843405+1030188351+1029299458
3071+1028566280+1028244386+1028300112+1028555682+1028947568+1029468905
3063+1029919250+1030015972+1029770935+1029483969+1029371916+1029421510
3054+1029523831+1029571692+1029489302+1029325322+1029308191+1029722274
3046+1030639363+1031776226+1032712779+1033265646+1033537613+1033649600
3037+1033626602+1033540413+1033543412+1033697660+1033921833+1034112877
3029+1034212665+1034187135+1034072348+1034002557+1034040219+1034050551
3020+1033898370+1033691794+1033645067+1033775384+1033877172+1033755053
3012+1033407895+1033039340+1032851429+1032748575+1032341358+1031325347
3003+1029686278+1027459481+1024481107+1020460926+1015145302+1008500371
2995+1001080734+994266957+989844158+989079784+991951970+996969297+1001776650
2985+1004281614+1003321997+998597634+990871301+982516643+976816798+975823585
2975+979097456+984711845+990952891+996858977+1001890369+1005745837+1008379519
2965+1009926999+1010607516+1010655577+1010236295+1009423060+1008281531
2957+1006938293+1005611120+1004650236+1004416664+1004939468+1005799164
2948+1006560805+1007218259+1008027228+1009018108+1009833810+1009859407
2940+1008431113+1005296225+1001135727+997340986+994949675+993860140+993165823
2930+992078421+990398758+988335607+986208397+984367020+983159099+982771346
2920+983112771+983966535+985242181+986960706+989006859+991059478+992835197
2910+994317418+995725181+997315255+999214759+1001370832+1003602029+1005696043
2900+1007486960+1008885458+1009896202+1010630447+1011248839+1011820903
2892+1012278048+1012588477+1012903106+1013429309+1014218480+1015127104
2883+1015915542+1016414882+1016687649+1016931486+1017161058+1017150926
2875+1016794569+1016316293+1015979201+1015685636+1014999519+1013598822
2866+1011703584+1010010522+1009175223+1009328271+1010051250+1010773763
2858+1011187380+1011314164+1011304566+1011309898+1011496409+1011985617
2849+1012762123+1013756869+1014942459+1016242502+1017460022+1018415507
2841+1019104423+1019690486+1020392468+1021316889+1022305837+1023031949
2832+1023378640+1023631610+1024108485+1024715212+1025127096+1025306874
2824+1025532247+1025972527+1026531193+1027032666+1027321764+1027287435
2815+1026992137+1026687574+1026587519+1026693107+1026872752+1027028866
2807+1027162717+1027327963+1027564201+1027883963+1028249785+1028531285
2798+1028605409+1028563214+1028657669+1028994429+1029408045+1029690944
2790+1029809797+1029883255+1030037303+1030285139+1030511445+1030619432
2781+1030677825+1030812076+1030975723+1031015318+1030973789+1031074377
2773+1031343945+1031524323+1031463197+1031316348+1031249090+1031203695
2764+1031091509+1030970190+1030901665+1030827407+1030708288+1030633097
2756+1030686757+1030831873+1030979989+1031071044+1031054113+1030915996
2747+1030734085+1030551840+1030228213+1029578358+1028693532+1027949355
2739+1027644592+1027760711+1028109269+1028547683+1028970898+1029275061
2730+1029472171+1029714275+1030109427+1030611033+1031118305+1031556719
2722+1031859549+1031978335+1031907677+1031670705+1031365875+1031216627
2713+1031390339+1031746163+1031953738+1031896878+1031770827+1031778759
2705+1031954871+1032277032+1032709446+1033119197+1033360368+1033428960
2696+1033398963+1033283044+1033093400+1032957550+1033051338+1033427560
2688+1033949763+1034389843+1034573755+1034456435+1034133474+1033808180
2679+1033654066+1033679129+1033797582+1033971961+1034169403+1034278057
2671+1034229463+1034139207+1034215198+1034522761+1034873785+1034970107
2662+1034695873+1034243994+1033914101+1033826645+1033879172+1033923366
2654+1033915434+1033901569+1033950230+1034145940+1034528427+1034961041
2645+1035203012+1035180148+1035016301+1034796728+1034542892+1034365380
2637+1034364113+1034437704+1034466234+1034609417+1035132554+1035935257
2628+1036532185+1036617108+1036417599+1036316677+1036371071+1036411933
2620+1036373137+1036312811+1036305812+1036425598+1036667635+1036925670
2611+1037175040+1037506067+1037874822+1038083064+1038081664+1038003874
2603+1037909218+1037815830+1037904619+1038328834+1038894099+1039257522
2594+1039373108+1039479162+1039767327+1040260868+1040861662+1041378666
2586+1041709759+1042044452+1042620116+1043255173+1043451282+1043024067
2577+1042324218+1041774151+1041467722+1041297609+1041211953+1041256747
2569+1041516916+1042006190+1042489065+1042565123+1042123643+1041544646
2560+1041275678+1041383465+1041661632+1041936132+1042093979+1042029787
2552+1041806747+1041707426+1041862407+1042005190+1041936265+1041956329
2543+1042365813+1042823558+1042806560+1042401409+1042064716+1041934332
2535+1041899136+1041961329+1042097779+1042115710+1041959262+1041837144
2526+1041875406+1041922334+1041786950+1041448324+1041027442+1040740076
2518+1040787671+1041102366+1041324739+1041182756+1040741743+1040220672
2509+1039807122+1039671739+1039872315+1040251669+1040633756+1041014110
2501+1041422727+1041754354+1041820812+1041507984+1040965716+1040637889
2492+1040868194+1041462589+1041877606+1041834611+1041569243+1041483253
2484+1041676697+1041882138+1041864541+1041748355+1041837477+1042217231
2475+1042664644+1042891883+1042781296+1042356481+1041621637+1040636689
2467+1039736064+1039340112+1039463564+1039697269+1039691736+1039434234
2458+1039168133+1039210861+1039675405+1040276332+1040603360+1040595694
2450+1040545766+1040654287+1040785804+1040718746+1040450978+1040085755
2441+1039613212+1039127804+1039047348+1039642142+1040500105+1040919388
2433+1040698015+1040153081+1039565152+1038997154+1038509812+1038219981
2424+1038183985+1038369096+1038693457+1039046281+1039331780+1039491361
2416+1039431101+1039063412+1038531077+1038220381+1038372296+1038813842
2407+1039225926+1039517291+1039807056+1040181211+1040610292+1040987646
2399+1041160292+1041037174+1040753275+1040592028+1040657686+1040767940
2390+1040764740+1040766673+1041002911+1041514716+1042085181+1042403475
2382+1042324952+1042019922+1041833878+1042018922+1042650846+1043657324
2373+1044727795+1045324389+1045066954+1044112069+1043015002+1042255427
2365+1041982460+1042124642+1042583920+1043222110+1043772777+1043991684
2356+1043909493+1043766044+1043664056+1043481079+1043162450+1042893483
2348+1042906215+1043237175+1043608930+1043591399+1043107590+1042523928
2339+1042048052+1041493185+1040714213+1039944372+1039609013+1039913976
2331+1040604159+1041142428+1041212286+1040949051+1040637555+1040445712
2322+1040475442+1040785271+1041322273+1041986992+1042712438+1043396689
2314+1043870165+1043989017+1043726116+1043188847+1042533193+1041892470
2305+1041441058+1041363468+1041588507+1041791149+1041833211+1041911135
2297+1042144040+1042368413+1042405475+1042262959+1042130042+1042291689
2288+1042826091+1043362626+1043450016+1043123722+1042849821+1042994737
2280+1043499810+1043948889+1043926825+1043423286+1042868153+1042719237
2271+1043042398+1043450749+1043471013+1043046064+1042558523+1042295089
2263+1042184502+1042138507+1042250627+1042573322+1043107124+1044040144
2254+1045485836+1046915530+1047431935+1046797411+1045737939+1045131213
2246+1045273329+1045888921+1046441721+1046461785+1045950180+1045512900
2237+1045877789+1047222360+1048950751+1050135741+1050276524+1049618137
2229+1048702848+1047842218+1047135104+1046588303+1046059567+1045464572
2220+1045094817+1045234733+1045565760+1045581425+1045461773+1045846260
2212+1046848338+1047903878+1048478542+1048479075+1048146582+1047824820
2203+1047667706+1047555586+1047418336+1047361676+1047348678+1047094975
2195+1046435455+1045535964+1044772389+1044599943+1045329322+1046761616
2186+1048256768+1049320373+1049889771+1049992959+1049631202+1049176657
2178+1049464956+1051222610+1054399026+1057850009+1059764911+1058873019
2169+1055504693+1051525307+1049167992+1049476354+1051493244+1053443275
2161+1054888967+1056715813+1059156652+1061431310+1063021318+1063700769
2152+1063354678+1062550642+1062043303+1061602289+1060431498+1058561390
2144+1056884193+1056058093+1055958371+1055955305+1055481629+1054558607
2135+1053865624+1054009340+1054639597+1054779247+1054110594+1053243966
2127+1052692699+1052411200+1052387603+1052788021+1053396414+1053599856
2118+1053010927+1051759012+1050294189+1049069670+1048265901+1047787425
2110+1047564519+1047698969+1048184510+1048579196+1048255302+1047292618
2101+1046831607+1047852084+1049748588+1050886051+1050505697+1049369034
2093+1048585995+1048555266+1049094267+1049900503+1050695274+1051380191
2084+1052169362+1053122914+1053650317+1053160176+1052095571+1051519441
2076+1051777210+1052269617+1052396135+1052228755+1052321544+1052995862
2067+1053855692+1054214582+1053894421+1053283294+1052833349+1052781222
2059+1053103449+1053691378+1054661795+1056042494+1057101300+1056935053
2050+1055838919+1055114007+1055446100+1056376854+1057466256+1058803228
2042+1060174795+1060842048+1060485691+1059663924+1059087127+1058804961
2033+1058333684+1057628903+1057618504+1059078328+1061216536+1062440988
2025+1062451720+1062327535+1062625966+1062742685+1062092564+1060756325
2016+1059194247+1058103379+1058128309+1059090593+1059851368+1059473080
2008+1058493932+1058356482+1059322032+1059987351+1059361560+1058093713
1999+1057233084+1057115165+1057794083+1059108191+1059980752+1059017402
1991+1056312062+1053724974+1052988197+1054283174+1056505239+1058236229
1982+1058707906+1058241829+1057871274+1058457269+1059966754+1061576959
1974+1062686025+1063567185+1064879560+1066631949+1067735815+1067011303
1965+1064798237+1062623299+1061150611+1059857634+1058453403+1057209353
1957+1056253336+1055720933+1055990301+1056857129+1057277012+1056707014
1948+1055920443+1055813589+1056073357+1055706935+1054470218+1053130380
1940+1052390736+1052291348+1052800553+1054108461+1056015764+1057590307
1931+1057974328+1057413262+1057000512+1057347070+1057987260+1058159505
1923+1057712626+1057110632+1056806269+1056818601+1056896725+1056922788
1914+1056985714+1057086635+1057088101+1056955784+1056828133+1056848264
1906+1057069037+1057482454+1058023922+1058521195+1058746301+1058638914
1897+1058413141+1058306354+1058373346+1058622050+1059046798+1059409154
1889+1059326564+1058753767+1058104312+1057799149+1057947198+1058368613
1880+1058769898+1058953409+1058921613+1058827825+1058824158+1058969408
1872+1059317232+1059939090+1060670935+1061039757+1060855980+1060512021
1863+1060370372+1060409634+1060446096+1060404967+1060377171+1060435630
1855+1060493557+1060480758+1060540218+1060858246+1061432577+1062111761
1846+1062719488+1063117440+1063267755+1063247757+1063177966+1063181232
1838+1063305550+1063376209+1063139570+1062664894+1062335068+1062398593
1829+1062707623+1062979390+1063231359+1063592982+1063921409+1064017664
1821+1063971137+1063934541+1063898345+1063867616+1063932408+1064063126
1813+1064080523+1063848351+1063436935+1063040716+1062681759+1062165821
1804+1061388115+1060488091+1059722383+1059316166+1059301767+1059443684
1796+1059496677+1059425819+1059263439+1059002670+1058745701+1058666044
1787+1058844289+1059330697+1060135400+1061136012+1062145691+1063001454
1779+1063598582+1063965471+1064179511+1064253902+1064254502+1064344425
1770+1064568798+1064922422+1065468556+1066086814+1066550625+1066877985
1762+1067228743+1067616896+1067918860+1067847135+1066923513+1064904891
1753+1061987776+1058659178+1056136216+1056075157+1058534593+1061902853
1745+1064890826+1067162751+1068927538+1070482083+1071823988+1072771007
1736+1073373534+1073734024+1073741823+1073435527+1073045907+1072570098
1728+1072003033+1071446367+1070839040+1070017606+1068967000+1067716218
1719+1066166538+1064112453+1061461506+1058692374+1056427115+1054612134
1711+1052830749+1050785663+1048025130+1043823970+1038277107+1032342357
1702+1025115364+1012901573+993441857+968504536+935643239+890808455+841421821
1692+796709089+755226167+715586422+684226211+667523762+667594886+684831138
1682+711057703+735135394+755603255+774212074+792300688+811309592+830499741
1672+847530883+862784774+878078526+892684495+904504934+913640030+921326035
1662+928160143+934016235+938937241+943577814+948403231+953356699+958368627
1652+962869150+965241330+965545360+964981162+964715327+966318733+970018353
1643+974264640+978052183+981255729+983939071+986168935+988135231+989975542
1633+991655339+993249613+994814224+996247651+997513498+998715353+999867414
1623+1000963348+1002101611+1003279135+1004366337+1005213568+1005675446
1614+1005854557+1006024337+1006231245+1006399358+1006526543+1006551606
1606+1006285639+1005656714+1004795219+1003963052+1003540437+1003836268
1597+1004867477+1006488014+1008520968+1010646978+1012492289+1013915184
1589+1015004719+1015881279+1016622257+1017272245+1017868573+1018457501
1580+1019083226+1019775542+1020493056+1021003661+1021092650+1020991862
1572+1021002127+1021140444+1021305757+1021358484+1021119913+1020535050
1563+1019795407+1019106890+1018291921+1016793502+1014833473+1013693744
1555+1013316323+1012865577+1011588198+1008812467+1004451393+999525055+995424617
1545+992859594+991883845+992204073+993423926+995326896+997516565+999458530
1535+1001025807+1002403374+1003904859+1005705375+1007718799+1009763152
1526+1011586931+1012993228+1014035502+1014751083+1014934327+1014626231
1518+1014277540+1014129824+1014141623+1014353864+1014954125+1016034527
1509+1017497951+1019263671+1021300691+1023163866+1024438179+1025325205
1501+1025943330+1026069649+1025149226+1022250977+1016773105+1009250280
1492+1000266432+989671379+977815278+967095106+960842128+960723609+966247142
1483+974882365+982043234+982430054+973105580+956230085+939415850+931900491
1473+936669315+946245558+952093118+953694858+953412692+951658304+947483942
1463+940880806+932996492+923863929+910816971+889723453+862607728+837504694
1453+816218132+797625245+783293376+775666964+774726011+777666923+781132438
1443+782731844+781601248+779128080+778601077+783850509+796727220+814044728
1433+831552413+848659413+866000785+882853749+897964457+911307312+923499839
1423+934415587+943571415+951396269+958836104+965777332+971361857+975623743
1413+979107388+982141555+984910087+987461846+989610653+991062278+991576015
1403+991102073+989748770+987433916+983879879+979012600+972859210+965387979
1393+957354083+950286670+944897454+941039254+939232939+940983327+946898879
1383+955419650+963952752+970246659+973196969+973227232+972065039+972035309
1374+974508211+978114442+979136518+972843412+954475164+923359923+887583845
1364+862524072+862194778+886156484+919231688+948267047+969699525+984642720
1354+994794760+1001654798+1006401491+1009771551+1012156396+1013712541
1345+1014432854+1014201349+1012748258+1009739355+1005228633+999920807+994504728
1335+989063852+983889477+980436828+980659734+985200719+992597692+1000400283
1325+1006741650+1010903347+1012982430+1013421043+1012755857+1011493609
1317+1009902602+1007861981+1005048788+1001225250+996218121+989703975+981137610
1307+969896301+955514838+937745052+916167525+889644929+856571524+816590021
1297+772759716+731296991+697413818+671050736+648040315+625884059+607427688
1287+598544961+603039352+620136619+645762857+675019323+703913899+730041676
1277+752149605+769163417+780046169+784906715+786054176+787431277+792409742
1267+801740481+813404806+824331352+832577290+838439381+843902321+851130248
1257+861132573+873269574+885673875+896248998+903499589+906407904+903562914
1248+892859807+872734172+844311739+812688359+785906727+771732306+773938107
1238+790524370+815353304+841955223+866274486+886789941+903354406+916355902
1228+926427086+934364860+940942399+946593583+951353208+955171280+958189449
1218+960833529+963794772+967675169+972425729+977302673+981505432+984746441
1208+987216209+989156308+990530742+991042680+990284638+987551835+981304190
1198+969064468+948722792+920743172+888822162+857679324+830606061+809776377
1188+797613913+795807731+803227302+816302189+831274847+845385142+857127191
1178+866898943+876849808+888902485+902953388+917227064+929832474+939645355
1168+946319483+950078828+951188628+948927634+941243496+926300568+904414145
1158+877707571+848555093+820251712+798619458+789602814+793981619+806523504
1148+821332381+836397295+852452222+869474032+885635947+898833952+908264880
1138+914740031+920001795+925697774+932578609+940367668+948318774+955833000
1129+962524458+967905008+971247871+971602095+967325012+955615426+934414054
1119+906991633+883680983+875602692+885460368+905992154+927304780+943810719
1109+954777594+961509848+965453105+967670237+968766638+969016407+968530533
1099+967256620+964901038+960989910+955064026+946742898+935534452+920568060
1089+900364567+872920483+836918432+794031679+750061191+712501328+685754826
1079+668644493+657183811+649774039+648980935+658192756+677501423+703233248
1069+730647736+756480016+779510900+799743989+817513576+833179350+847116067
1059+859598892+870686752+880315589+888500667+895430030+901385577+906586082
1049+911110936+914927208+917921113+919894408+920605056+919937603+918154552
1039+915898024+913709889+911472092+908349069+903146831+894581599+881417789
1029+862878629+839476789+813672307+789369776+770162629+757813921+752412040
1020+753550836+760781296+773007886+788066000+803293427+816665545+827666816
1010+837291453+847032277+857598934+868544078+878952887+888182039+896005961
1000+902493044+907886325+912378716+915908290+918199146+918877531+917441504
990+913249211+905822441+895477824+883869493+873779379+867887757+867334091
980+871335474+878097191+885957174+893840289+901175936+907788337+913762016
970+919188760+924035241+928270396+932011411+935471860+938775594+941875686
960+944705611+947320695+949793463+952068321+954060214+955811203+957478201
950+959203859+961003642+962784294+964513151+966253474+967936205+969312038
940+970279788+971072026+971982316+972982395+973632516+973321154+971525971
930+967803087+961811611+953716389+944402914+934998917+926504143+920166709
920+917645146+920052656+926797641+935677102+944210137+950925793+955643956
910+958920427+961381530+963373756+964927901+965834058+965594287+963291232
901+957854756+949200135+939643889+933607618+934612363+942259440+952847561
891+962786827+970671141+976566695+980490688+981496100+976780003+960431778
881+924825412+868784316+807249682+767225917+767146927+801112491+846569999
871+884265712+907163879+914974602+908515516+891485840+873057599+863756190
861+867860161+881389126+897412124+911538484+922634877+931000666+937217915
851+941912615+945763883+949386445+952979478+956284612+959087007+961503182
841+963730313+965786131+967527854+968834563+969794513+970649810+971536370
831+972423196+973254029+973844557+973572257+971514572+967201027+961148625
821+954586351+949023689+946189565+947544935+953109462+961041504+968799567
811+974672657+978362612+980580344+982265074+984023195+985980891+987869663
801+989261028+989886420+989683844+988642170+987034364+985782049+985992823
792+987951320+990883766+993722756+995856432+997245064+998139956+998813275
782+999517723+1000518335+1001854574+1003060495+1003424584+1002379844+999033381
772+991116004+974632196+945210816+901849655+851600192+809647859+790853463
762+798062859+817983919+829663508+819595991+791572243+763178740+752217730
752+765017984+795359919+831878974+865666092+892948863+913617100+928777935
742+939410717+946375209+951030180+955232473+960014362+963775507+961981524
732+950492778+931606327+915810035+913693224+925789296+942624196+952387216
722+945907666+920587991+886643958+863805784+864144143+882127570+904101849
712+921726253+934255607+943335310+949876786+954252191+956874807+958382359
702+959556150+960933317+962509593+963929355+965023490+966040234+967157699
692+967990065+967606378+964434628+956631770+944542964+932978561+928612488
683+934035167+945547109+957155707+965456437+970367577+972761088+972698963
673+969532212+961499849+944312192+916525682+893905548+893856087+910477012
663+931195443+948301510+959377838+965772133+969202718+970127007+968098718
653+962715702+955455512+950150486+950090427+955005567+961835808+967843616
643+972146696+975045479+976986645+978245492+979091857+979907225+980994360
633+982220079+983144501+983777224+984726976+986219596+987539036+987889594
623+987323996+986564887+986348647+987016766+988354338+989754702+990664459
613+990936959+990864901+990852703+991032681+991365241+991918174+992618690
603+992990178+992639554+991794722+990993219+990368495+989437940+987659422
593+985269977+983436465+983233823+984601525+986658809+988711295+990507278
583+991858981+992534100+992525967+992149013+991840917+991985899+992720677
573+993717890+994412806+994550856+994335615+994123974+994157837+994450668
564+994797893+994988737+995052262+995258437+995804438+996381702+996192658
554+994796893+992848862+991575082+991708866+993176422+995316097+997038756
544+997332653+996134598+994481198+993601704+993976525+995248638+996732992
534+997803796+998045567+997507099+996825981+996743658+997467770+998646361
524+999837284+1000760573+1001179455+1000947350+1000260100+999648640+999575316
514+1000004797+1000188975+998934460+995620594+991142401+987386188+985621801
504+985604870+985610669+982734950+974835571+963636457+954710336+953246912
494+959773057+970468165+980952099+988907604+994202298+997677278+999849549
484+1000621056+1000119050+999137369+998402724+997930448+996805384+993091899
474+985187454+974843970+967638907+967217625+970512160+970805391+963597395
464+949907516+935258285+925587587+922969437+923469176+918422986+901634614
455+877547257+859105085+858292183+876495984+904122713+930665840+951029847
445+964468090+972195490+976291062+978907812+981140943+982739416+982557438
435+978793760+969582606+954904246+938751997+928145811+927997029+937453620
425+951617176+965501365+976447443+983595380+987004034+988512252+990003605
415+990822373+989919349+987759810+985520414+983692701+981973642+979466478
405+975230923+969925098+965996306+965730471+970108542+977989657+985229515
395+988626972+989178972+988263882+985142459+978901947+969664462+956097835
385+934388657+904301092+873482148+850211226+838283134+840219833+859148013
375+892264346+924436993
##END=
