##TITLE=X9250
##JCAMP-DX=4.24
##DATA TYPE=INFRARED SPECTRUM
##DATE=5/11/2018
##SAMPLING PROCEDURE=ATR platinum Diamond 1 Refl
##ORIGIN=ComPlat
##XUNITS=1/CM
##YUNITS=TRANSMITTANCE
##RESOLUTION=4
##FIRSTX=3997.453
##LASTX=373.96442
##DELTAX=-1.4165319
##MAXY=1.0725318
##MINY=0.79025525
##XFACTOR=1
##YFACTOR=9.988731e-010
##NPOINTS=2559
##FIRSTY=1.0188644
##XYDATA=(X++(Y..Y))
3997+1020013851+1019658803+1018854545+1018036682+1017610028+1017726627
3989+1018339577+1019194317+1019919092+1020334050+1020534906+1020618924
3980+1020547795+1020292160+1019889972+1019358057+1018697250+1017987751
3972+1017437338+1017309998+1017734504+1018554396+1019376316+1019769793
3963+1019551871+1019027355+1018717897+1018735917+1018792009+1018755012
3955+1018666459+1018318930+1017391987+1016054263+1015092471+1015122188
3946+1015693248+1015797912+1015280796+1015069915+1015788842+1016915209
3938+1017726866+1017957677+1017395687+1015822020+1013774558+1012714308
3929+1013409843+1014798647+1015349299+1014832660+1014371038+1014664385
3921+1014993774+1014520815+1013661420+1013787208+1015508026+1017897647
3912+1019731483+1020548988+1020369614+1018991552+1016021205+1011635917
3904+1007181530+1004372178+1003674375+1004625783+1006897969+1009812702
3895+1012049921+1012590548+1011767554+1011389234+1012521806+1013759521
3887+1013349575+1011336842+1009369579+1008301333+1007916449+1008839096
3878+1011312138+1013460445+1013377024+1011058652+1007957026+1005331821
3870+1004119885+1004960662+1006648780+1007299442+1006896179+1007285837
3861+1009342249+1011661815+1012697958+1011924491+1009001045+1003550734
3853+998534298+999481828+1004906360+1010339963+1013644712+1014279621+1012472398
3843+1008992691+1004968300+1001573208+999988740+1000901601+1003357994
3835+1005768619+1007715952+1009555517+1011244470+1012230249+1012296605
3826+1011835699+1010844071+1008292859+1003861386+1000378159+1000591128
3818+1003049371+1006073662+1009751002+1013645070+1016417903+1017248059
3809+1016039822+1013479779+1011114266+1009593587+1007766673+1005343994
3801+1004523625+1006463797+1009365760+1011930935+1014221739+1016256431
3792+1017739636+1018645694+1019092755+1018964938+1018244698+1017453927
3784+1017023454+1016500847+1015415654+1014574639+1015313496+1017379456
3775+1019167465+1019415938+1017823296+1015173148+1013050499+1012352338
3767+1012625635+1013367596+1014189039+1014148581+1012618952+1010611470
3758+1010013439+1010763395+1010701575+1007954878+1002310156+996575508+995106923
3748+997213520+998984761+999122722+999521271+1001977306+1004930468+1006083567
3738+1004344967+1000218179+996577597+996995002+1001541463+1007107895+1010950049
3728+1011911602+1010308934+1007862864+1006708093+1007664395+1010155935
3720+1013148600+1015550990+1016532473+1015753039+1013163637+1009154402
3711+1005681379+1005606908+1008966794+1013275701+1016322548+1016955905
3703+1015575217+1014403380+1015173625+1016823911+1017625782+1017298541
3694+1016111667+1013618576+1009341653+1004696077+1003099496+1005672070
3686+1009831439+1013418675+1015694561+1016253448+1014737543+1010857915
3677+1004617071+998383746+997117448+1000395046+1002937546+1003080997+1004187314
3667+1008595396+1013853325+1017301047+1018540552+1018482551+1017715767
3659+1015981821+1013268182+1010739884+1009319097+1007805221+1004166668
3650+997829155+992191773+992724046+998544502+1004882372+1009235675+1011536146
3640+1012736625+1013403876+1013230589+1011958623+1010197706+1008796371
3632+1007489198+1005059359+1001890543+1001470692+1004815540+1008647430
3623+1010428516+1009220638+1005242791+1000637374+998589375+999477949+1001177464
3614+1002522110+1003645493+1004404997+1004406668+1004446409+1005899659
3605+1008306584+1009732265+1009183522+1007532401+1006279530+1005803110
3597+1005640205+1005818028+1006755831+1008040447+1008190343+1005867317
3588+1001742079+999362842+1001002387+1004567185+1007406255+1008707579
3580+1008834084+1008459702+1008259205+1008631796+1009330076+1009518401
3571+1008225192+1004718394+999324115+994860419+994783681+998374556+1002340111
3561+1004953382+1006508909+1007794838+1008788614+1008891369+1008017295
3553+1006965041+1006487188+1006192409+1005094327+1003150694+1001742199
3544+1002177684+1004045653+1005854547+1006589943+1006333593+1005870777
3536+1005758236+1005757878+1005309862+1004259875+1002977765+1001996640
3527+1001530244+1001391447+1001528215+1002251200+1003595608+1004959946
3519+1005757282+1005983199+1005932836+1005685437+1005071771+1004067493
3510+1003124080+1002897447+1003382818+1003687741+1003041017+1001825978
3502+1001266972+1001887918+1002906994+1003376015+1003331858+1003513977
3493+1004128716+1004514316+1004126091+1003257387+1002602906+1002448833
3485+1002493945+1002362070+1002175297+1002457068+1003295577+1004011043
3476+1004012356+1003526388+1003119068+1002890167+1002606844+1002255496
3468+1002049509+1002175775+1002703036+1003484857+1004113918+1004287086
3459+1004187553+1004206051+1004361914+1004312148+1003867115+1003123484
3451+1002120161+1000862874+999747785+999390947+999872380+1000696031+1001454342
3441+1001990553+1002213607+1002222558+1002311349+1002539773+1002608993
3432+1002341424+1001974084+1001840657+1001981006+1002141404+1002051657
3424+1001655913+1001117136+1000677473+1000506036+1000607717+1000839005
3415+1001047797+1001203004+1001368533+1001546833+1001634193+1001609130
3407+1001594451+1001604237+1001430831+1001004714+1000585996+1000368015
3398+1000229994+1000045727+999867308+999696050+999434866+999106551+998830986
3388+998608828+998309215+997872477+997472496+997422372+997795858+998224839
3378+998270429+997911562+997524232+997486877+997884053+998409464+998568191
3369+998162721+997489801+996899527+996423464+996019366+995818212+995937556
3359+996348099+996979129+997657956+998051492+997966221+997562362+997127294
3349+996871899+996947085+997355062+997834167+998042840+997840612+997346469
3339+996813599+996451689+996282042+996206318+996188775+996255846+996375727
3329+996486955+996598542+996735906+996839556+996807035+996594484+996254056
3319+995956233+995944001+996280908+996662808+996673788+996233588+995631320
3309+995163910+994901234+994742806+994580140+994388056+994189647+993980139
3299+993749806+993531765+993354241+993200108+993094549+993177731+993591317
3289+994265550+994869608+995084904+994955834+994843591+995000290+995299186
3279+995458749+995413637+995339584+995360589+995421036+995480231+995602081
3269+995783603+995945791+996149809+996548954+997123058+997714883+998254914
3259+998729425+999056248+999203995+999320893+999607676+1000125031+1000747528
3250+1001269239+1001606386+1001881592+1002174343+1002327819+1002275785
3241+1002340350+1002794095+1003354533+1003581525+1003510754+1003441057
3233+1003388188+1003192584+1002914513+1002798033+1002995189+1003444876
3224+1003915210+1004177289+1004222163+1004226101+1004320024+1004530905
3216+1004852775+1005215819+1005497948+1005686749+1005930688+1006350301
3207+1006881023+1007322356+1007498507+1007416160+1007287030+1007347179
3199+1007691964+1008316012+1009134710+1009914980+1010417417+1010643574
3190+1010690834+1010498810+1010095428+1009870823+1010159754+1010754206
3182+1011177279+1011204728+1010989551+1010933699+1011397946+1012282403
3173+1013072697+1013425239+1013446482+1013388361+1013397790+1013520236
3165+1013675025+1013705339+1013583489+1013433831+1013340982+1013320335
3156+1013423687+1013673951+1013984245+1014287139+1014609368+1014929209
3148+1015170880+1015402646+1015714014+1015872860+1015521870+1014766543
3139+1014141063+1013993792+1014233554+1014569029+1014733724+1014618676
3131+1014363400+1014192261+1014168034+1014205866+1014209685+1014112062
3122+1013906194+1013652111+1013367715+1013009803+1012657381+1012515958
3114+1012630170+1012802145+1012898813+1012998943+1013107904+1013030449
3105+1012680533+1012232398+1011826271+1011428617+1011046956+1010762202
3097+1010503822+1010087432+1009539763+1009157983+1009149151+1009353706
3088+1009459326+1009386765+1009246536+1009030285+1008701851+1008508872
3080+1008775486+1009419584+1010023941+1010346169+1010512057+1010746329
3071+1011033589+1011087533+1010708616+1010139108+1009894930+1010212862
3063+1010831660+1011364530+1011732347+1012162462+1012849524+1013673235
3054+1014261839+1014374976+1014176627+1014016945+1014008233+1014001311
3046+1013879938+1013649128+1013380365+1013250877+1013397790+1013602106
3037+1013445288+1012856327+1012167713+1011662889+1011400929+1011381954
3029+1011554883+1011758364+1011922820+1012228340+1012796655+1013334657
3020+1013433354+1013121031+1012720394+1012282880+1011668737+1011076553
3012+1010952078+1011430885+1012248748+1013073175+1013643518+1013781480
3003+1013522504+1013152180+1012976983+1013037133+1013055750+1012728629
2995+1012099329+1011536504+1011311302+1011347583+1011402720+1011325504
2986+1011118085+1010879039+1010733320+1010750506+1010872117+1010889899
2978+1010534374+1009725343+1008758181+1008075415+1007824554+1007803192
2969+1007796031+1007724067+1007481202+1006915274+1006053373+1005176913
2961+1004589503+1004341029+1004217389+1004030258+1003855300+1003864728
2952+1004004599+1004026439+1003814007+1003503355+1003292713+1003249033
2944+1003274573+1003230774+1003126229+1003103673+1003176950+1003169670
2935+1003025622+1002929908+1002975497+1003009152+1002989699+1003186259
2927+1003793122+1004555132+1005020095+1005049215+1004859458+1004655022
2918+1004466101+1004313461+1004250089+1004236722+1004198413+1004165355
2910+1004212257+1004373610+1004704073+1005222621+1005786879+1006213891
2901+1006444582+1006452578+1006206492+1005839390+1005590916+1005481478
2893+1005264988+1004767325+1004115589+1003599069+1003395946+1003461107
2884+1003594892+1003561475+1003226955+1002686924+1002181503+1001851637
2876+1001676321+1001606624+1001570224+1001433098+1001187966+1001065162
2867+1001241790+1001573685+1001828723+1002032920+1002387968+1002967979
2859+1003655757+1004277180+1004705147+1004961139+1005291602+1005991911
2850+1007108372+1008402417+1009566138+1010424936+1011056265+1011703943
2842+1012417261+1012913254+1013022573+1013045248+1013394209+1014107408
2833+1014907846+1015527241+1015827868+1015838131+1015785381+1015916182
2825+1016229459+1016538440+1016762210+1016957456+1017093628+1017024528
2816+1016723662+1016388187+1016274333+1016495357+1016950773+1017412514
2808+1017739874+1018003027+1018337190+1018718493+1018982601+1019041199
2799+1018980334+1018947156+1019006231+1019139777+1019316883+1019518813
2791+1019741986+1019989385+1020194537+1020194418+1019924223+1019631951
2782+1019702244+1020218406+1020845319+1021239869+1021421749+1021595036
2774+1021769040+1021816300+1021789686+1021853654+1021965957+1021954500
2765+1021888383+1022063819+1022585590+1023207968+1023633309+1023765542
2757+1023643692+1023357147+1023089340+1023023343+1023118102+1023160349
2748+1023053895+1022889797+1022777375+1022770453+1022892303+1023101990
2740+1023305949+1023481503+1023673408+1023844070+1023872593+1023744418
2731+1023602995+1023538908+1023460141+1023265611+1023050911+1023020478
2723+1023252602+1023641782+1024010912+1024225851+1024260460+1024188377
2714+1024075597+1023914602+1023712076+1023559793+1023550842+1023678779
2706+1023859227+1023991340+1024004468+1023916989+1023831300+1023816979
2697+1023848008+1023895388+1023991459+1024141117+1024265711+1024300321
2689+1024280749+1024293996+1024377298+1024469909+1024475756+1024397228
2680+1024373360+1024510127+1024725424+1024860043+1024889402+1024918522
2672+1025000034+1025064002+1025034524+1024948119+1024928547+1025060422
2663+1025288726+1025463923+1025481586+1025369880+1025241705+1025180362
2655+1025167473+1025128328+1025050993+1025017458+1025075101+1025148855
2646+1025144320+1025080352+1025062928+1025182033+1025449721+1025764550
2638+1025946549+1025928290+1025864202+1025910985+1025958842+1025783645
2629+1025435280+1025243137+1025377518+1025620860+1025668956+1025496743
2621+1025323336+1025353411+1025639478+1026077111+1026458773+1026634566
2612+1026648291+1026617858+1026554009+1026438007+1026346232+1026342651
2604+1026397311+1026547923+1026927913+1027494438+1027928372+1027942693
2595+1027560316+1027036158+1026631463+1026484790+1026593392+1026825755
2587+1027000951+1027039380+1027041767+1027152399+1027376168+1027582514
2578+1027640157+1027539311+1027449684+1027581917+1027896269+1028092350
2570+1027988521+1027733961+1027610201+1027789456+1028244514+1028723440
2561+1028900785+1028724156+1028474370+1028358368+1028233057+1027961908
2553+1027814399+1028156796+1028862476+1029432342+1029663989+1029826654
2544+1030190056+1030672324+1030961733+1030848356+1030450583+1030096013
2536+1029955903+1029947191+1029993019+1030102935+1030212373+1030217863
2527+1030107709+1029858161+1029410980+1028961054+1028943033+1029487240
2519+1030162249+1030452851+1030225262+1029663034+1029072043+1028753396
2510+1028743251+1028799582+1028913913+1029486405+1030609907+1031594732
2502+1031677079+1030955766+1030255934+1030178480+1030575298+1030989182
2493+1031319287+1031738541+1032134882+1032163286+1031822440+1031472405
2485+1031326686+1031356761+1031598671+1032131660+1032772894+1033120423
2476+1032965634+1032498881+1032036185+1031681973+1031372275+1031127143
2468+1031112822+1031481117+1032121396+1032567981+1032380611+1031691639
2459+1031091818+1030968416+1031255319+1031688536+1031982122+1031974842
2451+1031840580+1031860511+1031904429+1031570505+1030877476+1030346874
2442+1030373129+1030899793+1031658700+1032325235+1032519288+1032107075
2434+1031493767+1031219515+1031323941+1031466796+1031498541+1031501167
2425+1031441017+1031238133+1031093727+1031366308+1032050745+1032608319
2417+1032511531+1031870655+1031259973+1030960539+1030729609+1030329808
2408+1029905421+1029735117+1029880836+1030185402+1030460370+1030613010
2400+1030655258+1030658600+1030717436+1030891559+1031097188+1031119625
2391+1030864348+1030552264+1030528396+1030887859+1031430993+1031985106
2383+1032632784+1033600782+1035016199+1036761124+1038530635+1040175073
2374+1041995423+1044429201+1047416614+1050433028+1053104419+1055383408
2366+1057282764+1058848555+1060158353+1061043406+1061071452+1059934583
2357+1057725053+1054880732+1051828873+1048759112+1046001316+1044233716
2349+1043954929+1045042031+1046821686+1048509923+1049699064+1050315236
2340+1050390542+1050126195+1049805757+1049575424+1049391993+1048994458
2332+1048087565+1046839229+1045833519+1045296711+1044904070+1044414402
2323+1043967102+1043677812+1043306295+1042550730+1041524015+1040660921
2315+1040109791+1039472615+1038385155+1037111756+1036217394+1035887409
2306+1035853515+1035747657+1035374827+1034847566+1034453254+1034247983
2298+1033961916+1033472249+1033081636+1033102641+1033438952+1033787435
2289+1033997600+1034043428+1033871215+1033532875+1033331304+1033555192
2281+1034076367+1034452777+1034468292+1034343935+1034385467+1034643966
2272+1034947099+1035050689+1034767009+1034142006+1033505784+1033231413
2264+1033443964+1033941389+1034359928+1034535602+1034763429+1035475195
2255+1036611348+1037619684+1038141574+1038304001+1038228098+1037714204
2247+1036634978+1035265627+1033960365+1032844500+1032107910+1032245991
2238+1033615461+1035918557+1038368327+1040239399+1041223746+1041417441
2230+1041077311+1040463884+1039949274+1039922183+1040295013+1040533820
2221+1040427485+1040226510+1039943546+1039423445+1039061834+1039337399
2213+1039804510+1039712973+1039293480+1039272237+1039580024+1039694236
2204+1039821099+1040603159+1041934916+1042957573+1043146017+1042768055
2196+1042319561+1042118109+1042350948+1042901959+1043210343+1042977742
2187+1042782376+1043199721+1043750731+1043707410+1043390194+1043514908
2179+1043947529+1044363442+1045284299+1047079229+1048635234+1048467198
2170+1046841139+1045659158+1046317219+1048400246+1050472412+1051398281
2162+1050555594+1047771662+1044328475+1042872003+1044417266+1046934823
2153+1047962254+1047030179+1045156243+1043250323+1041628680+1040347047
2145+1039505196+1039364728+1040040572+1040987684+1041237710+1040383447
2136+1039048587+1038206378+1038211032+1038637925+1038879954+1038587800
2128+1037738908+1036759812+1036416937+1037020816+1037899425+1038238481
2119+1038146825+1038217118+1038377517+1037966974+1036840727+1035739900
2111+1035423400+1035813535+1036253675+1036421591+1036607290+1037046714
2102+1037449022+1037472891+1037285163+1037271916+1037472413+1037678759
2094+1037906467+1038383364+1039132127+1039811193+1039991522+1039543863
2085+1038775409+1038142887+1037858490+1037894294+1038265691+1039043097
2077+1040128051+1041234010+1042103787+1042736190+1043349975+1043892034
2068+1043702159+1042220148+1040086281+1038852624+1039363535+1041029574
2060+1042782615+1044115446+1044997158+1045288237+1044803463+1043850503
2051+1043103530+1042882864+1043095773+1043821383+1045184528+1046672864
2043+1047457191+1047302641+1046538841+1045559386+1044827690+1044696292
2034+1044863135+1044708585+1044311528+1044457485+1045754394+1048229703
2026+1051267838+1053419010+1053016940+1049877006+1045949999+1043515744
2017+1042925469+1042838229+1042546553+1042733564+1043852054+1045353638
2009+1046737668+1047979798+1048647526+1048090310+1046738026+1045819317
2000+1045848676+1046473082+1047454804+1048745269+1049894430+1050333496
1992+1050006016+1049186125+1048185546+1047672249+1048327565+1049672212
1983+1050232053+1049428631+1048324343+1048064293+1048584274+1049325518
1975+1050136817+1050766594+1050516211+1048989207+1046718931+1044957058
1966+1044671827+1045561296+1046509482+1046910239+1046864411+1046454703
1958+1045685533+1044910156+1044512622+1044347808+1043978439+1043250323
1949+1042400237+1041734299+1041163358+1040224839+1038928049+1038170932
1941+1038513807+1039225215+1039459726+1039422013+1039751283+1040366381
1932+1040633233+1040434049+1040271980+1040218036+1039489681+1037654771
1924+1035835852+1035656478+1036874024+1037676372+1037393766+1037341613
1915+1038460818+1039820383+1040107047+1039154086+1037883791+1037303303
1907+1037728167+1038770635+1039722879+1039976723+1039422133+1038482778
1898+1037649042+1037172502+1037190285+1037581494+1037732821+1037205083
1890+1036567310+1036745013+1037646178+1038514762+1039045484+1039311262
1881+1039323674+1039199915+1039236672+1039430248+1039292406+1038338014
1873+1036443789+1033801279+1031240520+1030482806+1032420830+1035576876
1864+1038014950+1039125444+1039306011+1039134872+1039017677+1039137856
1856+1039426310+1039662372+1039597568+1039016483+1037898709+1036442596
1847+1034793623+1033168757+1032405673+1033213750+1034719391+1035553007
1839+1035410392+1034985050+1035023718+1035328641+1034898168+1033205396
1830+1031236820+1030611817+1031281335+1031998830+1032426558+1033093690
1822+1034023378+1034658168+1034771067+1034635850+1034422702+1033880524
1813+1032752128+1031324896+1030421822+1030528515+1031149461+1031377765
1805+1030598092+1028688831+1026254337+1024529939+1024163195+1024432315
1796+1024209620+1022862348+1020669048+1019344332+1020395631+1022574133
1788+1023775686+1023424099+1022260617+1021101072+1020152528+1019419041
1779+1018855619+1017941327+1015781443+1011728648+1006083448+1000753436
1771+997694297+996067462+993625509+989137765+982011689+971194428+956643140
1761+941484391+928420365+916403461+904711590+894867220+887024125+879252041
1751+871044531+865184930+864032547+866229666+869356592+872235283+874635943
1741+876637696+878604064+880637324+881749847+880701292+878554894+878963468
1731+882577854+887429417+892337311+896641981+900182314+903606884+907417411
1721+911031797+913680215+916273137+922298268+933576732+946970744+959209031
1711+968959358+975825564+979889100+981901892+983362422+985065815+985783250
1701+983766758+979715753+977048241+977128917+979260516+982292206+984248072
1691+983794506+981270802+978059918+974400300+968865613+962290607+959791906
1681+961779398+964179640+964817890+962977848+958829935+954021694+949848123
1672+945376729+940216185+936952311+936845379+936967647+934687405+930464664
1662+927293640+926613679+926698712+925584399+922187576+916446007+912879776
1652+916843899+922818308+926504420+929729447+936591475+946537049+955428220
1642+961696454+965386504+966571707+965969677+966798698+972729965+981137794
1632+987632005+991210289+992747497+993711317+994857734+996035418+997741795
1622+1000683261+1003703494+1005017827+1004713859+1005412139+1008794342
1613+1012744382+1015109299+1015705421+1015640498+1016042806+1017003523
1605+1017929631+1018542581+1019156485+1020080206+1021004523+1021313862
1596+1020893056+1020253374+1019855243+1019667515+1019486232+1019263298
1588+1018979975+1018504629+1017725314+1016680579+1015392143+1013533722
1579+1010348914+1005227753+999434388+996422689+996253280+995194880+991254327
1570+986163897+983321904+982678940+981975050+980260617+976974009+970021577
1560+957745996+948300652+949999570+955324988+959205152+961207323+961910019
1550+962246151+962517539+961569591+958129149+952503223+946373070+942435382
1540+945455914+954626110+962661050+966847987+968714345+971174080+974903275
1530+977679092+978213573+977427634+976792248+976242193+975448855+975966449
1520+978752171+982194404+985818994+990662263+995962738+999243617+998799659
1510+994396709+987515764+984282383+991516884+1002054521+1008194043+1009355735
1500+1006767049+1002654105+1000782734+1003560879+1008368046+1011037408
1492+1009978948+1007047030+1006820754+1011076434+1016516601+1020114577
1483+1021387378+1021336657+1020886612+1019764541+1017008655+1012317848
1475+1006812639+1003330068+1004614684+1008983025+1012262950+1012373104
1466+1009775825+1006871236+1005373830+1003747890+999334736+990664590+980073546
1456+975362331+978297770+983280492+987325828+989831153+991053293+992056198
1446+993769497+995742131+996857637+996614534+995098152+992245119+988134502
1436+984537958+983636315+984401965+984780882+984720554+985496109+987188702
1426+988360420+988347829+987991946+987857565+987260667+986357175+987578957
1417+991802473+996568765+999852092+1001470334+1002206327+1002590256+1002393696
1407+1001470453+1000696747+1001050303+1001800439+1001325331+999218555+996550804
1397+994354342+992919054+992344652+992050708+990504192+986358607+979626305
1387+972113495+965554062+959397594+952202537+943667070+934537867+925476512
1377+916582357+908160207+901631327+898431601+897987880+898788976+900387048
1367+902933964+906183456+910405183+917214760+927612706+940015389+952116967
1357+962823536+972011157+979829189+986312719+991435789+995386904+998586630
1347+1001469140+1004232068+1006556049+1007669766+1007217572+1006274876
1339+1006806194+1009348813+1012388619+1014329984+1014701143+1013830291
1330+1012268797+1010530197+1008954143+1007579780+1006189664+1004539975
1322+1002619972+1000815017+999718904+999520972+999741281+999875006+999953415
1312+1000182077+1000399820+1000280417+999814856+999281449+998846740+998404690
1302+997812745+997157548+996700760+996610536+996805006+996994286+996856026
1292+996271659+995431479+994615227+993885679+993063340+991932439+990372854
1282+988340549+985820784+982842381+979505350+975903137+972004772+967708635
1272+963034417+958168114+953262548+948261686+942983827+937324783+931321433
1262+925121225+918995966+913222114+907798297+902456529+897014214+891483286
1252+885846918+880013872+874023888+868092383+862406905+857002422+851874697
1242+847125591+842902194+839250871+836158554+833680142+831875306+830673454
1232+829921171+829479360+829206361+828980622+828828936+828949175+829531334
1222+830585558+832006584+833823533+836336436+839936262+844783111+850716048
1213+857464999+864866640+872817323+881107180+889480638+897896105+906595670
1203+915883301+925892723+936504116+947332177+957811098+967388853+975676503
1193+982454156+987641552+991277182+993451745+994252959+993812759+992379262
1183+990258165+987661483+984659688+981299982+977712627+974113398+970748142
1173+967790505+965241680+962990439+960999068+959350334+958086066+957058635
1163+956041349+955017677+954257935+954000033+954185851+954646041+955358702
1153+956334696+957404255+958306732+958910731+959203839+959115764+958485569
1143+957244513+955540821+953621892+951642397+949586879+947339576+944863193
1133+942329942+939973499+937841064+935811027+933795430+931827510+930046722
1123+928625278+927607574+926860721+926253321+925776482+925469471+925360152
1113+925462071+925727313+926037010+926270267+926342530+926190844+925697596
1103+924549211+922265210+918536671+913487236+907528640+901118685+894737911
1094+888880637+883891948+879910341+877029323+875307252+874526863+874223610
1084+874119721+874288712+874767519+875262856+875353975+874780707+873455573
1074+871328330+868318003+864377510+859597791+854174034+848271172+842013261
1064+835554257+829064521+822689057+816575433+810867578+805661684+801033174
1054+797105570+794052458+792038233+791146795+791316561+792301207+793706361
1044+795116766+796254888+797084148+797800927+798689381+799923814+801535850
1034+803570721+806112564+809110838+812416899+816112678+820578582+826075198
1024+832386933+838921780+845000735+850041875+853701135+856006260+857307525
1014+858015054+858392897+858585935+858710112+858841092+858999879+859209506
1004+859535255+860074988+860932413+862174782+863823397+865873544+868234104
994+870685067+873053623+875425283+878059856+881157006+884767573+888851458
984+893389744+898458513+904118749+910248365+916615714+923044942+929401430
975+935562792+941481646+947100172+952250811+956848292+961031291+964921063
965+968412286+971346413+973720936+975661705+977300295+978639212+979473067
955+979563172+978974628+978112787+977363487+976793501+976243923+975600899
945+974873379+974045611+972968175+971442544+969363277+966770175+963858366
935+960999844+958671029+957239322+956806879+957282345+958537185+960401037
925+962511930+964290689+965156767+964759710+963061150+960364338+957297084
915+954572465+952637545+951575445+951281501+951615604+952430662+953562161
905+954855072+956273532+958001451+960397098+963861171+968675260+974737566
895+981475954+988227590+994592910+1000259233+1004831651+1008136519+1010372663
885+1011804908+1012664541+1013361748+1014360655+1015829061+1017742739
877+1020202056+1023262866+1026574059+1029630095+1032407105+1035358716
868+1038701416+1042030749+1044726128+1046489910+1047519608+1048381389
860+1049567667+1050919474+1051666208+1051270344+1050052918+1048795393
851+1047966789+1047564004+1047462442+1047542641+1047562572+1047286172
843+1046832546+1046705803+1047374963+1048758516+1050131447+1050777096
834+1050793685+1050882119+1051338490+1051806437+1052013617+1052159933
826+1052565821+1053364589+1054454436+1055517551+1056249605+1056609308
817+1056711466+1056649407+1056555006+1056575533+1056667189+1056639382
809+1056440675+1056242922+1056243041+1056483281+1056829735+1057039900
800+1056934997+1056676498+1056768273+1057511666+1058572393+1059396820
792+1059897229+1060397279+1061050925+1061629981+1061841816+1061684760
783+1061429841+1061296415+1061283287+1061304053+1061232208+1060850427
775+1060108586+1059332852+1058765969+1058063511+1056680675+1054591204
766+1052124368+1049204861+1045297904+1040184143+1034317919+1028309317
758+1022479612+1017006865+1012051234+1007649716+1003774146+1000453942+997648946
748+995153169+992765697+990439269+988286904+986581004+985672678+985837492
738+987268901+990109641+994271875+999357471+1004907554+1010534255+1015767122
728+1020118038+1023377913+1025598662+1026832677+1027147864+1026804989
720+1026127832+1025241824+1024091350+1022601224+1020743519+1018543177
711+1015915585+1012433731+1007554121+1001146554+993502466+984980425+976202511
701+968531570+963841897+963677322+968567135+977626521+988581981+998767555
691+1006531703+1011689025+1014952481+1017230396+1019176535+1021000466
683+1022675575+1024294235+1026084153+1028141043+1030327182+1032412476
674+1034327108+1036403332+1039189174+1042553117+1044460708+1042621859
666+1038960153+1036085161+1033891742+1031494006+1028827985+1026566898
657+1025081068+1024041584+1022989688+1021878597+1020872529+1019935084
649+1019014824+1018438035+1018603207+1019208399+1019212696+1017844419
640+1015369946+1012567873+1009830723+1007190600+1004796325+1002901743
632+1001725610+1001563899+1002722131+1005275849+1008960707+1013030807
623+1016326247+1018037398+1018411183+1018294107+1017983216+1016876183
615+1014353972+1010647870+1006567745+1002609947+998590867+994042556+988738978
605+982933381+977385924+973158707+971085646+971153971+972464485+974057605
595+975672028+977576933+979999732+982882122+985920913+988767084+991323905
585+993697115+995811231+997499050+999052846+1001165291+1004141247+1007395752
575+1009786089+1010626030+1010321823+1009528784+1007886136+1004372178+998996576
565+993222008+988599943+985834807+985083597+986417085+989785802+994734869
555+1000298139+1005336833+1009111438+1011495688+1012766938+1013456507
547+1014299790+1015969409+1018709065+1022232690+1025881029+1028891596
538+1030836303+1031849173+1032210785+1031912903+1030931658+1029600020
530+1028385578+1027681450+1028031724+1029745500+1031771838+1032102301
521+1029833934+1026138215+1023074780+1021576061+1021138785+1021260874
513+1021836588+1022456102+1022534749+1021891486+1020406611+1017624350
504+1013527158+1009282816+1006499003+1005583278+1005414168+1004721855
496+1003214543+1001545878+1000555027+1000568274+1001234749+1001900210
487+1002144745+1002008455+1001980051+1002909262+1005471215+1009307401
479+1013044532+1015477952+1016472324+1016576750+1016402866+1016608376
470+1017909820+1020839829+1025036314+1028579392+1029608494+1028908781
462+1028864624+1030026674+1030975815+1031243265+1031524439+1031407840
453+1030408574+1029584983+1029713039+1029732134+1028711148+1027372827
445+1026507226+1025919458+1026029612+1028158109+1032235966+1036245559
436+1038182628+1037851927+1036471716+1035208342+1035130053+1037453676
428+1042354887+1047798037+1050687350+1050003510+1047635491+1045176651
419+1043233854+1044369052+1049702883+1055438784+1058042984+1058086067
411+1059206109+1063152927+1067946370+1071064584+1071358408+1068389374
402+1063019262+1058364974+1057990354+1061370408+1062679251+1059848656
394+1056716717+1055549057+1055456089+1054906152+1053621536+1052635279
385+1053087473+1055114527+1058362587+1062859699+1068138513+1072549817
377+1073741823+1070527776+1066765940
##END=
