##TITLE=X7781
##JCAMP-DX=4.24
##DATA TYPE=INFRARED SPECTRUM
##DATE=30/10/2018
##SAMPLING PROCEDURE=Diamant-ATR
##ORIGIN=ComPlat
##XUNITS=1/CM
##YUNITS=TRANSMITTANCE
##RESOLUTION=4
##FIRSTX=3997.453
##LASTX=373.96442
##DELTAX=-1.4165319
##MAXY=0.92250669
##MINY=0.48720732
##XFACTOR=1
##YFACTOR=8.5915131e-010
##NPOINTS=2559
##FIRSTY=0.83469421
##XYDATA=(X++(Y..Y))
3997+971533420+972208242+972988377+973271501+972943838+972403675+972046318
3988+971995396+972212127+972590782+973039924+973573149+974164373+974561690
3978+974500292+974027355+973401096+972793222+972265963+971918041+971870380
3968+972116665+972423447+972447937+972126794+971901113+972234189+972918585
3958+973261581+972884452+972048122+971322030+971161355+971685839+972635946
3948+973517024+973932448+973904420+973890129+974329211+975033657+975405305
3938+975182122+974455337+973353990+972232246+971833472+972550058+973689978
3928+974249914+973977890+973351076+972908248+972652041+972219273+971513925
3918+970878786+970775277+971384330+972502050+973777046+974895112+975507427
3908+975240675+974050735+972516480+971517463+971394945+971838814+972607224
3898+973532911+974262748+974540739+974374999+973991279+973806253+974016740
3888+974217376+973842537+972730228+971325569+970163725+969560777+970057164
3878+971742311+973570027+974371391+973804865+972572051+971753550+972013087
3869+973277884+974684486+975300824+974838016+973871258+973159598+972798148
3859+972651417+972799466+973102015+972642537+970859846+969812127+970831888
3849+972834293+974610046+975476901+975258435+974282729+973127684+972150798
3839+971566651+971827575+973004334+974191152+974397269+973553030+972549573
3829+972287123+972909566+973946809+974804715+975176294+975087492+974771206
3819+974398587+974001547+973881873+974441947+975363263+975916330+975810045
3809+975244005+974749353+974831217+975217920+975081526+974105750+973139617
3799+973403455+974944231+976865604+978089123+978221770+977800379+977446283
3789+977352070+977441427+977528563+977339166+976732679+975847023+974951931
3779+974530887+975090476+976330020+977276728+977333061+976699032+976046202
3769+975901900+976189741+976565552+977015804+977675779+978296488+978317856
3759+977483191+976338623+975671987+975455880+975019365+973858979+972406103
3750+971936565+972707681+973889435+974741375+974656458+973730702+972583636
3740+971261742+969505207+967486498+966115625+966302455+967964500+970354441
3730+972694985+974389221+975200437+975333431+975188088+974977739+974735894
3720+974523742+974470808+974647647+974882208+974739224+973898454+972911161
3710+973072530+974567934+976238860+977080393+976845000+975908698+975033726
3700+974930980+975742542+976985209+977934899+978303981+978568928+979304316
3690+980221955+980318041+979516052+978743548+978351295+978025297+977468136
3680+976787834+976288464+975967668+975655683+975517417+975590539+975531014
3670+975397396+976002564+977609456+979289539+980225563+980269547+979699344
3660+978821458+977884740+977386619+977886544+979005929+979615121+979133234
3650+977765275+976214647+975271686+975316573+976242190+977515937+978428650
3640+978663835+978595777+978664182+978669455+978072056+976706802+974792991
3631+972584885+970921522+971316827+973433009+975533026+976984376+978082116
3621+979056782+979551157+979205108+978440374+977875513+977809467+978326320
3611+979182214+979959297+980557181+981053082+981164777+980559609+979409282
3601+978245289+977434489+976957458+976640756+976450180+976569021+976993048
3591+977168986+976515116+975391985+975300477+976999084+979337270+980847104
3581+980986203+980319151+979726470+979331650+978817781+978399304+978439611
3571+978599038+978336449+977867674+977919012+978436559+978691863+978587452
3561+978602645+979122550+980081468+980988770+981220625+980446248+979080925
3551+978134703+978113821+978515093+978636848+978363297+978157320+978642051
3541+980119278+982047936+983211236+982953989+981956013+981205501+980803050
3531+980338576+979690117+979058863+978623458+978435032+978620683+979428846
3521+980723961+981732691+981865963+981515613+981435900+981582145+981258019
3512+980259071+979259707+978993927+979401790+979867512+980071062+980251648
3502+980656805+981050931+981045867+980623157+980121429+979859117+979860297
3492+979945075+979997315+980074808+980307357+980755527+981341964+981833772
3482+981924239+981469269+980661037+979925372+979711138+980236871+981225343
3472+982049740+982307473+982037946+981392331+980479688+979569056+979015087
3462+978874392+978911369+979035275+979469015+980374236+981434859+982008600
3452+981786666+981131407+980634813+980529708+980631136+980668529+980603593
3442+980694823+981201755+981936934+982344242+982138888+981573542+981004449
3432+980555238+980309438+980434107+980945479+981629459+982242467+982551954
3422+982319613+981597546+980886440+980645358+980824071+981077225+981129673
3412+980880196+980480589+980319637+980676300+981445196+982339733+983175508
3403+983782757+983881272+983335281+982420833+981598795+981085550+980858204
3393+980923626+981299992+981874565+982493123+983005466+983200414+983044595
3383+982970431+983509276+984557551+985366199+985402067+984956602+984644132
3373+984584746+984440721+984059707+983702628+983768396+984406727+985228765
3363+985606657+985572039+985919266+986995291+988004299+987950809+986691909
3353+984746531+982700558+981009167+979810346+978767552+977472438+975981890
3343+974689065+973832061+973393742+973288429+973422117+973773369+974536646
3333+975949561+977882451+979790227+981135501+981770432+981957400+982125915
3323+982551191+983130968+983481595+983385856+983110918+983097945+983441357
3313+983927892+984362118+984528204+984168905+983416798+982951145+983351307
3303+984437669+985393187+985529511+984912063+984133454+983557632+983114248
3293+982767159+982760430+983344994+984425042+985490799+986003004+985908999
3284+985611999+985527430+985870911+986556556+987055093+986840166+986104570
3274+985497112+985271293+985276565+985453960+985723626+985742357+985378757
3264+985176456+985754567+986807490+987289585+986744496+985885758+985568709
3254+985719602+985672842+985194355+984767483+984974710+985824152+986753723
3244+987267662+987466286+987790759+988293389+988455452+987898569+987004379
3234+986468587+986484613+986719937+986820047+986669917+986463245+986620035
3224+987274738+987909669+987928887+987497783+987335512+987701402+988098026
3214+988085816+987896627+987946786+988166708+988211317+987999720+987689886
3204+987370408+987040733+986784943+986825389+987328089+988181277+989084139
3194+989776999+990038617+989770616+989268888+988943444+988704096+988229702
3184+987731511+987717081+988156371+988513173+988457880+988156163+987937420
3174+987890036+987828430+987641322+987540102+987810600+988420694+989068529
3165+989589475+990076635+990510999+990604241+990243484+989717752+989227748
3155+988699725+988270079+988270634+988593233+988766465+988645473+988473351
3145+988457741+988615780+988703056+988310733+987496950+987028869+987442490
3135+988253290+988574016+988159216+987525117+987321984+987765089+988464748
3125+988812947+988598644+988137778+987864089+987950185+988233587+988442617
3115+988524620+988594066+988547306+988124666+987452688+987098592+987412173
3105+988102396+988591360+988625493+988389475+988016856+987310953+986185185
3095+984970963+983875513+982594413+980945965+979438975+978780942+979137674
3085+980079248+980957967+981270645+980927580+980234443+979488163+978658007
3075+977644144+976732402+976424857+976757516+977143387+977027251+976433529
3065+975883446+975981543+976917636+978201582+979118041+979387568+979059002
3055+978062066+976471964+974947838+974301946+974723684+975722770+976721441
3046+977496650+978057626+978309531+978127696+977719903+977540565+977782480
3036+978272484+978858574+979556221+980299309+980804091+980770582+980177346
3026+979329638+978545410+977891886+977400009+977255707+977425401+977425817
3016+976900500+976102605+975466217+975061338+974725765+974343572+973841704
3006+973219955+972605004+972078092+971586007+971114734+970738438+970506583
2996+970508317+970920273+971803917+972970964+974117336+975008126+975658112
2986+976366512+977297610+978089192+978232246+977716989+976991522+976523649
2976+976630003+977376282+978423863+979275109+979770524+980101865+980386515
2966+980516249+980432650+980316653+980386932+980631205+980906906+981196899
2956+981545930+981845011+981930482+981811572+981626129+981507496+981596297
2946+981949769+982322319+982275976+981672958+980889146+980437437+980572166
2936+981337038+982630766+983980063+984644687+984350671+983687365+983511219
2927+984137825+985177080+986000575+986393869+986754556+987495424+988385035
2917+988799974+988486949+987778895+987173311+986870067+986663742+986291817
2907+985883399+985863141+986396158+987191001+987849798+988191892+988267304
2897+988241010+988263696+988393638+988657614+989100304+989640813+989981589
2887+989906316+989619099+989504073+989590446+989560198+989245994+988780132
2877+988304281+987863534+987575484+987643126+988154012+988932829+989630338
2867+989994008+990039102+989919636+989750497+989636790+989716225+990056307
2857+990606044+991287457+992069466+992923487+993713543+994190712+994220197
2847+993966141+993711115+993552312+993367425+992998413+992445068+991918642
2837+991656261+991698234+991950555+992353492+992826846+993203905+993395730
2827+993501321+993665188+993898222+994074230+994071455+993904397+993682740
2817+993498685+993433887+993557863+993812959+994063546+994320931+994733928
2808+995337362+995972501+996436281+996593071+996387093+995864690+995227747
2798+994796089+994791163+995139640+995558325+995807177+995829308+995742866
2788+995746126+995947942+996272275+996560880+996707611+996673825+996449948
2778+996084127+995733014+995571715+995571506+995509207+995313496+995211375
2768+995427828+995976317+996765818+997633506+998309299+998612404+998641125
2758+998623643+998677617+998750809+998709877+998512710+998316653+998340518
2748+998619896+998977669+999211398+999249763+999132309+998898372+998595337
2738+998404344+998558082+999038235+999504373+999625990+999380745+998998205
2728+998758371+998847173+999236373+999658735+999835575+999764257+999692452
2718+999818925+1000125082+1000451844+1000650121+1000711797+1000803512
2710+1001115289+1001667107+1002307657+1002856492+1003185613+1003210796
2701+1002910883+1002384803+1001840062+1001483607+1001420613+1001610704
2693+1001877594+1002047011+1002143097+1002274703+1002309947+1002001708
2684+1001507680+1001356024+1001741617+1002247785+1002428025+1002293504
2676+1002048260+1001688058+1001149352+1000631459+1000443866+1000595938
2667+1000771183+1000710548+1000486255+1000384896+1000556325+1000842571
2659+1000998667+1001002760+1001060689+1001401951+1002092036+1002865372
2650+1003215861+1002934263+1002436974+1002268737+1002459105+1002630118
2642+1002520503+1002183890+1001818694+1001538275+1001286925+1001040709
2633+1001062840+1001689654+1002792111+1003754567+1004152717+1004202737
2625+1004300003+1004386307+1004164372+1003769344+1003694210+1004053162
2616+1004456099+1004683722+1004935350+1005295828+1005541143+1005649716
2608+1005966280+1006652965+1007439691+1008033413+1008360660+1008353723
2599+1007922480+1007222475+1006657197+1006535165+1006854781+1007408264
2591+1007971460+1008398470+1008623457+1008602506+1008324723+1007933719
2582+1007687642+1007620486+1007463696+1007163713+1007147687+1007691249
2574+1008453000+1009090637+1009771564+1010542472+1010896846+1010664991
2565+1010662146+1011621619+1012950797+1013351028+1012449762+1011069870
2557+1010036442+1009453197+1009111172+1008932112+1008911646+1009030418
2548+1009234315+1009314167+1009038188+1008548323+1008323752+1008662031
2540+1009440778+1010302986+1010873327+1011002783+1010958868+1011162348
2531+1011731372+1012450595+1013018994+1013170581+1012830707+1012264459
2523+1011767794+1011262944+1010631412+1010301112+1010887272+1012247739
2514+1013441773+1013748762+1013396678+1013182167+1013563875+1014235367
2506+1014616034+1014610831+1014532436+1014365239+1013756532+1012776663
2497+1012023168+1011900511+1012309831+1012923741+1013332644+1013202147
2489+1012683491+1012415352+1012877120+1013943501+1015074194+1015675755
2480+1015395059+1014440998+1013599465+1013551179+1014111877+1014457024
2472+1014161065+1013684589+1013734887+1014412692+1015129279+1015294047
2463+1015015988+1014938980+1015328319+1015712317+1015630175+1015218982
2455+1014786006+1014410125+1014266309+1014686590+1015547409+1016171032
2446+1016141825+1015769829+1015567875+1015674506+1015872367+1015876391
2438+1015559203+1015063719+1014698522+1014687422+1015053312+1015651543
2429+1016241310+1016622393+1016775992+1016806448+1016738668+1016478230
2421+1016062944+1015861267+1016238882+1016997580+1017477594+1017304778
2412+1016716745+1016188098+1016047889+1016349745+1016864655+1017328921
2404+1017709796+1018027539+1018091504+1017732135+1017109206+1016538587
2395+1016185670+1016066482+1016188098+1016563285+1017110108+1017499725
2387+1017166095+1015718838+1013413051+1010910305+1008475755+1005771472
2378+1002594250+999344114+996435448+993654018+990480682+986790493+982964118
2368+979344971+975756348+971922065+968433483+966464379+966239045+966799396
2359+967591673+969177335+972078716+975963367+980119486+983894314+986620452
2349+987648052+986613653+983906178+980954151+979268934+979045196+979531176
2339+980273293+981405166+983020729+984685550+985808056+986354325+986775646
2329+987234223+987444849+987357782+987420151+988053694+989303576+991144196
2319+993606912+996285388+998327268+999321359+999790065+1000510120+1001693955
2309+1003136148+1004772524+1006615502+1008350601+1009550185+1010304442
2300+1011248514+1012886486+1015093689+1017192041+1018382814+1018395857
2292+1017932840+1018172604+1019652399+1021861475+1023922226+1025303783
2283+1025887584+1025840685+1025584271+1025528076+1025702141+1025829516
2275+1025716988+1025413536+1025096556+1024925128+1024948091+1025169679
2266+1025656006+1026375368+1027016820+1027253115+1027108882+1026860515
2258+1026674865+1026426706+1025878079+1025114733+1024582756+1024527117
2249+1024902997+1025946762+1027873061+1029906824+1030865880+1030864770
2241+1031082473+1031719277+1031571714+1029951155+1027884785+1026877582
2232+1027305217+1028497377+1029704662+1030542934+1031111333+1031943848
2224+1033279894+1034519369+1034946518+1034551837+1033706142+1032686936
2215+1031791151+1031338263+1031575599+1032771991+1034942842+1037363030
2207+1038909980+1039023688+1038061718+1036821133+1035830649+1035121763
2198+1034674009+1034617398+1034816091+1034888728+1034683236+1034152855
2190+1033091122+1031481039+1029748507+1028592284+1028838153+1030842431
2181+1033677767+1035893018+1037088023+1037710535+1037749039+1036634511
2173+1034280091+1031763747+1030708396+1031594330+1032999198+1033323046
2164+1032825619+1033144194+1035182675+1037785253+1038582802+1036897377
2156+1034809362+1034468794+1036368314+1039720919+1042820369+1043986722
2147+1043183900+1041714860+1040215779+1038424139+1036308581+1033973379
2139+1031534389+1030085051+1031210957+1034772939+1038756936+1041607673
2130+1043052155+1043020520+1041588803+1039630521+1038214345+1037718167
2122+1038083016+1039011478+1039592919+1038971378+1037647680+1036940876
2113+1037172176+1037484091+1037349432+1037279987+1037947455+1039145027
2105+1039865776+1039461798+1038426567+1037645183+1037250849+1036812460
2096+1036295677+1036145408+1036498048+1036852491+1036647276+1035967250
2088+1035561747+1036124041+1037475697+1038499481+1038250074+1037261879
2079+1037107171+1038350600+1039782941+1040164857+1039864597+1040045322
2071+1041036014+1042332863+1043619722+1044937592+1046092289+1046559399
2062+1045940355+1044193463+1041700707+1039434395+1038616103+1039581403
2054+1040894417+1040155838+1036466828+1032045553+1030532320+1033250271
2045+1038059151+1042271118+1045350103+1048180027+1050620196+1051060665
2037+1048993671+1046640639+1046271072+1047189751+1047601360+1047663035
2028+1048076448+1048049322+1047408355+1048272505+1051665279+1054433250
2020+1052760312+1047684750+1044068100+1044619988+1047689052+1050240153
2011+1050468400+1048609882+1046820253+1046937846+1047979599+1047526989
2003+1045311738+1043594746+1044375992+1047219513+1049768117+1050290728
1994+1049308847+1048474806+1048661844+1049547085+1050212610+1049614310
1986+1047203279+1043613200+1040351340+1038723428+1039378131+1042627226
1977+1048085953+1053631330+1056481859+1056006563+1053726584+1050724329
1969+1047158462+1044111460+1043392376+1045042072+1047281605+1049132770
1960+1051243333+1053880530+1055484160+1054092474+1049676818+1044513981
1952+1041367909+1041451369+1043730585+1045815686+1045893179+1044113056
1943+1042041275+1041072575+1041654919+1043670019+1046684484+1049714489
1935+1051627122+1052030822+1051364533+1050371898+1049771447+1049922757
1926+1050520710+1050979356+1051096602+1051004193+1050682634+1050140043
1918+1049929902+1050608055+1051591532+1051758243+1051122479+1050919762
1909+1051874240+1053190930+1053964544+1054506372+1055405280+1056291769
1901+1056390768+1055700683+1054796920+1053891352+1052854525+1051858491
1892+1051310697+1051322838+1051698926+1052427237+1053997012+1056748125
1884+1059825584+1061601059+1061668770+1061308985+1061523982+1062005314
1875+1062234880+1062322363+1062566151+1062949455+1063057543+1062483802
1867+1061706511+1061729058+1062720791+1063966718+1064701481+1064693919
1858+1064274817+1063986074+1064193300+1064888172+1065692520+1066106488
1850+1065978280+1065652420+1065526086+1065704869+1066138956+1066701250
1841+1067222681+1067669464+1067992687+1067910407+1067185426+1066012552
1833+1064795971+1063802019+1063256861+1063475951+1064604979+1066357629
1824+1068074204+1069196711+1069715298+1069901712+1070045598+1070345581
1816+1070555652+1070186293+1069235978+1068158288+1067319114+1066966822
1807+1067318698+1068242650+1069264839+1070020692+1070495087+1070952623
1799+1071668238+1072579078+1073358866+1073741823+1073634567+1073219004
1790+1072888426+1072711240+1072417917+1071805256+1070824832+1069677419
1782+1068886461+1068841297+1069329289+1069911564+1070425780+1070824762
1773+1071054814+1071198977+1071397810+1071755999+1072266885+1072562983
1765+1072266191+1071539337+1070840303+1070369238+1070059404+1069878957
1756+1069857519+1070014448+1070191982+1069953328+1069031596+1067979090
1748+1067563596+1067691387+1067804054+1067562971+1067004979+1066240592
1740+1065170117+1063849680+1062531602+1060983611+1058746853+1056554011
1731+1055512951+1055785808+1057368973+1059987854+1062912200+1065538990
1723+1067501920+1068398399+1068108268+1067307875+1067174742+1068007465
1714+1069084738+1069735070+1069607835+1068627063+1066527740+1062816530
1706+1057970048+1053085201+1046809223+1034719173+1013635957+984982064+946570409
1696+896152720+845603632+805815901+772857839+741335727+713277567+690933230
1686+668853425+638858907+605467661+581183878+568553318+567079768+578720225
1676+604389346+637027375+666070607+690386338+714873081+739404085+759101582
1666+773434980+785532592+797858105+810278802+821037384+829658624+836629336
1656+842370771+848315824+856630145+864545205+868977164+871813610+874926450
1646+878582644+881912632+884657571+887499289+891188506+895882846+901568433
1636+908800207+916828975+923121881+927227703+929979718+931419274+930828744
1626+927654089+922356176+917485829+916604335+920043868+925707254+932652366
1616+940316146+946813365+951210289+954236548+956755389+959377462+962209121
1606+964768339+966736403+968351272+969942832+971562349+973048942+974306108
1596+975561471+977117579+978767691+979989059+980677340+981168524+981782364
1587+982639785+983709010+984941270+986330667+987699390+988735732+989546392
1577+990926493+993218613+995275756+996238836+996430314+996860863+998123857
1567+999518595+1000290475+1000355827+999734910+998344126+996993788+997974975
1557+1000551676+1002388133+1003550601+1004555446+1005554810+1006489515
1548+1007108004+1007106616+1006427978+1005260585+1003786757+1002364754
1540+1002151769+1003186237+1003500650+1001740090+997554972+992032905+987143756
1530+983461476+980854943+979790296+980300905+981158672+981477525+981783474
1520+982844583+984709207+987480786+991072322+994563332+997041380+998136275
1510+997700592+996077398+995393834+997975045+1001415826+1003398667+1004062667
1500+1004041299+1003982468+1004446941+1005362707+1006002425+1005891700
1492+1005156521+1004533245+1005096996+1006956278+1009092857+1010734089
1483+1011812473+1012690012+1013622220+1014345189+1014335615+1013307738
1475+1011343490+1008748473+1005660262+1001563944+995718307+988042039+980106097
1465+975569379+976690152+981258088+986301252+990978733+995862193+999500141
1455+997214751+986428141+967973658+945957679+926839682+915197108+909787777
1445+905887864+900993860+896375140+894766583+898037810+906916644+919705381
1435+930980886+937406439+940214163+941390367+942001848+942269155+942128182
1425+941796495+941742728+942231345+943381880+945759818+949875144+954881122
1415+959594471+963732067+967564824+971420545+975257534+978737374+981911473
1405+985308756+989028638+992464702+995241345+997530690+999524701+1001183347
1395+1002537847+1003737847+1004671998+1005027828+1004748450+1004241449
1387+1004124134+1004462759+1004381658+1002401870+997016335+987949353+977342357
1377+968927095+965756395+968122817+973139201+977795315+981652978+985600483
1367+989758892+993342796+995690903+996452862+995067419+990455429+980839681
1357+963931940+938780573+908597074+880550986+861641117+855463653+861927572
1347+878070163+899112516+920059061+937750684+951787429+963353481+973358291
1337+981781185+988459198+993690302+997980178+1001619168+1004663881+1007236766
1327+1009583069+1011819341+1013872529+1015636280+1017060920+1018217144
1319+1019323278+1020539442+1021758452+1022804991+1023756694+1024856931
1310+1026136644+1027331996+1028192261+1028632175+1028518745+1027644119
1302+1026201650+1025064088+1025215953+1026886948+1029371032+1031698117
1293+1033430579+1034813732+1036234141+1037616392+1038390353+1038081698
1285+1036921450+1035776327+1035432776+1035972731+1036865117+1037571991
1276+1037932123+1038092243+1038341859+1038997602+1040174847+1041576801
1268+1042680992+1043229134+1043435944+1043636441+1043836037+1043785392
1259+1043444963+1043118340+1043092116+1043380651+1043813420+1044164464
1251+1044248201+1044066366+1043778246+1043419363+1042843194+1042009847
1242+1041079512+1040137176+1039063232+1037709980+1036065487+1034307009
1234+1032811397+1032011906+1032118398+1032927255+1033824289+1033912605
1225+1031999210+1026356289+1015281213+999414601+983727395+975389556+978221839
1215+989756117+1004080219+1016487110+1025241622+1030644778+1033784329
1207+1035874425+1037914363+1040480727+1043631585+1047001950+1050160509
1198+1052908569+1055170025+1056705875+1057084183+1055889248+1052949709
1190+1048608078+1043960706+1040652780+1040031446+1042291237+1046439101
1181+1051064134+1055178628+1058514512+1061162463+1063040407+1063887005
1173+1063765943+1063261231+1063019733+1063278159+1063889363+1064605464
1164+1065236649+1065637574+1065606355+1064805962+1062857392+1059573470
1156+1055042720+1049380166+1042344102+1033168892+1020764083+1004175958
1147+982977022+957295968+927689124+895250274+861793051+829587999+800763649
1137+776952700+759295557+748446162+744458210+746706068+753942213+764474074
1128+776425302+788080224+798219069+806151543+811341576+813085693+810778102
1118+804583155+795843559+786783722+779619312+775617416+774717329+775831719
1108+777433338+778050925+776713005+773434009+769401379+766420145+765896147
1098+768161349+772513317+777777652+783098875+788484896+794572448+801856116
1088+810273876+819433892+828947865+838526011+847936961+856947679+865328809
1078+873014026+880177950+886956004+893139157+898382470+902743527+906778724
1068+910952673+915127177+918880845+922180585+925357737+928537456+931555598
1058+934362905+937050331+939589222+941978885+944511185+947495333+950790632
1048+953866634+956289667+957993268+959013098+959064784+957670322+954873074
1038+951625714+949247498+948567542+949539502+951379567+953102594+954296766
1028+955379104+956868611+958670588+960370444+961811665+962961089+963635357
1018+963829471+964009225+964717903+966062899+967741733+969421470+970999778
1009+972558037+974129199+975614474+976960858+978313277+979941814+982067431
999+984716491+987639935+990401385+992676299+994517890+996252642+998031101
989+999563621+1000369841+1000172744+998956510+996782537+993633066+989331049
979+983660378+976670727+968659233+959607652+948776017+935107173+918078926
969+898201191+876886397+855969822+837225277+822005112+811013218+804264372
959+801300482+801523804+804340547+809068118+814903002+821048623+826839661
949+832043708+837397955+844436932+854077795+865495450+876899162+887155946
939+896211343+904405434+912016141+919178816+925764212+931463328+936076359
929+939392194+940886418+940227552+938302155+937132819+938384019+942145457
919+947258482+952499090+957300339+961666183+965747862+969523036+972759228
909+975278277+977227054+978971310+980793615+982853463+985248191+987799084
899+989982838+991503287+992761563+994308929+995970211+997008496+997184434
890+997174443+997732436+998838084+999968986+1000819607+1001384607+1001748277
880+1002162522+1002938495+1004043727+1005216393+1006512756+1008215387
871+1010202529+1011887260+1012878230+1013469731+1014358579+1015875004
863+1017591856+1018878715+1019693053+1020455775+1021283988+1021885618
854+1022202390+1022588815+1023233112+1023909252+1024461348+1025029400
846+1025587046+1025735719+1025272217+1024596562+1024226579+1024234973
837+1024525729+1025338679+1026994550+1029338286+1031893758+1034386653
829+1036646305+1038213166+1038630464+1038147952+1037702835+1038053323
820+1039125671+1040312975+1041264123+1042158173+1043206170+1044204563
812+1044888612+1045569817+1046906419+1048859844+1050253265+1049616322
803+1046222924+1040031793+1030560348+1016033390+994710479+968472265+944572167
793+931130252+929063675+929240168+919231265+893235937+855841337+818562804
783+794024723+789760585+802332661+816951820+816265412+791792614+747722221
773+695966334+649593970+619191242+611349929+627510558+663162358+709278099
764+756472293+798644414+833487219+861166237+883084257+900777406+915092905
754+926394634+935339722+943043324+950495714+957986955+965165310+971638039
744+977304756+982024140+985325892+986671027+985859395+983390921+980738461
734+979841565+981715694+985618729+989707692+992178733+991720504+987395522
724+978472704+964445532+945476832+922953436+899119662+875835278+853899359
714+833397585+814606905+799480744+792590717+799137332+820684398+852902839
704+887708180+917923940+940688557+957089852+969512838+979770247+988662956
694+996170501+1002112224+1006787971+1010719104+1013998447+1016404760+1018031563
684+1019310651+1020392851+1020987127+1021179022+1022006125+1024546403
676+1028660758+1033004887+1035863533+1036134447+1034571748+1034893307
667+1040055589+1045870771+1047857150+1046316166+1043326122+1040180120
659+1036415837+1030779091+1022572026+1011551688+996826314+976316284+947424846
649+908167982+857901949+798042992+733386603+672403266+624711228+597323243
639+592088185+605838407+633272389+669266422+708930524+747510832+780603899
629+803632424+811443905+799982751+770200315+730461772+693505075+670060710
619+664650477+675509654+696706301+721278237+744421718+764324637+780767003
609+794053931+804902702+813828088+819902944+821287485+818665342+817347750
599+823269701+836880269+853333874+867819206+878542337+886055917+891858334
589+897060577+901541377+904573740+905807319+904958431+900897496+891940267
579+877354755+858513084+838922704+823274905+815394810+816644067+826128347
569+841292109+858556444+874993398+889544152+902078903+912161068+919544221
560+924837832+928694177+931363773+933706676+937175624+941911451+945922228
550+947082544+945759610+944677619+945899333+948854135+951925002+954621933
540+957025193+958570964+958806982+958191060+957261974+956232709+955807502
530+957070912+960157875+963876924+966925037+969073479+970606762+971124308
520+970081029+968425297+968461858+971275618+975400518+978687145+980519301
510+981762800+983043554+984163633+985328181+987127869+988616266+987604067
500+983926366+979558164+974889285+967916769+957567992+946197859+938092292
490+936287054+941091702+950559124+961249093+969680937+974733327+978019747
480+981324620+984609028+986590204+986701067+985986839+985990724+987243242
470+989234200+991551781+994195152+997101807+999764395+1001089134+1000138611
460+997631494+996089608+997429332+1000416601+1002648641+1003735211+1004138148
450+1003354960+1001022463+998606021+998302223+1000594065+1003952428+1006542657
441+1007393903+1006391417+1004140299+1002178548+1002318549+1004663256
432+1007037795+1007254110+1005451578+1003286555+1001178282+997826094+992365841
422+984840050+973544219+955197131+931837751+909750592+888759577+866122819
412+843774181+827809471+823098828+830003771+845420687+865822698+888732728
402+911059929+928049186+935454193+935088719+936306410+943233970+951128703
392+957285631+963628072+970987221+976137848+976125152+973724389+975498616
382+983023088+991502662+996953550+999020336+998530887+995408126+991036940
##END=
