##TITLE=X8842
##JCAMP-DX=4.24
##DATA TYPE=INFRARED SPECTRUM
##DATE=2/11/2018
##SAMPLING PROCEDURE=ATR platinum Diamond 1 Refl
##ORIGIN=ComPlat
##XUNITS=1/CM
##YUNITS=TRANSMITTANCE
##RESOLUTION=4
##FIRSTX=3997.453
##LASTX=373.96442
##DELTAX=-1.4165319
##MAXY=0.97149092
##MINY=0.60430163
##XFACTOR=1
##YFACTOR=9.0477143e-010
##NPOINTS=2559
##FIRSTY=0.96881741
##XYDATA=(X++(Y..Y))
3997+1070786926+1071252157+1071142799+1070614391+1070304829+1070704841
3989+1071692618+1072696601+1073196286+1073017427+1072344943+1071586752
3980+1071198796+1071546303+1072635993+1073741823+1073706381+1072228207
3972+1070538697+1070128869+1071108938+1072323335+1072764323+1072337697
3963+1071476077+1070644365+1070208779+1070290336+1070598382+1070627962
3955+1070114508+1069301637+1068831333+1069221595+1070229136+1070976457
3946+1071001952+1070647725+1070339481+1070260691+1070553190+1071029357
3938+1071005377+1070185327+1069382009+1069653427+1070750890+1071175277
3929+1070309836+1069229303+1068905183+1069033711+1068967240+1069007360
3921+1069786369+1070919934+1071210588+1070194681+1069053870+1069265075
3912+1070827968+1072368001+1072718670+1072068255+1071206503+1070293433
3904+1069201173+1068609061+1069035490+1069108549+1067337020+1064879568
3895+1064291935+1066535217+1069770426+1070752340+1069236418+1068254636
3887+1068814271+1068811834+1067444797+1067169558+1068461691+1068446605
3878+1066649055+1065988692+1067061715+1067591310+1066678239+1065933552
3870+1065875580+1065508968+1065257577+1066044952+1067347560+1068174792
3861+1068352004+1067901991+1067015601+1066877718+1068834298+1071549267
3853+1070014570+1064579493+1061587441+1062543201+1065808911+1069551118
3844+1071719694+1070567749+1066749914+1063316807+1062459469+1063558778
3836+1064952298+1065950351+1066208725+1065587890+1065106321+1065993699
3827+1067597766+1068101140+1067441964+1066995969+1066216697+1063501266
3819+1061209893+1062481934+1065585255+1066584626+1065216205+1064149836
3810+1065038466+1067792962+1070332498+1069998430+1067607318+1065868201
3802+1064863296+1063671759+1063870184+1066317622+1068593975+1068553262
3793+1067454810+1067512915+1068928372+1070617487+1071843677+1072241383
3785+1071350447+1069479113+1068118335+1068305494+1069340440+1069750202
3776+1069131672+1068210235+1067971492+1068992274+1070540871+1070857283
3768+1069514753+1067848564+1066777715+1066610977+1067830513+1070211085
3759+1071890516+1070880473+1067782093+1065055726+1064830884+1067874454
3751+1071448210+1070376307+1065327935+1061430321+1061190130+1063274250
3742+1064991363+1065852061+1066284551+1066046072+1064921928+1063605222
3734+1063089396+1063399550+1064176451+1065320161+1066350166+1066262680
3725+1064934708+1064335678+1066252995+1069378912+1070886006+1069912262
3717+1067993759+1066957562+1067338469+1068011151+1067243210+1065235771
3708+1063721299+1063411738+1064507950+1067024362+1069463171+1069226339
3700+1066384225+1064301092+1065187680+1068090929+1070468734+1070539026
3691+1068230723+1064498266+1060795059+1059026231+1060243198+1063671298
3683+1067154801+1068240604+1066256355+1063532822+1062868902+1063544285
3674+1062565863+1061108507+1061692516+1063139266+1063428010+1063928025
3666+1066238436+1069018691+1070085587+1068821254+1066816056+1066359981
3657+1067915891+1069083647+1067747045+1065187021+1063480712+1063114627
3649+1063496523+1064040544+1064496948+1064803874+1064973313+1064985303
3640+1064968636+1065325036+1066271639+1067222194+1067024165+1065363245
3632+1063562335+1062979511+1063010342+1062254127+1061491654+1061492510
3623+1061540733+1061100931+1060312963+1059210097+1058022841+1057767168
3615+1058698553+1059727306+1060109531+1060350711+1060642880+1060151495
3606+1058859691+1058154466+1058799742+1060051031+1060632076+1060205713
3598+1059815714+1060501901+1061830597+1062407623+1062021182+1061824800
3589+1062059260+1061219116+1058675957+1056797640+1057283162+1059036969
3581+1060367246+1060684976+1060366785+1059870130+1059434148+1059252061
3572+1059505956+1060133511+1060450187+1059181967+1056079437+1053592801
3564+1053775283+1055496218+1056699877+1056768983+1056398616+1056069621
3555+1055782590+1055737793+1055948405+1055612822+1053991561+1051505255
3547+1049385429+1048657475+1049189244+1049780104+1049531085+1048659254
3538+1047857320+1047293008+1046611301+1045740590+1045088067+1044867836
3530+1044703075+1044082767+1043082341+1042238443+1041678676+1040940248
3521+1039739817+1038336942+1037035849+1035836604+1034643485+1033521054
3513+1032654098+1032136427+1031793268+1031303662+1030615236+1029977140
3504+1029371523+1028291978+1026454637+1024414325+1022942740+1022187381
3496+1021741650+1021174373+1020304914+1019186040+1018019141+1016951520
3488+1015944902+1014959826+1014020338+1012954826+1011560779+1010174176
3479+1009345561+1008859314+1007954874+1006461812+1004897865+1003518707
3471+1002143764+1000844186+1000025848+999841719+999905687+999530906+998256494
3461+996399192+994833532+993937919+993184471+991976069+990368115+988772020
3451+987436012+986346783+985246025+983769433+981916742+980231844+979253619
3441+978987011+979010265+978900842+978401683+977354814+975773410+974042067
3431+972793281+972308089+972099716+971363133+969856895+968076144+966523792
3421+965141734+963620543+962008637+960697464+959934727+959606852+959475952
3411+959408427+959266987+958795365+957810817+956411170+954843995+953322672
3401+951990221+950852374+949806954+948925702+948471011+948401378+948171200
3391+947273940+945767834+944190910+943147532+942904508+943140549+943175925
3381+942586053+941528116+940459507+939665939+939163025+938939237+939003732
3371+939141483+938968355+938385202+937731757+937398216+937475425+937766343
3361+937937495+937757516+937382603+937296962+937816411+938762684+939702172
3352+940294021+940333087+939811925+939164541+939163289+940251266+942015943
3342+943448727+943825616+943417303+943211829+943780555+944696656+945333302
3332+945793461+946584855+947819543+949234737+950674371+952117629+953444349
3322+954513221+955382154+956263998+957309879+958501154+959720097+960899183
3312+962088349+963340099+964567080+965641618+966615165+967696356+969002720
3302+970408756+971624208+972409343+972826352+973285720+974184561+975497249
3292+976885696+978137446+979276018+980305364+981157168+981937758+982961306
3282+984392574+985953359+987133104+987738392+988131817+988817608+989922318
3272+991292122+992878599+994635964+996209792+997181560+997597910+997992191
3262+998882599+1000291798+1001657781+1002349238+1002419135+1002617296
3254+1003516401+1004930870+1006309502+1007333314+1008016931+1008572218
3245+1009295559+1010368385+1011675868+1012869382+1013615979+1013849385
3237+1013862297+1014022644+1014398611+1014888349+1015592915+1016600192
3228+1017479928+1017595676+1017008900+1016597425+1017117071+1018381734
3220+1019489079+1019874927+1020011229+1020778841+1022318874+1023966486
3211+1025193664+1025983806+1026354568+1026234340+1025858440+1025722533
3203+1026061015+1026681323+1027305321+1027837748+1028311675+1028749106
3194+1029154454+1029583123+1030119635+1030706740+1031121048+1031273490
3186+1031387854+1031700314+1032191238+1032761084+1033371972+1033945243
3177+1034459290+1035122288+1036076466+1037100344+1037872436+1038222710
3169+1038014733+1037311813+1036708633+1036894739+1037816505+1038717784
3160+1038992298+1038697493+1038322449+1038317311+1038821410+1039658655
3152+1040463093+1040864027+1040815014+1040827992+1041582362+1043074963
3143+1044381656+1044486995+1043265812+1041620572+1040826082+1041591651
3135+1043392364+1044812630+1044854134+1043800545+1042690169+1042320131
3126+1042820410+1043720239+1044330337+1044354184+1044128288+1044150160
3118+1044545429+1045119754+1045700272+1046184279+1046379212+1046162934
3109+1045817140+1045800275+1046111286+1046283623+1046070376+1045726953
3101+1045623261+1045917011+1046562683+1047355921+1047981434+1048139871
3092+1047683270+1046782782+1045971756+1045759035+1046106345+1046475197
3084+1046429148+1046068333+1045884863+1046266692+1047143267+1048070633
3075+1048565905+1048390735+1047719700+1047104794+1047085030+1047702177
3067+1048445743+1048695948+1048230058+1047409283+1046915526+1047198473
3058+1048052055+1048768019+1048785279+1048154759+1047359347+1046844839
3050+1046757748+1046936278+1047057362+1046892930+1046486923+1046159443
3041+1046341662+1047174691+1048112795+1048234735+1047233124+1045838221
3033+1045039844+1045148345+1045721485+1046080982+1045766480+1044831142
3024+1043905489+1043702716+1044280203+1044950843+1044953017+1044067417
3016+1042667968+1041428669+1040912514+1041168780+1041690403+1041826836
3007+1041241772+1040041012+1038608821+1037300680+1036174954+1034996592
2999+1033442264+1031250169+1028343363+1024952352+1021398886+1017526768
2990+1012543812+1005649864+996732601+986358180+975230508+963690571+951535728
2980+938278019+923718294+908282523+892732057+877628311+863101592+848959140
2970+834982634+821356008+808868546+798507102+790741982+785242740+781253160
2961+778278566+776669361+777675188+782670397+791966590+804228881+817044153
2951+828100215+835963691+840051297+840166386+836084644+827453489+814119032
2941+796659287+776490765+755312397+734490628+714927328+697331017+682665559
2931+672394237+667905301+669394279+675521274+684296240+694135599+704176940
2921+714139887+724239267+734931484+746290717+757585851+767747157+776379167
2911+784092771+791707558+799387959+806737322+813457418+819646602+825599218
2901+831583652+837851231+844706575+852345868+860540580+868662035+876237426
2891+883407272+890579753+897607829+903584951+907624730+909630126+910042325
2881+909012255+906089638+900642637+892562948+882902646+873963445+868280074
2871+866873576+868199834+868884835+865838301+858068306+846919751+835015705
2861+824957631+818388791+815506755+815216496+816131807+817907947+821645542
2851+828818023+839852741+853834055+869323978+885136309+900481235+914812560
2842+927696872+938800300+948013159+955533344+961784519+967293643+972486421
2832+977370757+981515347+984585334+986859183+989054242+991663279+994506645
2822+996925360+998446618+999284324+1000137248+1001517790+1003356054+1005212894
2812+1006717090+1007753221+1008404360+1008893703+1009536146+1010559958
2803+1011890433+1013135002+1013843456+1013895697+1013718683+1014017572
2795+1015120767+1016617584+1017741201+1018068286+1017795682+1017500416
2786+1017735272+1018683653+1020027765+1021154742+1021588417+1021353496
2778+1021017188+1021252439+1022153454+1023069160+1023317850+1022948537
2769+1022595628+1022802947+1023720629+1025163755+1026585471+1027186148
2761+1026572361+1025382404+1024837131+1025472065+1026611493+1027277389
2752+1027231340+1026837059+1026389022+1026078407+1026220111+1026899446
2744+1027544327+1027382991+1026389945+1025433328+1025344854+1025999748
2735+1026520778+1026346004+1025790388+1025473843+1025585902+1025947112
2727+1026410894+1026849642+1027030214+1026919934+1026947537+1027564486
2718+1028565635+1029175403+1028887714+1028000862+1027250972+1027151957
2710+1027752568+1028743177+1029589052+1029764420+1029160647+1028283414
2701+1027881425+1028293032+1029166707+1029796305+1029743734+1029191873
2693+1028712939+1028714454+1029163611+1029773116+1030233933+1030257254
2684+1029684378+1028743836+1028038808+1028073921+1028735667+1029296949
2676+1029088971+1028225704+1027507567+1027532996+1028094805+1028519653
2667+1028413523+1027978925+1027733661+1028031034+1028828028+1029803354
2659+1030563455+1030789813+1030458775+1029993214+1029952699+1030434334
2650+1030938039+1030951346+1030526959+1030080503+1029796502+1029613954
2642+1029695709+1030333475+1031278233+1031750645+1031425603+1030902530
2633+1030852397+1031102602+1031032047+1030605025+1030440725+1030874400
2625+1031494248+1031759341+1031666914+1031627980+1031950585+1032559431
2616+1033070184+1033123941+1032721228+1032173451+1031775415+1031720605
2608+1032194137+1033131780+1033919221+1033883318+1033187052+1032708908
2599+1032894619+1033264195+1033227237+1032894553+1032834011+1033275921
2591+1033782524+1033780943+1033332511+1033037772+1033149106+1033315646
2582+1033277107+1033167157+1033068274+1032922946+1032904566+1033308663
2574+1034048474+1034634855+1034730642+1034574840+1034707321+1035231514
2565+1035590088+1035313202+1034686174+1034315939+1034332607+1034420620
2557+1034450133+1034622141+1035013918+1035316101+1035243372+1035004498
2548+1035052523+1035399173+1035475724+1034852780+1033903213+1033422895
2540+1033659793+1034157898+1034531163+1034834730+1035121629+1035270843
2531+1035358000+1035625465+1036013948+1036138326+1035779620+1035202000
2523+1034909238+1035043563+1035183884+1035012930+1034901464+1035326115
2514+1036080748+1036683402+1037085126+1037311747+1037028076+1036235496
2506+1035772175+1036272256+1037104494+1037140398+1036308423+1035700368
2497+1036177787+1037423938+1038495906+1038860739+1038561257+1037815188
2489+1037099027+1037149094+1038038910+1038702698+1038313951+1037642521
2480+1038025537+1039405090+1040372313+1039977176+1038710340+1037603258
2472+1036952975+1036412642+1036058416+1036529708+1037913675+1039229855
2463+1039463788+1038644462+1037576643+1036920826+1036870232+1037384147
2455+1038211313+1038715412+1038234107+1036915490+1035812624+1035802940
2446+1036659488+1037464782+1037715448+1037674736+1037730930+1037863147
2438+1037921054+1038005575+1038139637+1037814397+1036513107+1034775176
2429+1034052361+1035052720+1036654810+1037102321+1036116125+1035173146
2421+1035648127+1037237568+1038479305+1038479437+1037653852+1036812193
2412+1036241228+1036017242+1036412840+1037320048+1037882383+1037453649
2404+1036492948+1035911508+1035948926+1036190897+1036356317+1036517125
2395+1036659488+1036586429+1036367582+1036407702+1036822536+1037091253
2387+1036538140+1035009834+1033091924+1031805192+1031921270+1033313604
2378+1034979661+1035817829+1035547597+1034959173+1035048965+1035858080
2370+1036648025+1037235131+1038207097+1039500745+1039867621+1038484114
2361+1036354801+1035220775+1035391927+1035806893+1036012301+1036271531
2353+1036034897+1034706597+1033296739+1033270717+1034547106+1035367881
2344+1034414954+1033062081+1033569606+1035537122+1036464225+1035216954
2336+1033442000+1033272957+1034662590+1035752412+1035367881+1034186028
2327+1033432053+1033477706+1033921461+1034298086+1034363174+1033982662
2319+1033362156+1033352999+1034611666+1036252493+1036375619+1034469633
2310+1032284983+1031646031+1032478862+1033627118+1034521281+1035191196
2302+1035393705+1034827615+1033975349+1033789903+1034569570+1035741476
2293+1036627405+1036948693+1036713903+1036058482+1035331912+1035169786
2285+1036078245+1037644300+1038548345+1037863345+1036038982+1034361725
2276+1033950645+1035176176+1037206079+1038277323+1037337044+1035423417
2268+1034774846+1036486689+1039330450+1041011067+1040467705+1038588860
2259+1036880048+1036237934+1036847109+1038160521+1038955736+1038439910
2251+1037290930+1036791112+1037089738+1037113915+1036240108+1035259841
2242+1035231052+1035942668+1036322785+1036078377+1036042144+1036957191
2234+1038605001+1040240820+1041376427+1041883030+1041673340+1040837149
2225+1039928558+1039405947+1038941045+1038049450+1037258386+1037797730
2217+1039979745+1042365126+1042856248+1040757107+1037692918+1036234640
2208+1037560437+1040516915+1042685953+1042455511+1040482198+1038924378
2200+1038982548+1039789423+1040044965+1039858134+1040272508+1041490726
2191+1042552681+1042821332+1042958095+1043857332+1044856571+1043873406
2183+1040093187+1036007887+1035277826+1038600850+1043254020+1046435736
2174+1047310795+1046208390+1044050816+1042550837+1043250331+1046166558
2166+1049728917+1051806120+1051273232+1049258481+1048103704+1048446731
2157+1048577499+1047347621+1045381159+1043605084+1042590627+1042535685
2149+1042970678+1042589573+1040062225+1035988256+1033258595+1034008289
2140+1036913184+1038841964+1038462374+1036950142+1035787723+1035278089
2132+1035020506+1034708639+1034098080+1032800150+1030879275+1029417242
2123+1029585363+1031197664+1032942380+1034006905+1034666740+1035175385
2115+1034897907+1033254116+1031186663+1030530978+1031653804+1032852654
2106+1032632687+1031434035+1030514245+1030308310+1030565037+1031129151
2098+1031885564+1032420757+1032385183+1032230501+1032993897+1034885456
2089+1036453157+1035902153+1033344698+1031058859+1031148321+1033290810
2081+1035187112+1035190933+1033971924+1033237646+1033543123+1034285306
2072+1035167480+1036264746+1036893487+1035845629+1033036652+1030170229
2064+1029388651+1031211103+1033895242+1035126174+1034316203+1032712071
2055+1031418027+1030395335+1029381207+1028622093+1028421165+1028728684
2047+1029521659+1031131523+1033688911+1036317119+1037419194+1036247288
2038+1033805911+1031765534+1030992190+1031550969+1033374936+1035920401
2030+1037706884+1037652864+1036627735+1036148010+1035921785+1034546447
2021+1032180039+1030416481+1029807636+1029253864+1027910346+1026736463
2013+1027682605+1031230999+1035161946+1036718712+1035792070+1034467064
2004+1033879167+1033359060+1032125887+1030391711+1029121976+1029251295
1996+1030973810+1033770139+1036901063+1039348765+1039790082+1037902871
1987+1035467884+1034939608+1036631358+1038246031+1037823159+1036137206
1979+1035297260+1035778697+1036074161+1035218206+1033990304+1033180662
1970+1032211990+1030124048+1027213948+1024955317+1024534092+1026231903
1962+1029530223+1032737961+1033609133+1031715005+1029202282+1028290726
1953+1028881521+1029357029+1028942985+1028213188+1027751711+1027543602
1945+1027612181+1028201198+1029054517+1029210912+1028166348+1026706291
1936+1025986639+1026035586+1025896979+1025380560+1025366001+1025951921
1928+1025922276+1024722767+1023553430+1023847049+1025526019+1027310130
1919+1028067926+1027309735+1025363102+1023312843+1022143572+1022141267
1911+1022894254+1023540057+1023563378+1023475760+1024042905+1025018098
1902+1025416595+1024907357+1024068334+1023357245+1022834041+1022816056
1894+1023741776+1025128708+1025654481+1024879293+1024271172+1025135757
1885+1026432304+1026310298+1024667890+1022939248+1021960761+1021522078
1877+1021429651+1021662399+1021861350+1021602318+1020940704+1020267100
1868+1019891331+1019949897+1020493655+1021376092+1022147064+1022248516
1860+1021484001+1020385944+1019899961+1020418488+1021288540+1021610091
1851+1021241240+1020724755+1020634107+1021076940+1021305734+1020241012
1843+1018426465+1017809253+1018848085+1020289169+1020845839+1020337524
1834+1019608846+1019374583+1019369642+1018982740+1018667579+1019161599
1826+1019600018+1018795712+1017628549+1017888438+1019471819+1020628178
1817+1020214727+1018869034+1017849504+1017508915+1017430190+1017425183
1809+1017658392+1017972367+1018028693+1017908597+1017901351+1017898057
1800+1017373535+1016093128+1014673125+1014107495+1014668118+1015321893
1792+1014854026+1014056110+1014448546+1015499566+1015536919+1014181806
1783+1013088954+1013618548+1014895661+1015188160+1014235892+1013083486
1775+1012225884+1011008127+1009222303+1008480647+1009479359+1010462129
1766+1010176745+1009329487+1008590795+1007534703+1006257590+1005579045
1758+1005014469+1003614296+1002217614+1002136584+1002660446+1001741183
1749+999004869+996608750+995880731+996188382+996623243+996613164+995585070
1740+993752736+992870232+994109202+996113017+996293919+995068520+994985513
1730+996024806+997352448+998929439+1000269597+1000300890+999273125+998704663
1720+998853086+998034287+995653781+994789460+997112191+1000650044+1003349005
1710+1004653391+1004742261+1003554215+1001756137+1001597700+1004064112
1701+1006696997+1006111406+1003624902+1002725929+1003321072+1004599635
1693+1006454631+1007511448+1006126558+1003382998+1002236652+1003149789
1684+1003497494+1002512879+1002514856+1003661596+1004779153+1005030939
1676+1004108975+1003037072+1003414290+1004636329+1004291325+1002222554
1667+1001619045+1003516071+1005804809+1006417015+1005513562+1004584483
1659+1004268202+1004991149+1007253865+1009156161+1005219350+998286995+997071346
1649+1000358401+1003178117+1002658602+1001462387+1002120114+1003563965
1640+1004429933+1004566366+1003976691+1002035922+999777686+999871167+1002162012
1630+1004433358+1004802078+1003397886+1002244426+1002380464+1002900045
1622+1003297290+1004308388+1005686690+1005584183+1003401641+1002221039
1613+1003853433+1006433550+1007775092+1007374883+1006311544+1005792424
1605+1006141249+1006999443+1007864028+1008340854+1008192364+1007492673
1596+1006746471+1006536056+1006858728+1007086402+1006819201+1006469058
1588+1006675323+1007359928+1007813433+1007586615+1006948190+1006566953
1579+1006761887+1006818476+1005453218+1003485570+1003520419+1005401833
1571+1006749502+1006032616+1004525258+1003761665+1003371469+1003497494
1562+1005329235+1008317533+1007633718+1000340021+996509142+999498231+1004065890
1553+1006602264+1006290858+1004281048+1002579350+1002308591+1002875604
1544+1003287936+1003221135+1001476551+997176356+995149945+998319605+1003719701
1534+1006888241+1005325217+1002042048+1000847612+1001486432+1002085792
1526+1002143040+1002072221+1000868561+997847061+996003001+997673143+1000578829
1516+1001719180+1000916784+999633874+998892020+999152370+999828609+998506765
1506+995262728+994325414+995829017+997632628+998553538+998386471+997059752
1496+995019045+993757611+993802210+993771379+991737853+987762372+984309699
1486+982554772+981375093+978955982+974082450+967147987+959420417+951143358
1476+940964397+925692135+901584298+872370710+849453291+837038756+832047039
1466+831617777+834143149+837895304+841921907+846556037+852121026+858011057
1456+863522751+869898172+878404026+888538190+898702065+907165954+913155001
1446+917372913+921017094+924457381+927493374+930273168+933174111+936072683
1436+938586262+941076192+944005595+946876761+948880510+949904585+950614620
1426+951339872+951702861+951577099+951373799+950779908+948548550+945081318
1417+942856812+942439342+942523205+942167265+941034623+939012164+936314192
1407+933379321+930701837+928864693+927876126+926776620+924768787+922391706
1397+920682499+919609542+918707275+918119576+917678522+915837426+910095686
1387+899112354+884249787+867057507+847399014+825567992+804297065+787922991
1377+779868666+780912834+788532825+797866042+805040895+808655628+808697394
1367+806487578+804566572+805335238+809956523+817817167+827416136+837949653
1357+849130357+860393540+870866185+879849590+887295926+893760876+899701436
1347+904868323+908667514+911060735+912752880+914520259+916695225+919317438
1337+922428730+925894315+929230449+931978621+934154839+936155030+938318270
1327+940672754+942931781+944643690+945481199+945390748+944519707+943258339
1317+942167595+941355449+940136506+937857914+934948077+932655255+931777758
1307+932021837+932489440+932533973+932121181+931545670+931087619+931030239
1298+931722552+933268844+935194659+936753928+937602702+937922738+937921354
1288+937595324+937122450+937095506+937963055+939323570+940127745+939797629
1278+938960911+938750365+939452626+940183543+939924576+938593443+936909664
1268+935437815+934172757+933007176+932104975+931638689+931562534+931943639
1258+933217393+935753767+939242211+942762211+945568487+947619339+949116024
1248+949763013+948940459+946543352+943118743+939052087+934048841+927688439
1238+920212458+912445361+905094483+898509371+893070275+889317265+887484469
1228+887146449+887512336+887979807+888238774+887867287+886180346+882822011
1218+878339729+873729051+869373058+864755726+859245811+852901814+846395229
1208+840351438+835072229+830858730+828214316+827544862+828839960+831731483
1198+835727123+840402362+845519182+850965063+856539538+861908539+866792611
1188+871073570+874688895+877464736+879046074+879034085+877313216+874274061
1179+870628695+866928847+863249620+859321242+854883625+849804883+843913798
1169+836966488+828873229+819815382+810113445+800157086+790429851+781318512
1159+772862791+764967693+757940803+752594068+749711703+749529088+751767693
1149+756080931+762390409+770824851+781384587+793643386+806711630+819543832
1139+831444715+842322116+852419059+861904059+870820268+879208200+886982939
1129+893770428+899226059+903632186+907864921+912459064+916820196+919689254
1119+920367601+919139962+916462939+912184418+905812554+897323697+887520702
1109+877805326+869934273+865771435+866470994+871456124+878544083+885509377
1099+891479121+896700490+901406955+905425850+908584969+910770608+911492368
1089+910029545+906366655+901554587+896783628+892379280+888010506+883631982
1079+879880619+877652752+877588126+879907299+884389317+890330470+896664125
1069+902366272+907010087+911061591+915452895+920572219+925719342+929760372
1060+932237917+933673731+934919222+936359450+937715617+938591006+939122906
1050+939883403+941249451+943216572+945636605+948139974+949986406+950626610
1040+950418171+950285559+950617914+950914826+950638797+950022705+949698453
1030+949749442+949622890+949026628+948455332+948602241+949578686+950950137
1020+952263813+953253368+953700615+953449751+952632203+951740806+951357132
1010+951687972+952356503+952819297+953020621+953406337+954243385+955210475
1000+955760887+955642570+954955725+953921372+952747029+951564714+950341226
990+948882882+947016291+944788161+942544879+940848385+940175111+940561552
980+941627855+942953784+944196180+944922355+944835593+944268251+944008823
970+944551988+945765068+947154240+948188460+948503621+947989508+946633934
960+944393419+941364409+937834461+933924133+929336578+923508209+915815752
950+905794240+893556061+880067712+866949533+856129249+849554546+848648788
941+853585629+863018322+874521828+885432761+893714168+898531045+900230701
931+899775022+898137423+896057585+894006667+892023472+889593821+886039828
921+881199499+875482002+869049464+861146988+850543047+836710090+820580754
911+804341730+790727094+782355631+781011849+786848651+798164009+812198817
901+826366566+838978472+849286620+857230270+863190066+867830587+871914636
891+875991042+880268509+884905999+890157277+895900004+901266634+905256609
881+907753851+909620376+911735129+914199828+916637648+919025137+921833719
871+925307077+928975039+932147598+934678043+936898070+938908472+940452326
861+941605918+943007804+945023214+947078150+948289188+948627340+949104561
851+950697758+953181495+955234126+955830257+955321809+954952628+955604822
841+957324043+959636431+961699075+962415171+961377854+959829520+959697830
832+961335692+963009457+963000630+961564750+960384807+960642324+962120300
822+963820812+964792778+964311011+962071946+958847409+956347729+955676234
812+956187975+956350892+955458309+954113868+953257716+953186634+953571230
802+953934284+953724858+952342537+949708796+946604882+944008361+942297243
792+941204984+940245403+939194383+938364978+938309706+939231209+940770847
782+942102507+942131098+940151395+936555372+932477252+928688074+925079270
772+920955366+915592096+909011201+902614764+898541717+897873186+899711383
762+902274504+904567062+906729643+909197570+911979274+914542723+916169913
752+916668479+916737585+917276600+918497453+920077276+921763822+923328362
742+924387023+924830383+925080654+925510048+925900441+925590287+923670533
732+919144705+911823538+903189551+895448081+889681900+885799175+883995893
722+885029060+889008033+894864466+901149832+906814429+911308634+914559259
713+916934560+918829479+920198294+920735728+920521954+920216279+920460292
703+921291278+922320295+923188832+923576459+923078684+921619483+920004481
693+919530290+920648176+922109089+921968242+919754210+917174554+916327493
683+917606451+919465927+919856650+917862783+914362744+911276091+910154515
673+911356462+914080325+916400618+915197354+909877564+905250811+904025742
663+905051201+906471533+907035582+906486290+905125511+903266760+901406362
653+900478995+901085272+902233923+901851237+899352545+896810506+896541328
643+898289470+899791491+899579100+898103496+896497321+895602828+896100142
633+898093087+900118905+899771464+896372021+892531590+891869449+895031533
623+899018543+900857333+900578801+899794719+898910898+897514150+896461615
613+897153006+898718929+898287823+895130746+892383957+893092476+896359175
603+898924667+899208272+898314372+897787940+897816531+897829048+897751180
594+897843673+898101256+898920451+901227371+904424173+905797336+903755839
584+900388083+899198720+901677384+907068059+913272132+916717360+913950677
574+905769404+897928063+896047440+900510287+906844469+911126350+913411728
564+915044056+915421340+913537094+910754599+909646068+911037480+913662987
554+915636037+915347886+912112611+907311677+904085888+904497100+907359636
544+909645870+909910898+909649033+910845643+912902424+913564762+912652812
534+912721588+915693351+920562996+924715887+926310730+925246733+922814381
524+920587766+919192994+918446727+918240792+918508125+919015518+919745185
514+920642972+921070982+920895351+921745047+925019651+928606912+928777800
504+925709592+923408469+923440157+922803445+919946903+918068718+920627227
494+926026005+928944604+926990065+923333434+921880295+923049829+925195545
484+927477564+929645481+930458285+929042630+927186119+928306047+933402642
475+939020399+940525583+937860944+936111353+938431976+941934123+941410589
465+935232539+926571410+920208044+919806188+926043002+934798468+940149550
455+941901447+944765433+951134069+958574937+963014069+962282558+957302106
445+950688140+943996899+938823226+939833467+951430389+970501183+984248630
435+980394167+962645744+947953012+947844708+957125355+963026981+962223926
425+961485037+963978656+966845145+971369589+982357072+995940219+999398228
415+989270915+974916335+969578890+977588879+989045810+993817230+993927510
405+995133409+996458811+995039863+993463663+1002241791+1027476077+1046511495
395+1037956957+1020000293+1014150448+1018675353+1018678054+999853379+964260087
385+941943346+960817099+997806283+1012514233+997108172+970416135+952101489
375+951764984+973897135
##END=
