##TITLE=X7360
##JCAMP-DX=5.0
##DATA TYPE=LINK
##BLOCKS=1


$$ === CHEMSPECTRA SPECTRUM ORIG ===
##TITLE=X7360
##JCAMP-DX=5.00
##DATA TYPE=INFRARED SPECTRUM
##DATA CLASS=XYDATA
##ORIGIN=ComPlat
##OWNER=
##XUNITS=1/CM
##YUNITS=TRANSMITTANCE
##XFACTOR=1
##YFACTOR=9.1844615e-010
##FIRSTX=3997.453
##LASTX=373.96442
##MAXX=3997.453
##MAXY=0.9861740434283315
##MINX=373.96442
##MINY=0.5968038422420873
##NPOINTS=2559
##XYDATA= (X++(Y..Y))
2559A042656162A042646233A041927820A041078639A040339070A039940925A040437909
2552A041935543A043541880A044154445A043499307A042277876A041458808A041277290
2545A040996999A040009587A038766480A037994332A037645898A037454776A037759793
2538A038838126A039843515A039329658A037095829A034964992A034880496A036618964
2531A038627080A040215895A041341084A041109985A038207584A032900026A027902742
2524A026146557A027072511A027289917A025583249A024838293A027721938A032837725
2517A036997250A038041318A034896396A027935385A020507569A017718025A020894227
2510A025631922A027019685A024708434A022464286A022557284A022921812A021179191
2503A018644044A019268161A024723425A032268122A038118545A040559980A039422331
2496A034123210A023772940A009700941I96934545I90607711I91371552I97674893
2489A008121536A019189700A025742247A024746853A018292625A013796348A015722693
2482A018930630A016992084A010670441A005863046A004050920A003427582A006665176
2475A015413782A023228841A023460784A016611656A007931647A000878417I97428608
2468I99486241A003791071A004697946A002572365A003799508A010771940A018205208
2461A020864893A016950355A005364116I86657739I73589246I81458040A000797295
2454A017476866A026379344A027047396A021125650A011442654A000593907I90384918
2447I83923747I85322283I93570206A002660431A009178777A013833080A017528784
2440A019234674A018353693A016508210A014284829A008707558I98812477I92276219
2433I94969716A001240544A007005173A015092995A025831870A034145729A035859666
2426A030243846A020607056A013248161A009718074A004786660I96815524I92844006
2419I96931625A004431867A012831066A022978597A033191804A040066761A042637407
2412A042161191A039518769A035190770A031350669A030363776A030808907A029374612
2405A026830899A027854458A033373776A038997968A040455561A036391045A028909299
2398A022918372A021333451A022249282A023602909A024969061A024393682A019273742
2391A011335378A006774528A007579190A008271838A002432771I87803305I71157740
2384I65484876I70597223I76067219I78273206I82193066I91053750I99513433A001734672
2376I94938111I80356928I67176942I68078625I83481796A001761474A013432079
2369A015707962A010517868A003335168A000155332A002628696A008568743A015691932
2362A022256355A026033506A024497518A015952689A001998154I91353770I94186081
2355A007869800A022171535A030809491A032238334A028495773A025136236A026644968
2348A031290250A034822997A035084274A031496818A023400429A010974095I98842784
2341I96264935A005832609A019631780A030596563A035736945A034044425A026357084
2334A014344016I99001004I85253232I83274969I90797600I95361565I94659896
2327I98605260A011843849A026664048A036458019A040540057A041197336A040078053
2320A036499943A029832917A023027854A019082814A014086309A000768416I78033216
2313I60392841I66128008I88289580A009897709A023922982A030860370A033924235
2306A035741748A036586386A035435887A032041371A026914162A019049197A006350814
2299I93122220I92608947A005869796A019771828A026203212A023575133A013775840
2292A003075254I98850442A000309333A001661792A001779840A003295386A006022045
2285A007684777A009905822A016212019A024672740A029722591A029042727A025343259
2278A022544110A021312490A020195218A019557083A021322029A024497453A024185102
2271A016648193A005530448A001779451A009568161A021007992A029163307A033182070
2264A034986603A036270855A037667379A039050924A039811131A038580160A032885944
2257A020307945A002702809I90533144I93929218A008068969A021786759A030361894
2250A035194664A038494495A039920742A037960131A033265787A029314387A028557166
2243A028629137A025390958A019141741A015444479A018666174A026871784A035060521
2236A039806199A040529414A039221864A038807624A040257105A041667907A040584641
2229A036510521A031178107A026723169A024169332A024102488A027250719A033036505
2222A039013284A043006802A044802574A045257439A044630661A042408384A038699570
2215A035430825A034994975A036895621A037640836A035236133A032252871A032767052
2208A036958117A041445763A043816525A044532991A045103373A045711331A045356408
2201A043827363A042407411A042239651A042657590A041974936A039808535A038002379
2194A038832999A042299617A046001422A047710945A047306506A046215647A045564793
2187A045384768A045313121A045332201A045513719A045501712A044939248A044258735
2180A044264900A045063461A046127257A047093967A047852421A048207993A047838598
2173A046351802A043623131A040553166A038884009A039429989A041240947A043049829
2166A044437073A045350372A045588870A045220578A044786350A044670573A044720739
2159A044710290A044699712A044720025A044484188A043601910A042003361A040316940
2152A039766027A041104793A043636760A045845084A046773959A046429614A045354331
2145A044235048A043604441A043603013A044017901A044478607A044629104A044258670
2138A043294946A041778946A040047746A038653948A037840720A037478528A037661733
2131A038695677A040364445A041906080A042855721A043443496A044111354A044899336
2124A045375293A045109993A044228169A043441030A043357442A043742867A043681409
2117A042545383A040546092A038332122A036408243A034918786A033613247A032046822
2110A029893206A026795076A022074968A015204359A006403900I95997234I83098837
2103I65554965I41652977I12407932H82732165H59984180H50222074H55044460H71438807
2095H94100284I18072945I40170529I59061993I74642269I87203395I96931041A003986542
2087A008830668A012383729A015797130A019779746A024051998A027708115A030161751
2080A031561780A032394022A032939808A033121001A032756798A031947399A031242615
2073A031421796A032895094A035130221A036926642A037506694A037160921A036784842
2066A037047351A037909511A038686786A038803017A038541935A038662060A039356720
2059A040109529A040404681A040128738A039531748A039162872A039572049A040769793
2052A042073644A042625271A042098435A040990314A040250680A040488723A041458743
2045A042416886A042964878A043277943A043521048A043524423A043206166A042858382
2038A042798871A042986684A043073581A042804777A042419222A042495477A043216096
2031A044060799A044410205A044169826A043715480A043470882A043544476A043723268
2024A043890703A044245950A044868510A045355239A045250041A044620927A043971370
2017A043753963A044085395A044767919A045441553A045742936A045514497A045025432
2010A044786804A044902321A044927502A044653376A044552201A045064824A045934707
2003A046641049A047011677A047084362A046801605A046152697A045371788A044797447
1996A044552655A044443368A044255296A044031725A043806920A043345825A042651944
1989A042351989A042888754A043669273A043736572A043013681A042256655A042043207
1982A042349912A042899657A043435903A043675893A043388722A042757532A042399558
1975A042695620A043289559A043614176A043659733A043768760A043910237A043681409
1968A042997587A042389240A042468804A043251854A044098179A044279308A043586789
1961A042511766A041876876A042123615A042912441A043530393A043574588A043107068
1954A042423246A041877395A041652786A041590160A041501640A041524613A041803671
1947A042068452A041940670A041354583A040365029A038925932A037169617A035534141
1940A034342628A033590533A033313292A033736033A034836106A036132235A037097517
1933A037504877A037422911A037272999A037672506A038702945A039520716A039190194
1926A037752006A036158972A035364954A035704367A036907627A038458347A039904648
1919A040842673A040910296A040169429A039286696A038918080A039035349A039184288
1912A039215569A039407016A039909320A040328038A039953515A038428235A036188241
1905A034065062A032449964A031205234A030407128A030544061A031735445A033265009
1898A034132555A033784122A032396813A030764387A029672491A029132545A028454953
1891A027100807A025179328A023270635A022046023A021803762A022100148A022091451
1884A021350325A020021358A018211893A015832305A013162691A011033476A010254904
1877A011121023A013344273A016100979A018309693A019258361A018970866A017964245
1870A016953600A016683368A017418589A018523335A018969439A018328708A017085017
1863A016043416A015524692A015082157A014017972A012087992A009578285A007026330
1856A005214528A005002573A006569583A008983891A010857670A011315195A010263795
1849A007949104A004418693I99555746I93752632I88244736I84316051I82277757
1842I81496784I81147766I80596009I79342194I77088507I73975320I70617925I67742003
1834I65542180I63375585I60310292I55952376I50558050I44610280I38644015I33229182
1826I28805590I25697984I24281471I24699734I26424379I28571895I30725251I33066030
1818I35614676I37620650I37913142I35805603I31560089I26038824I20097804I14247704
1810I08625655I03125027H97535166H91634058H85350964H78971563H73073829H68178044
1802H64490192H61945765H60423989H59918958H60518674H62273042H65171354H69138524
1794H73859216H78755974H83432147H88020383H92864315H98030981I03385655I08922819
1786I14669018I20368815I25640485I30455732I35125220I39763233I44115958I48022773
1778I51706732I55446956I59221316I62819804I66098285I68961876I71236655I72741753
1770I73450950I73447056I72727411I71208425I69008862I66609675I64577352I63200232
1762I62551779I62694488I63431202I64027867I63695723I62236767I59812206I56385760
1754I51935235I46956901I42279171I38535572I36176686I35860701I38414993I44104406
1746I51975147I60272587I67723312I74223747I80237257I85960288I91297634I96253773
1738A000951037A005406299A009550833A013377760A016865339A019871576A022302497
1731A024266742A025883009A027064724A027671708A027816364A027881066A028234172
1724A028986526A030001649A031026507A031824289A032350931A032854079A033619218
1717A034597674A035425374A035796261A035747978A035618313A035738763A036143008
1710A036620911A037011009A037309860A037549331A037731109A037893027A038169879
1703A038740780A039644799A040663686A041456471A041748509A041452253A040846437
1696A040528570A040865517A041598596A042211421A042447517A042311168A041935348
1689A041621894A041648243A041920617A042122836A042194678A042324342A042497423
1682A042450503A042129780A041826256A041763500A041879537A042099473A042494373
1675A043055540A043567385A043798354A043696206A043402156A043144903A043060926
1668A043056254A042903291A042499954A041982853A041565304A041330635A041224788
1661A041194481A041229331A041325444A041524224A041926133A042521306A043096231
1654A043456735A043658371A043863122A044052622A044031465A043700164A043223299
1647A042891545A042869155A043128095A043538765A043903617A043989412A043717362
1640A043293388A043029321A043091363A043458487A043995512A044479646A044633971
1633A044265030A043480163A042735596A042452839A042567837A042668428A042522928
1626A042207852A041825412A041445114A041236534A041350559A041679523A041957803
1619A042085520A042202141A042410980A042630593A042835149A043197795A043731899
1612A044035034A043775445A043238875A042992979A043178585A043496127A043742088
1605A043956509A044100126A043993695A043660382A043409879A043463225A043764023
1598A044209803A044768503A045303257A045582120A045523972A045270938A045046913
1591A045032376A045248289A045516769A045691862A045897067A046313902A046786614
1584A046933411A046670707A046324934A046161069A046097794A045992401A045881232
1577A045797969A045678363A045605938A045825680A046319159A046678430A046601072
1570A046263606A046006678A045866241A045603277A045091757A044541752A044303969
1563A044428117A044511186A044147566A043420003A042782712A042638835A043144319
1556A044123814A045080919A045578421A045626510A045507229A045406898A045411960
1549A045563235A045745791A045825745A045931462A046274769A046722690A046928284
1542A046873771A046871045A046997919A047045489A047092150A047486920A048114282
1535A048412420A048310207A048411576A049036277A049661952A049500942A048306897
1528A046572777A045129916A044560183A044882009A045704581A046597763A047318641
1521A047814651A048147120A048412031A048628982A048726588A048767538A049064378
1514A049786165A050560649A050767477A050153484A049029268A048005579A047532283
1507A047592378A047916929A048421246A049169382A050038745A050714326A050972747
1500A050927254A050991827A051342402A051456361A050726851A049425985A048336230
1493A047628850A046948727A046394245A046494057A047213962A047751636A047566484
1486A047161460A047475758A048665389A049813357A049859759A048648711A047044386
1479A046157694A046516771A047858457A049466676A050527227A050412683A049137257
1472A047614897A047009665A047617363A048718475A049597314A050172369A050475180
1465A050306447A049806543A049575249A049701020A049415537A048264649A046964367
1458A046540718A047093253A047841324A048085467A047837171A047640597A047917384
1451A048524822A049058472A049429749A049752289A049825298A049357000A048586929
1444A047974753A047424099A046591078A045771426A045665189A046390805A047429810
1437A048383930A049162892A049599845A049476995A048852099A047970924A047024397
1430A046240763A045926465A046166131A046718017A047291190A047689205A047745665
1423A047421114A046876302A046264904A045585430A044865784A044385090A044647016
1416A046097859A048779868A052352463A056474413A060805397A064652117A067375336
1409A069239770A071016138A072743119A073741823A073709569A072979021A071866552
1402A070432062A068774846A066929362A064381106A060611808A056561180A054347015
1395A055316645A059109307A064031310A068204074A070819045A071843059A071299803
1388A069834099A068533882A067639079A066557890A065055648A063538091A062391161
1381A061552234A060526728A058716354A055955624A052793894A050169968A048726717
1374A048356414A048352909A047996883A047022969A045644681A044356600A043649350
1367A043667586A044179625A044887784A045548958A045965339A046271589A046951388
1360A048094423A048950808A048698812A047429161A046057233A045434284A045633519
1353A045989805A045918353A045646563A045870329A046807900A047980399A048888831
1346A049606530A050634762A052318197A054443063A056374666A057495117A057432751
1339A056125006A054010328A051979823A050802456A050748397A051791491A053619128
1332A055349548A055958544A055292698A054099627A052883063A051377381A049497567
1325A048182294A048482249A049968007A051054517A051101763A051019278A051489783
1318A051963079A051878388A051698104A052234999A053604655A054892347A054670398
1311A052438127A049610359A048249787A048866506A050184375A050921608A051005066
1304A051022718A051397435A052329424A053740226A054972755A055281082A054818689
1297A054313009A053826085A053074380A052688111A053490501A054854836A055550730
1290A055841729A056850038A058257400A058488628A056851725A054014287A050845029
1283A048063273A046479714A046511579A047806604A049706861A051503217A052370374
1276A052104880A051833869A052867293A054984891A056676762A056799483A055406333
1269A053492902A052378097A052693563A053630485A053845619A053197036A052638854
1262A052507827A052375566A052885659A055487974A059423669A061260002A058514653
1255A052727309A048069308A047396518A050022391A052873004A053626785A052703232
1248A051941923A052113122A052676041A053091188A053126687A052493420A051174188
1241A049633722A048280354A047202216A046407743A045883698A045510733A045145816
1234A044700361A044082280A043205582A042157621A041416689A041711518A043303188
1227A045468290A047021801A047330323A046706595A046035168A046086307A046954049
1220A048158217A049253099A050026480A050192941A049510222A048253681A047127649
1213A046743911A047295668A048463040A049609904A050277567A050423521A050225325
1206A049901747A049598807A049257837A048875397A048919138A049820366A051025184
1199A051313133A050047571A047547923A044580950A042234070A041797442A043782389
1192A047165224A050188334A051895002A052638984A053285361A054263752A055255966
1185A055450528A054313918A052548452A051710759A052225848A052946143A053222735
1178A053625228A054049267A053477976A052401330A052593491A053626980A053057117
1171A051033880A050502826A052278675A054196064A055278421A056849714A059149218
1164A060028057A057622445A052818685A048625607A047172947A047926728A049439419
1157A051503866A054317487A056773070A057286602A055677020A052845293A049496594
1150A046181252A043768631A043019976A043612683A043861694A042166058A039105373
1143A037237305A037947541A039898223A041493463A042768694A044189165A045528905
1136A046597568A047607369A048453565A048980336A050086769A052992415A057168813
1129A060002163A058927919A054279327A049948343A049801221A053193596A056170304
1122A056589605A055618807A054675980A053265308A050483032A047028161A044638060
1115A043964102A043804325A042584321A039916913A036354183A032695275A030453270
1108A031519272A035806580A041016338A045204029A047504507A047395025A045167621
1101A042341346A040415584A039731113A039483205A038080061A034487803A030176937
1094A028049215A028520564A029571186A030731225A033540238A037714560A040420581
1087A039795231A037249117A036114453A037997836A041250033A043448493A043985258
1080A043726253A043333170A042619300A041225242A039614752A038979667A039355487
1073A038673157A035555882A032218735A032180380A035385072A038956499A041102911
1066A041692503A041153790A040359707A040249252A040811977A041236015A040499172
1059A037041380A029469751A019696028A014473032A018655531A028458782A037068572
1052A041246853A041667907A040775115A040560629A041438300A042553949A042971433
1045A042373275A040509685A036796588A031035333A023859837A016917192A013835675
1038A017642095A025343648A031263447A033235740A033009832A032940198A032596372
1031A029378960A022389135A015228046A012763573A014407420A016759687A019864047
1024A025269795A031441136A035263715A035799701A034661987A033368649A031345996
1017A027470591A022828100A020453834A021753726A024921037A027080559A026046031
1010A021335528A015333310A012039319A012767337A014831849A014855082A011025105
1003A004600470A001804112A007937033A018722634A026552100A028583579A026672225
996A023483044A020119353A017795707A017862161A018804405A016843534A009683094
989I99054285I91464290I92346828I99359237A007701586A014466931A017120840
982A014204292A008266192A004338739A003162801A002242298A001571195A001164484
975I97263380I86078855I69941371I58047195I55821932I58621795I60253961
968I58639577I53654818I44898359I33781652I22955425I10045542H87285487
961H51887402H15421239G86325718G63538989G49871690G49434672G61908251
954G83634753H07768488H26403090H35858037H39253852H46160738H61571567
947H78023089H87223445H85673049H73399938H52350444H24703625G93990215
940G64671382G35747189G01707470F66941550F49797315F58434102F86341355
933G19361473G45293577G63885800G80393718G96509202H09741755H21085408
926H39518827H68635245H97161423I18849440I33924037I42441803I45194226
919I44907899I42389236I35983357I28186989I26039344I28267526I24151612
912I05267416H71591705H35950775H13346279H05580866H06110623H09517015
905H19168926H49470109H90207486I13165089I18680772I20007792I31589358
898I52664486I71139439I81855925I84449025I79004599I67565547I59631661
891I67396619I84567398I97405570A001824424A000042216I96337620I92864189
884I89129221I86858336I88931544I92321648I90803895I83095333I76407670
877I76722032I77813539I71269558I53407494I24275631H86430725H44385343
870H05144238G78090190G71112046G84368286H09517729H36595400H60288678
863H80590425H99575406I18091959I35305894I50164189I62323405I72031063
856I79696144I85623341I89637107I90587528I86787663I78303449I71010229
849I73471458I81971572I86228249I83738400I80750335I84123111I91190942
842I96076668I96472152I90478370I73670757I46406442I33081800I47104218
835I65670677I78066638I84144916I86067952I87152191I87671174I82894087
828I68831693I47599254I25371421I09316291I10884923I27923311I40479245
821I38302526I22121366I01514212H86593812H76174685H66932665H62306334
814H65907289H73179352H78920553H85095593H93054334H98969136I03604099
807I12039965I23270632I29981723I26605248I11876748H88310993H67470145
800H63707336H63391546H49917446H24414962G97577087G85216883H00382531
793H37916319H75658492H99077450I08365741I12550706I23737697I44325706
786I65447495I79824576I86148425I86965092I85054517I80083386I69596182
779I52858334I33327242I19801418I21158874I32949475I42626696I43658043
772I36967784I28581110I22754049I15850538I02009833H80202339H61709539
765H65811241H86463563I05194991I16180865I19657087I17860406I15452328
758I16375037I19575316I20930176I17371535I08392998H96395440H88254792
751H93887875I12492039I30705327I40498000I42556152I41520002I41228289
744I42396180I45473284I51246286I57288935I59157782I57915194I62306532
737I75445113I89815250I99147607A002999454A004318102A005164687A004549526
730A001374167I97924423I97178429I97154742I93143312I84129666I73822163
723I65801899I60648537I57438848I53737237I46622550I36552117I29462025
716I32549837I44575690I56355907I61298353I59152979I53022394I45126408
709I34812286I20377641I02174347H82822307H65053435H52915894H52527809
702H65316464H83832238H99600652I10556673I18263094I21092225I14548569
695H96374089H69552828H42057349H22775916H16461218H21992931H33934417
688H46057616H54761313H59387190H60440018H59496866H60662681H68873094
681H84544745I02834482I18471414I28532761I32213410I29985227I22772610
674I11368343H96346248H78288454H58171210H37926832H20775263H10145870
667H06984594H08625587H11560046H14623132H19009214H26252658H36985108
660H50820297H66324903H81317339H93785337I02668929I08189610I11961504
653I16457587I23473435I32761273I42328557I49964629I54461556I55867620
646I54875406I51998575I47602174I42612418I38300838I34807873I30231902
639I21692265I07669848H89929142H73490275H63966341H63612067H69465476
632H75485606H76242308H68686255H51863390H26600507G95920259G64882817
625G38970442G22262770G16642343G21718217G35222819G53932572G74568799
618G94283875H11019387H23894940H33287716H40221664H45300330H48019980
611H46992202H40801522H29093535H13605738G98374998G88249402G86255564
604G91910127H01909953H12300719H20071193H23366871H21157638H13188708
597H00106003G83451807G65522769G49092469G36888473G30901116G31873147
590G39291424G51786030G67574950G84850862H02144102H18502367H33394407
583H46491260H57398738H65361113H69098871H67077711H58563968H45195066
576H31431070H22425796H20679670H24738410H30965562H36183108H38970056
569H39332377H37682170H34251830H29202303H22753073H15025625H06005295
562G95657101G83924000G70790221G56489589G41415705G25769819G09614812
555F93411522F78304672F65750880F56875984F52134784F51397097F54175154
548F59729582F67052654F74908144F82046908F87440065F90308525F90235515
541F87698421F84412868F82647208F84013165F88950614F97022926G07311219
534G18733008G30455985G42106732G53517748G64471693G74857527G84860597
527G94707005H04273446H13125368H20847170H27191526H32130403H36067850
520H39877644H44431031H50033223H56341821H62693706H68362871H72492739
513H73875310H71014314H62885607H50291903H36729218H27274530H25603555
506H31731674H42682828H54995138H66470272H76229264H83694202H87449222
499H85326498H76459260H63558397H52459796H48590946H53535923H64831422
492H78527860H91560270I02418491I10855135I17376402I22585316I26621861
485I28963225I28546001I24113517I14564533H99301280H79161906H57623672
478H40323878H32035004H33404401H40666016H48868382H55560133H61204963
471H66424520H70001527H69967262H65867896H59789748H55739704H57510751
464H65970369H78339139H90544368I00121063I06888225I11715673I15354333
457I18199105I20486279I22376931I23959711I25336312I26751786I28623358
450I31358973I35050005I39360741I43701784I47432208I49840676I49653187
443I44654540I33276427I17819586I04561983H98221325H96744004H93356561
436H82981954H64839339H40110885H10686594G81511963G61415032G58097613
429G71776270G95099049H19184437H38552247H51157049H56734190H56760214
422H54964506H56079571H63024877H75102647H89064386I01786067I11868376
415I19415345I25228387I30270645I35283245I40475221I45493013I49797973
408I53157056I55772481I58025519I60202433I62342096I64247934I65785025
401I67149555I68617142I70066298I71018406I71219652I70970901I70643430
394I69889778I67583978I62493566I53798500I41591454I28026498I17715555
387I15313188I21851263I33883282I46388530I56163487I62698252I66868096
380I69469698I70737725I70567435I68708647I64741737I58417888I50605425
373I43801206I41058064I43871490I50972419I59307305I66321207I71292662
366I74768300I77449595I79812310I82015572I83582257I83278213I79278595
359I69632265I53951658I35762641I22069513I18751381I26077633I39141583
352I52127461I61737383I67695990I71413954I74313565I76893685I78921725
345I80033285I79820357I77608464I72627793I64276099I51735286I33702413
338I09880898H83216104H59128119H41414152H30300690H25627957H29666189
331H44302859H66798133H90813172I11226867I26584935I37711506I45643380
324I50882536I53529891I53563962I51002856I46094870I39787181I34009766
317I30885158I31168499I33603509I36126001I37715011I39011788I41349063
310I45426818I50882796I56856200I62678004I67998996I72561079I76099602
303I78432335I79646368I80252184I80924974I81872539I82692581I83001751
296I82904665I82688362I82254394I80796412I76610993I66860698I47946779
289I18197677H82490422H53336558H43632016H56255118H81973710I07869082
282I26068353I35155917I37074734I34723377I30802284I26276089I18889742
275I03523756H74850846H31243647G78034183G27380699F93123898F83524294
268F97648470G27821546G64865749H01743556H34268638H60104305H77968511
261H87812063H90993067H89806616H87097934H86000845H88834519H95618490
254I04164487I11954300I17711402I21396009I23492321I24589668I25134221
247I25289521I25246364I25525747I26470260I27592660I27998008I27305100
240I25709471I23276732I19500360I13321167I03294020H88215140H68124179
233H44309803H17795570G88263680G55509965G22823872F98397190F91128956
226G03791646G31188221G64597010G96544896H22318001H39965710H50277171
219H55619255H57975999H58339943H57608745H56965224H57008900H57217090
212H56943289H56729387H58190485H62328269H67042926H69795349H71626750
205H74202457H77970198H82663827H87846718H92805843H96597076H98746928
198H99682292I00250014I00773021I00725840H99594356H97715126H95738680
191H93706747H91423271H89378229H88366870H88391725H88937187H90092553
184H92311780H95230210H97701044H98929159H99146176H99387139I00491366
177I01985107I02622982I02392337I02871863I05118282I08354449I11356077
170I14014205I16907000I20214489I23497123I26223003I28381681I30520500
163I33099063I36080119I39285849I42605928I45451868I46486006I44573159
156I40150540I35281818I31744397I29098406I25384335I19414371I11652463
149I03575998H97004696H93109432H91153558H89398931H87649106H87224613
142H88493614H90374597H91998586H93451376H95310034H97923511I00881853
135I03468529I05596705I07617021I09470163I10724108I11138737I10969095
128I10955402I11582050I12083122I10847997I06925606I00311926H90567082
121H76135812H56551634H36090693H23376995H24635872H37893994H55611857
114H71889843H85207801H95479221I01777046I03867452I04210175I06439006
107I11269959I15894084I17679343I16525859I14676806I15070213I18532871
100I22942057I25976069I27318469I27751269I27536329I26282579I23566952
93I19900516I17779284I20294313I27365389I35422774I41029509I42845789
86I41361004I38153327I34525375I29958814I22075419I07731500H84253357
79H51931597H16414297G86702122G70078947G68922802G79787837G95150578
72H08608259H18651111H27038109H35110680H43295134H52018495H61201718
65H70472617H79650583H87178082H89948481H87670911H85751056H88891629
58H94836673I00215942I05208943I09938786I12166709I10727937I07422979
51I04631033I04080964I07031713I11782193I13594709I10409097I06150668
44I06064225I10246010I14945026I17861899I18838018I17138748I11425063
37I02248655H91634901H79583025H65766007H57704339H66023649H82751828
30H92666379H92461433H86560130H79028867H69694498H56689281H40382739
23H23242398H07368072G93166279G80395665G71470214G73322123G88941727
16H09912629H28454362H44398517H59841860H73177145H78409033H72305186
9H62802214H62898262H71206735H74792568H68013335H52435784H28927528
2H02645563G87384711
##END=


$$ === CHEMSPECTRA PEAK TABLE EDIT ===
##TITLE=X7360
##JCAMP-DX=5.00
##DATA TYPE=INFRAREDPEAKTABLE
##DATA CLASS=PEAKTABLE
##$CSTHRESHOLD=0.93
##MAXX=3997.453
##MAXY=0.9861740434283315
##MINX=373.96442
##MINY=0.5968038422420873
##$CSSOLVENTNAME=- - -
##$CSSOLVENTVALUE=0
##$CSSOLVENTX=0
##NPOINTS=34
##PEAKTABLE= (XY..XY)
399.4619940578573, 0.708553847887976
419.29344054730245, 0.7877552479928448
478.78778001563705, 0.7062141871441123
539.6986513760748, 0.7562274310563193
671.4361173416728, 0.7868598070820101
677.1022449100856, 0.7870764106666875
694.1006276153244, 0.6347647287917194
753.594967083659, 0.627780256255768
777.6760092494133, 0.7748305771119384
844.2530081782638, 0.7582948184390156
970.3243465754495, 0.7852388589223519
981.656601712275, 0.6962718339840399
1032.6517498279904, 0.7859508365409396
1048.2336006411256, 0.7641793460890346
1073.7311746989835, 0.7793850872785579
1090.7295574042219, 0.7582724065160632
1136.0585779515245, 0.6269746999958492
1151.6404287646596, 0.5982731558608265
1185.6371941751368, 0.7537500832947704
1211.1347682329942, 0.6712933160209034
1229.5496828303358, 0.7221333956718786
1255.0472568881937, 0.6581974008553294
1317.3746601407347, 0.7411718934686131
1351.3714255512118, 0.7498756622964107
1368.3698082564501, 0.7830008839439854
1498.690742329945, 0.7211794231063504
1602.097570453479, 0.7082248898673229
1658.7588461376072, 0.7398826448913659
1698.421739116497, 0.5968038422420873
1726.7523769585614, 0.6883153891749128
2848.6456355043097, 0.8618836374231269
2919.4722301094694, 0.7903400631384051
2956.3020593041524, 0.8489027585562866
3344.431797740422, 0.7808831905103151
##END=


$$ === CHEMSPECTRA PEAK TABLE AUTO ===
##TITLE=X7360
##JCAMP-DX=5.00
##DATA TYPE=INFRAREDPEAKTABLE
##DATA CLASS=PEAKTABLE
##$CSTHRESHOLD=0.93
##MAXX=3997.453
##MAXY=0.9861740434283315
##MINX=373.96442
##MINY=0.5968038422420873
##NPOINTS=86
##PEAKTABLE= (XY..XY)
3902.545363229085, 0.9098198383282626
3869.9651297107116, 0.9160844649174592
3852.966747005473, 0.8941892946701029
3838.801428084441, 0.903680977325724
3820.3865134870994, 0.9113522730771069
3800.555066997654, 0.9118737548612769
3749.5599188819388, 0.8867458672454274
3735.394599960907, 0.8882999387486733
3711.3135577951525, 0.9105050533444855
3688.649047521501, 0.9150156939307502
3674.483728600469, 0.9030851096694194
3670.2341329241594, 0.9135415520406004
3648.9861545426115, 0.8820691073040121
3627.738176161063, 0.911657865827704
3566.8273048006254, 0.9097513525541956
3344.431797740422, 0.7808831905103151
2956.3020593041438, 0.8489027585562866
2920.888762001564, 0.7897892562871117
2868.477081993745, 0.8840519755982008
2850.0621673964033, 0.8595376577697511
1772.0813975058636, 0.9106065600129835
1748.0003553401093, 0.8778709735309618
1726.7523769585614, 0.6883153891749128
1698.421739116497, 0.5968038422420873
1668.6745693823295, 0.8505172702453255
1658.7588461376072, 0.7398826448913659
1636.094335863956, 0.8813700044635552
1623.3455488350273, 0.9063762392946064
1616.262889374511, 0.8967778653419705
1602.097570453479, 0.7082248898673229
1576.5999963956215, 0.8918206064356683
1569.5173369351055, 0.9007663692919602
1558.1850817982795, 0.85698538684507
1541.1866990930412, 0.8351580466012296
1527.0213801720092, 0.791981932582914
1498.690742329945, 0.7211794231063504
1473.1931682720874, 0.8447880711266407
1457.6113174589523, 0.7914338085128249
1447.6955942142295, 0.8407936661601372
1437.779870969507, 0.8158141939314508
1427.8641477247847, 0.8644674983031373
1419.3649563721656, 0.8797935219558031
1388.2012547458949, 0.8536608184324538
1368.3698082564501, 0.7830008839439854
1351.3714255512118, 0.7498756622964107
1341.455702306489, 0.7894015875147659
1317.3746601407347, 0.7411718934686131
1270.6291077013288, 0.793181178029692
1255.0472568881937, 0.6581974008553294
1229.5496828303358, 0.7221333956718786
1211.1347682329942, 0.6712933160209034
1185.6371941751368, 0.7537500832947704
1151.6404287646596, 0.5982731558608265
1136.0585779515245, 0.6269746999958492
1090.7295574042219, 0.7582724065160632
1073.7311746989835, 0.7793850872785579
1048.2336006411256, 0.7641793460890346
1032.6517498279904, 0.7859508365409396
981.656601712275, 0.6962718339840399
970.3243465754495, 0.7852388589223519
920.7457303518372, 0.8406658735628262
899.4977519702888, 0.8643111558072536
875.4167098045345, 0.8438236686866332
844.2530081782638, 0.7582948184390156
821.5884979046127, 0.8549678894572417
777.6760092494133, 0.7748305771119384
753.594967083659, 0.627780256255768
736.5965843784202, 0.8137440649869967
721.014733565285, 0.8497889608172986
694.1006276153244, 0.6347647287917194
677.1022449100856, 0.7870764106666875
671.4361173416728, 0.7868598070820101
638.8558838232993, 0.8159171315390504
620.4409692259574, 0.8287987677071526
575.1119486786547, 0.8148680299950899
553.8639702971068, 0.8366634817886023
539.6986513760748, 0.7562274310563193
518.4506729945265, 0.8400813909649969
502.86882218139135, 0.8429308499395566
478.78778001563705, 0.7062141871441123
457.5398016340887, 0.8135146472416344
443.37448271305675, 0.8303496806740885
434.8752913604376, 0.8321711991039837
419.29344054730245, 0.7877552479928448
399.4619940578573, 0.708553847887976
385.29667513682534, 0.7924373716597761
##END=

##END=

