##TITLE=CHS- 253
##JCAMP-DX=4.24
##DATA TYPE=INFRARED SPECTRUM
##DATE=11/7/2019
##SAMPLING PROCEDURE=Diamant-ATR
##ORIGIN=Rieke
##XUNITS=1/CM
##YUNITS=TRANSMITTANCE
##RESOLUTION=4
##FIRSTX=3997.453
##LASTX=373.96442
##DELTAX=-1.4165319
##MAXY=1.0050148
##MINY=0.85566634
##XFACTOR=1
##YFACTOR=9.3599295e-010
##NPOINTS=2559
##FIRSTY=0.99915618
##XYDATA=(X++(Y..Y))
3997+1067482588+1067436483+1067676814+1067953570+1067898995+1067457816
3989+1066849156+1066403519+1066410651+1066892586+1067578491+1068149133
3980+1068384115+1068169129+1067610395+1067084138+1066958177+1067243403
3972+1067581738+1067579701+1067154505+1066562975+1066130138+1066023091
3963+1066201397+1066392630+1066258518+1065817530+1065502438+1065590444
3955+1065824853+1065832303+1065695708+1065784225+1066079703+1066031433
3946+1065390805+1064768582+1064903776+1065673866+1066300356+1066459431
3938+1066367730+1066036018+1065292164+1064389172+1063999829+1064379620
3929+1064942366+1065074949+1064852768+1064763233+1065035595+1065349349
3921+1065317573+1065033048+1064986051+1065393862+1065814728+1065848988
3912+1065689277+1065565354+1065252364+1064575629+1063945255+1063904690
3904+1064358287+1064739862+1064958032+1065302353+1065618910+1065451493
3895+1064760494+1064125535+1064319251+1065226573+1065510716+1064660834
3887+1063895138+1064452789+1065695390+1066234956+1066332324+1066726189
3878+1066737015+1065686857+1064354658+1063762682+1063853809+1064169602
3870+1064888684+1065743724+1065779576+1065105452+1064902693+1065694562
3861+1066513559+1066411415+1065379152+1063839481+1062518490+1062858735
3853+1065689722+1068254397+1068384115+1066985688+1065060176+1063273233
3844+1062264786+1062408704+1063390023+1064606578+1065707489+1066323027
3836+1066117975+1065394626+1064825449+1064757947+1064950900+1065009549
3827+1064880087+1064593587+1063983781+1063300361+1063626278+1065245104
3819+1066260429+1065799253+1065305410+1065786708+1066283417+1065844976
3810+1064717574+1063703395+1063556229+1064166991+1064578686+1064736869
3802+1065620820+1067032174+1067324278+1066491589+1065964059+1066139053
3793+1066073335+1065244849+1064156420+1063401677+1062998005+1062796965
3785+1063003163+1063751984+1064651027+1065317764+1065793713+1066080531
3776+1065922985+1065322858+1064600210+1064037464+1063812162+1063994734
3768+1064379620+1064707894+1064890785+1064810356+1064488896+1064397706
3759+1064906896+1065349604+1064737824+1063216430+1061731142+1061424902
3751+1063096901+1065302417+1065543894+1064045297+1063051115+1064226978
3742+1066154400+1066730137+1065927442+1064618932+1063879345+1064589575
3734+1066246419+1067362550+1067450747+1066928184+1066169493+1065413603
3725+1064928484+1064897599+1065267711+1065816065+1066219482+1066130775
3717+1065350114+1064057651+1062996285+1063319656+1065422327+1067648094
3708+1068384115+1067997191+1067340835+1066893542+1066937227+1067400758
3700+1067660830+1067241811+1066259346+1064994202+1063641498+1062585609
3691+1062616430+1064275630+1066377346+1066951491+1066210630+1065543703
3683+1065573442+1065983863+1065943426+1064811630+1063084547+1062622289
3674+1064189725+1065744042+1066359770+1067078279+1068106085+1068330687
3666+1067663887+1066866350+1066278960+1065786772+1065263890+1064812076
3657+1064795264+1065328908+1065586114+1064716873+1063086394+1062221419
3649+1063664105+1066285582+1067525317+1067066498+1065953424+1065129460
3640+1064984396+1065308976+1065553191+1065239691+1064314602+1063113522
3632+1061984145+1061435473+1062480026+1064861301+1066220501+1065713157
3623+1064242898+1062832817+1062393803+1063468350+1065100676+1065645847
3615+1065134427+1064721968+1064710632+1064398979+1063664105+1063189684
3606+1063112566+1062884717+1062415263+1062149142+1062239950+1062258991
3598+1061955107+1061820422+1062368394+1063103269+1062983422+1061985037
3589+1061384146+1062462896+1064516852+1065302863+1064417892+1063253428
3581+1062724114+1062519317+1062067185+1061609002+1061745279+1062376354
3572+1062819317+1062749014+1062531289+1062812057+1063730332+1064316768
3564+1063637677+1061981152+1060290749+1059315225+1059129023+1059257658
3555+1059285741+1059229002+1059336940+1059573832+1059520022+1058971159
3547+1058381539+1058480754+1059335730+1060178608+1060342585+1059862879
3538+1059233013+1058879841+1058824120+1058831316+1058856151+1059083937
3530+1059477866+1059589689+1059097437+1058351801+1058051483+1058479226
3521+1059218558+1059571221+1059200027+1058408094+1057835669+1057781540
3513+1057930107+1057863943+1057628516+1057559741+1057769759+1058155027
3504+1058684850+1059290899+1059625032+1059262816+1058158721+1056845244
3496+1056155200+1056449277+1057160272+1057439257+1057058064+1056475768
3488+1056291922+1056714698+1057392324+1057774472+1057658955+1057262734
3479+1056817415+1056364709+1055903534+1055474454+1055140003+1054971504
3471+1055004300+1055228774+1055606910+1055952887+1055931999+1055449746
3462+1054899226+1054735886+1054942657+1055165412+1055191330+1055047157
3454+1054805998+1054555415+1054496255+1054802496+1055340470+1055691605
3445+1055573031+1055106762+1054624444+1054331068+1054144038+1053823979
3437+1053303899+1052815914+1052653146+1052933341+1053602625+1054425124
3428+1054990608+1055023340+1054641001+1054078701+1053387002+1052666774
3420+1052258262+1052356267+1052768472+1053258940+1053799207+1054369276
3411+1054768490+1054760530+1054319796+1053650321+1052969002+1052363526
3403+1051914068+1051778429+1051976030+1052219735+1052182164+1051917634
3394+1051799698+1051946928+1052001183+1051727866+1051494604+1051751237
3386+1052347670+1052732301+1052576538+1051974692+1051311458+1051041389
3377+1051326169+1051847713+1052107021+1051857456+1051233195+1050570088
3369+1050148331+1050074589+1050267159+1050430182+1050234873+1049737846
3360+1049419888+1049670854+1050438906+1051350431+1051929734+1051851598
3352+1051243702+1050610971+1050338927+1050354656+1050321988+1050101844
3343+1049915706+1049995561+1050266586+1050520162+1050655739+1050603266
3335+1050318358+1049949265+1049721034+1049688111+1049773125+1049871066
3326+1049818593+1049513817+1049099447+1048848991+1048901655+1049138483
3318+1049224898+1048893822+1048323626+1048048716+1048364127+1048993928
3309+1049427466+1049418869+1049117660+1048854149+1048882105+1049222351
3301+1049639077+1049786498+1049478411+1048859944+1048279240+1047950139
3292+1047777500+1047597348+1047552580+1047986946+1048897006+1049745042
3284+1049932072+1049333792+1048368839+1047656316+1047542137+1047839271
3275+1048081066+1048063108+1048016749+1048195118+1048489259+1048655720
3267+1048797410+1049234386+1049842855+1050030267+1049557948+1048921651
3258+1048712651+1048991381+1049440393+1049733706+1049656589+1049244575
3250+1048924962+1049195541+1050041029+1050920523+1051372019+1051358964
3241+1051054125+1050707384+1050681275+1051170406+1051894646+1052390782
3233+1052516806+1052454271+1052364864+1052253932+1052105047+1051999846
3224+1052061362+1052309079+1052606595+1052785411+1052803369+1052800312
3216+1053003453+1053531048+1054232617+1054731555+1054707866+1054233573
3207+1053769150+1053694643+1053949302+1054244207+1054410732+1054389972
3199+1054180654+1053987383+1054112452+1054530388+1054848600+1054788486
3190+1054482946+1054285727+1054450660+1054954629+1055457642+1055541382
3182+1055150192+1054688571+1054575219+1054842869+1055261187+1055690522
3173+1056179653+1056765070+1057275279+1057437219+1057205358+1056840277
3165+1056591158+1056472775+1056387061+1056243461+1055963585+1055589588
3156+1055338878+1055358364+1055526162+1055678869+1055884939+1056272054
3148+1056691327+1056836965+1056653437+1056391455+1056306505+1056483665
3139+1056872881+1057314506+1057640870+1057871967+1058174705+1058571881
3131+1058836792+1058740762+1058284617+1057666342+1057121045+1056836838
3122+1056899945+1057177211+1057366151+1057308457+1057146326+1057060675
3114+1057021384+1056901856+1056674707+1056445011+1056384132+1056569061
3105+1056833654+1056898417+1056684896+1056435777+1056521619+1057116205
3097+1057993852+1058678928+1058844307+1058507882+1057908838+1057382581
3088+1057215419+1057323931+1057208096+1056539513+1055664986+1055235078
3080+1055416250+1055756495+1055807376+1055567873+1055262907+1054967811
3071+1054606168+1054151170+1053651850+1053110692+1052489168+1051839753
3063+1051287260+1050810546+1050203415+1049393524+1048656230+1048333432
3054+1048469773+1048919167+1049629907+1050578176+1051597193+1052551512
3046+1053517101+1054528860+1055346074+1055760507+1055966005+1056317076
3037+1056826394+1057151357+1057011386+1056457683+1055801263+1055359383
3029+1055185216+1055061421+1054851275+1054720093+1054861082+1055179167
3020+1055444333+1055608183+1055790756+1056077892+1056458065+1056877275
3012+1057266300+1057548596+1057691878+1057772116+1057914760+1058129237
3003+1058245135+1058039702+1057418369+1056531107+1055723190+1055241828
2995+1055022449+1054925654+1055026460+1055391287+1055750892+1055716186
2986+1055188018+1054331641+1053324022+1052316212+1051446143+1050672678
2978+1049717213+1048329038+1046496118+1044273281+1041631234+1038666645
2969+1035677412+1032800638+1029833565+1026577892+1023107933+1019660326
2961+1016530294+1013996950+1012100922+1010629899+1009507337+1008977450
2952+1009253888+1010145990+1011143229+1011783729+1011893578+1011514933
2944+1010671101+1009239114+1007046398+1004065825+1000454240+996327351+991553722
2934+985912635+979441598+972478755+965356201+958174488+950906933+943632500
2924+936594196+930050435+924171947+919185433+915599321+914180325+915557992
2914+919716975+925826625+932601291+938927455+944270262+948636081+952259956
2904+955371583+958197986+960990000+963871868+966707122+969239638+971361923
2894+973222736+975138887+977351599+979781334+982127711+984293236+986504992
2884+988918935+991351154+993516742+995285217+996592390+997347133+997544862
2874+997363372+997107567+997088081+997410432+997825948+997936944+997543015
2864+996590926+994864861+992044955+988059947+983098459+977254422+970349019
2854+962182866+953011769+943959755+937014488+934312709+936937244+944094185
2844+953509434+962861384+970996142+977925043+984021256+989487794+994389549
2834+998784087+1002685483+1006030437+1008799080+1011129665+1013219027
2826+1015169757+1017021336+1018823944+1020533579+1021979257+1023094496
2817+1024047477+1025030579+1026071694+1027111536+1028109348+1029019090
2809+1029771094+1030321359+1030690770+1030959121+1031212506+1031497477
2800+1031834093+1032249291+1032752177+1033316133+1033891106+1034400678
2792+1034779514+1035084163+1035477009+1036017657+1036569132+1036979044
2783+1037262869+1037558029+1037945589+1038364544+1038717717+1039033064
2775+1039412664+1039828435+1040120984+1040231597+1040291903+1040444163
2766+1040681629+1040891074+1041016844+1041137773+1041347091+1041603979
2758+1041802153+1041934673+1042080756+1042285426+1042530978+1042782326
2749+1043013423+1043216946+1043408243+1043618580+1043874067+1044150186
2741+1044366064+1044474448+1044538002+1044687524+1045005163+1045405905
2732+1045657762+1045631207+1045476909+1045415967+1045470796+1045563515
2724+1045720615+1046001319+1046325836+1046512739+1046484083+1046393529
2715+1046487712+1046822800+1047218512+1047503419+1047691468+1047910975
2707+1048257143+1048691509+1049058564+1049242729+1049261960+1049173762
2698+1049006091+1048804160+1048596243+1048332987+1048009362+1047776800
2690+1047791192+1048036299+1048373488+1048673615+1048876819+1049008384
2681+1049123327+1049202100+1049181850+1049090850+1049031946+1049039651
2673+1049072255+1049111101+1049150646+1049137783+1049024049+1048860708
2664+1048759329+1048761940+1048788558+1048749777+1048663298+1048586436
2656+1048493971+1048347570+1048249119+1048342985+1048564975+1048665591
2647+1048546572+1048433857+1048610189+1049056908+1049477965+1049640096
2639+1049572594+1049487772+1049623794+1050123305+1050887536+1051540390
2630+1051727739+1051512116+1051273441+1051177538+1051026551+1050695093
2622+1050403500+1050465779+1050988979+1051798488+1052506808+1052784774
2614+1052639646+1052292268+1051885030+1051483651+1051167094+1050960960
2605+1050879385+1051035594+1051490401+1052050727+1052396131+1052366901
2597+1052067029+1051730222+1051526062+1051505493+1051677049+1052007806
2588+1052381039+1052675116+1052861764+1052977663+1053067070+1053161763
2580+1053302816+1053556138+1053928733+1054324572+1054695257+1055060530
2571+1055262843+1055069063+1054632787+1054401498+1054518416+1054741553
2563+1054861655+1054837838+1054668448+1054368958+1053995980+1053656817
2554+1053517802+1053646373+1053840663+1053813853+1053531302+1053234105
2546+1053165966+1053344017+1053573268+1053632172+1053430432+1053069426
2537+1052826676+1052999632+1053647392+1054527968+1055278763+1055603534
2529+1055414594+1054943930+1054618904+1054694111+1055050850+1055387593
2520+1055508077+1055409500+1055231194+1055188337+1055372756+1055557175
2512+1055461845+1055221260+1055210880+1055456241+1055644481+1055638623
2503+1055597740+1055719752+1056082477+1056589948+1057024059+1057241592
2495+1057214782+1056931977+1056513658+1056237412+1056150806+1055936075
2486+1055448536+1055041871+1055096828+1055548387+1056082286+1056531935
2478+1056888610+1057163201+1057416141+1057723718+1057993915+1058021234
2469+1057772370+1057412129+1057115059+1056988334+1056954010+1056706420
2461+1056156665+1055749682+1055866472+1056248492+1056494936+1056698141
2452+1057158935+1057864516+1058478716+1058572136+1057946218+1056963180
2444+1056310262+1056227732+1056288547+1056091519+1055819412+1055927160
2435+1056572054+1057523379+1058355239+1058599136+1058040275+1057072584
2427+1056462523+1056576065+1057060612+1057337750+1057165876+1056711896
2418+1056329749+1056308798+1056663754+1057112129+1057366215+1057449064
2410+1057608838+1057932527+1058249084+1058423187+1058482919+1058428217
2401+1058200750+1057897949+1057757915+1057824843+1057825607+1057550762
2393+1057228729+1057276616+1057721235+1058160822+1058306906+1058232017
2384+1058049445+1057678250+1057070482+1056468127+1056250530+1056555942
2376+1057193704+1057922020+1058605886+1059118388+1059398074+1059581028
2367+1059701894+1059481432+1058824884+1058156556+1057860441+1057835541
2359+1057823633+1057762500+1057747025+1057853181+1057984618+1057917690
2350+1057576743+1057110856+1056722786+1056512321+1056428008+1056350190
2342+1056230088+1056077764+1055914423+1055792475+1055768022+1055846604
2333+1056009753+1056202451+1056252504+1055962120+1055337477+1054644058
2325+1054207846+1054168873+1054439898+1054942275+1055678932+1056427944
2316+1056774813+1056698523+1056699479+1057063668+1057403150+1057242547
2308+1056725206+1056391837+1056453225+1056590967+1056482455+1056256261
2299+1056214932+1056303894+1056181755+1055779038+1055442359+1055471716
2291+1055815527+1056312364+1056888483+1057358573+1057437346+1057175683
2282+1056951208+1056841423+1056505507+1055839535+1055259468+1055232404
2274+1055816228+1056604913+1057004254+1056738260+1056107312+1055669317
2265+1055825844+1056654202+1057776637+1058436687+1058069249+1056836965
2257+1055515719+1054856751+1054958513+1055294238+1055453567+1055519794
2248+1055519667+1055187254+1054680165+1054756964+1055760635+1057111174
2240+1058182283+1058996567+1059724501+1060161477+1060089455+1059684064
2231+1059133926+1058111470+1056180099+1053845184+1052577748+1053273969
2223+1055144079+1056635798+1056996103+1056464497+1055636648+1055188273
2214+1055565262+1056523338+1057417924+1057912595+1057947619+1057358000
2206+1056083114+1054585281+1053742213+1054301775+1056191689+1058313720
2197+1059484616+1059588352+1059315798+1058986506+1058232781+1056744947
2189+1054909925+1053739856+1054246372+1056488314+1059036049+1060042140
2180+1059287843+1058471074+1058902893+1059784424+1059594656+1058365365
2172+1057352460+1057198417+1057671500+1058490242+1059296312+1059414185
2163+1058744455+1058520109+1060119257+1063078051+1065256121+1065433726
2155+1064501569+1063922584+1064042368+1063972828+1062930631+1061504630
2146+1061165339+1062380876+1063715240+1063354107+1061368672+1059781877
2138+1060194082+1061996499+1063297240+1063039397+1061629444+1060025710
2129+1058932759+1058549338+1058586655+1058584617+1058407648+1058396632
2121+1058896589+1059617899+1059718324+1058800813+1057586486+1057186126
2112+1057852608+1058815523+1059184616+1058737323+1058018623+1057803064
2104+1058264749+1058762413+1058688098+1058230998+1057900559+1057645646
2095+1057018646+1056046943+1055391096+1055646710+1056757874+1058050273
2087+1058756300+1058687525+1058388799+1058381476+1058459930+1058161332
2078+1057604444+1057206377+1056924017+1056475768+1055946582+1055573159
2070+1055370527+1055415231+1055929834+1056775386+1057423400+1057643162
2061+1057753393+1058187568+1059080180+1060018069+1060134604+1058993192
2053+1057356981+1056483601+1056746411+1057363286+1057389841+1056708712
2044+1056008098+1055955243+1056391774+1056546645+1056203088+1056039874
2036+1056590012+1057591517+1058534755+1059111511+1059258040+1059464493
2027+1060505480+1062155637+1062870516+1061540227+1059000897+1057163774
2019+1057166895+1058720639+1060821082+1062618659+1063524071+1063150329
2010+1061827300+1060693529+1060460331+1060542988+1060137916+1059534478
2002+1059648848+1060717346+1061937595+1062340311+1061744642+1060658123
1993+1059475446+1058293787+1057382517+1057144288+1057690413+1058772284
1985+1059634966+1059117178+1057156387+1056069741+1058453753+1063518212
1976+1067528820+1068384115+1067472335+1066799740+1066895070+1066651428
1968+1064733748+1061266910+1057872858+1055936330+1055636075+1056390245
1959+1057432952+1058041739+1057662903+1056322234+1055083009+1055361994
1951+1057244903+1059138193+1059628725+1058977145+1058334543+1058290285
1942+1058618750+1058907414+1059007074+1059017263+1059133099+1059515565
1934+1060121359+1060609662+1060545217+1059819130+1058799030+1057966405
1925+1057543693+1057540764+1057946409+1058741908+1059800153+1060798093
1917+1061331737+1061283212+1060924563+1060619087+1060474723+1060187905
1908+1059389541+1058249338+1057363540+1057053288+1057197716+1057653670
1900+1058325500+1058866468+1058880159+1058465407+1058147895+1058270799
1891+1058807818+1059546577+1060132121+1060252413+1059917198+1059405524
1883+1059015608+1058884235+1059005228+1059396291+1060116328+1061035049
1874+1061782023+1062149396+1062368585+1062797220+1063355317+1063522415
1866+1063078625+1062377310+1061948102+1062097815+1062679920+1063211781
1857+1063284249+1062849183+1062163788+1061574742+1061353961+1061573787
1849+1062051838+1062528169+1062914010+1063202165+1063243366+1062972851
1840+1062578349+1062265168+1062135514+1062168628+1062207155+1062146467
1832+1062129273+1062296690+1062392083+1062144302+1061790620+1061658864
1823+1061685483+1061700193+1061798007+1062068904+1062228679+1061846085
1815+1060928129+1059976103+1059449146+1059324268+1059276826+1059189201
1806+1059173790+1059276380+1059420044+1059540464+1059662476+1059843202
1798+1060066020+1060270753+1060491471+1060889920+1061528892+1062130674
1789+1062449523+1062607897+1062794099+1062920123+1062744301+1062359861
1781+1062201997+1062439844+1062723860+1062746594+1062714499+1063123519
1772+1063993588+1064558372+1064425152+1063953788+1063418425+1062885290
1764+1062603440+1062829251+1063223562+1063164148+1062585800+1061740567
1755+1060722568+1059583767+1058490752+1057528282+1056491370+1055164584
1747+1053615807+1051966095+1050301101+1048800912+1047634537+1046676653
1738+1045665277+1044774639+1044694083+1045780220+1046951053+1047312440
1730+1047293591+1047215200+1047022948+1046838465+1046892276+1047120125
1721+1047365869+1047835959+1048867395+1049983080+1050025300+1048987433
1713+1047648229+1046410277+1045272494+1044212657+1043418750+1043050422
1704+1042921850+1042959804+1043547385+1044663389+1045363048+1045491301
1696+1045624648+1045544920+1044856851+1043785678+1042663880+1041578889
1687+1040679782+1040545861+1041549851+1042353692+1041744841+1040347178
1679+1038943847+1037980231+1037614513+1037459005+1036964716+1036282314
1670+1035971425+1035936528+1035403903+1034278984+1033178201+1032669519
1662+1032649269+1032422311+1031564214+1030113951+1028486783+1027894489
1653+1029663984+1031368205+1030830932+1029692130+1029845919+1031469903
1645+1032638889+1032624052+1032139505+1031642414+1031261668+1031453665
1636+1032925834+1034884651+1035576669+1035191783+1034822371+1035075247
1628+1035757522+1036370576+1037007700+1038035060+1039027141+1039312558
1619+1039244356+1039858938+1041449617+1042787357+1043177974+1043177656
1611+1043324758+1043667997+1043881518+1043535732+1042304785+1040060678
1602+1037041196+1033963256+1031698772+1030774893+1031260139+1032888135
1594+1035112883+1037308910+1039109672+1040481926+1041507439+1042203915
1585+1042539957+1042510537+1042119792+1041344417+1040250319+1039211879
1577+1038883733+1039290652+1039524997+1039416740+1039688210+1040785555
1568+1041986764+1042441316+1042199648+1041470696+1040344121+1039318863
1560+1039687191+1041494512+1041765537+1040351317+1038699632+1037325085
1551+1036124513+1034911652+1033585820+1032146574+1030749038+1029640358
1543+1029166892+1030240612+1033200744+1035439437+1035664039+1035252980
1534+1035610228+1036895941+1037979977+1038398422+1038784391+1039616952
1526+1040517842+1040984940+1041421916+1042466725+1043712955+1044545070
1517+1045187544+1045834158+1046218471+1046175996+1045795631+1045345218
1509+1045707815+1048279495+1051693033+1052970021+1052698423+1052171593
1500+1051861277+1051733661+1051444424+1050556333+1049015516+1047168140
1492+1045551798+1044960714+1045837979+1047331290+1048425833+1049030990
1483+1049412183+1049637549+1049495159+1048656166+1046813948+1043770395
1475+1039710244+1035522158+1032217451+1029558974+1026673222+1023262104
1466+1019516216+1015925137+1013092812+1011262503+1010414468+1010887551
1458+1013282262+1016421273+1018135938+1018794078+1019526660+1020816257
1449+1022705216+1024769425+1025849321+1024768470+1021453764+1017173851
1441+1013942822+1013502088+1016720317+1022458581+1027349255+1029959971
1432+1031647572+1033622564+1035780893+1037416276+1038481844+1039442849
1424+1040358959+1040884133+1041108735+1041603342+1042330894+1042556323
1415+1042269124+1042067001+1042254031+1042638153+1042905102+1043056089
1407+1043404040+1044127261+1044910215+1045365150+1045586695+1045868227
1398+1046219171+1046441480+1046461030+1046273873+1045862814+1045352414
1390+1045016562+1045082853+1045459142+1045731377+1045623502+1045109345
1381+1044121785+1042543524+1040530705+1038627291+1037459515+1037231665
1373+1037418886+1037232111+1036309888+1034831924+1033344917+1032463895
1364+1032613926+1033732859+1034856759+1034491423+1031471304+1025225187
1356+1016202530+1006432325+998902279+995948197+998133398+1004119125+1011562375
1346+1018516557+1024085622+1028226456+1031417303+1034285161+1037053041
1337+1039381524+1040978189+1041993195+1042783791+1043608901+1044517433
1329+1045392087+1046079647+1046532671+1046839930+1047121335+1047377331
1320+1047420761+1046974360+1045921846+1044484319+1043121999+1042305676
1312+1042305676+1043068571+1044271944+1045498497+1046417282+1046913672
1303+1047102549+1047217684+1047456422+1047883529+1048416918+1048865675
1295+1049036594+1048900063+1048647442+1048527022+1048614264+1048770027
1286+1048829632+1048761557+1048604012+1048360433+1048072469+1047899258
1278+1047971344+1048216005+1048436659+1048483273+1048240713+1047534431
1269+1046154535+1043944180+1040865029+1037105387+1033176354+1029810003
1261+1027666831+1027068933+1027898246+1029675510+1031804481+1033881872
1252+1035798214+1037531410+1038996065+1040144164+1041017417+1041642888
1244+1042042803+1042311217+1042519006+1042642929+1042705909+1042823973
1235+1043049657+1043325904+1043617625+1043950675+1044336643+1044745473
1227+1045124118+1045436536+1045722844+1046080411+1046551711+1047095863
1218+1047676375+1048293696+1048904011+1049345955+1049356844+1048660751
1210+1047122545+1044922760+1042637070+1041076194+1040865920+1042027965
1201+1043972836+1045967632+1047601933+1048809318+1049600805+1049933282
1193+1049773188+1049185607+1048379028+1047681597+1047342307+1047273850
1184+1047078732+1046373597+1045046683+1043272794+1041474071+1040264138
1176+1040151742+1041124336+1042633886+1044079692+1045174808+1045886885
1167+1046302147+1046589474+1046874254+1047109427+1047147508+1046864893
1159+1046242988+1045503655+1045082280+1045249442+1045883447+1046757718
1150+1047784505+1048830906+1049643344+1050125788+1050427889+1050674652
1142+1050853085+1050985477+1051187727+1051520076+1051914068+1052240304
1133+1052378555+1052258772+1051940114+1051597193+1051311649+1050910015
1125+1050179598+1049223688+1048384568+1047778010+1047138338+1046207008
1116+1045069735+1043995251+1043077613+1042180353+1041167767+1040064563
1108+1038994601+1038044231+1037235741+1036585370+1036112032+1035758286
1099+1035379068+1034894076+1034365017+1033822712+1033147698+1032275273
1091+1031371835+1030614863+1029923482+1029052968+1027803107+1026023743
1082+1023571655+1020415451+1016757889+1013012320+1009639028+1006981316
1074+1005266969+1004740012+1005651218+1008019693+1011461505+1015332779
1065+1019041413+1022240730+1024828329+1026841466+1028351462+1029422315
1057+1030153815+1030681218+1031035729+1031092213+1030818705+1030491832
1048+1030493806+1030958229+1031702019+1032399577+1032802803+1032914563
1040+1032915072+1032898897+1032859543+1032889918+1033111845+1033423180
1031+1033563660+1033366441+1032764149+1031664448+1030009324+1028008095
1023+1026287635+1025585492+1025996424+1026630301+1026289291+1024277492
1014+1020296113+1013985551+1005125471+994197934+982576469+972401638+966189908
1004+965693645+970416966+977506470+983843587+988475781+992789764+998407989
994+1005340584+1012222107+1017807473+1021826423+1024650915+1026686149
986+1028213593+1029507011+1030812464+1032210509+1033581044+1034745445
977+1035654550+1036416235+1037108698+1037625594+1037808485+1037713409
969+1037614959+1037747160+1038151914+1038759301+1039495831+1040319540
960+1041219857+1042149659+1042957575+1043523314+1043977230+1044617603
952+1045598030+1046841840+1048228614+1049663212+1050978026+1051974883
943+1052621560+1053083309+1053520731+1053930962+1054231216+1054407994
935+1054471356+1054355457+1054072397+1053890907+1054019351+1054167790
926+1053859894+1053149537+1052548901+1052271189+1052042258+1051642343
918+1051189765+1050895178+1050862955+1051114112+1051573058+1052018632
909+1052199867+1052064227+1051853126+1051896811+1052291758+1052815786
901+1053150110+1053135336+1052855205+1052537884+1052398933+1052575010
892+1053102477+1053850533+1054581715+1055173117+1055625632+1055830938
884+1055591945+1054876556+1053848241+1052731537+1051779830+1051204730
875+1051081316+1051409399+1052107339+1052836101+1053147435+1052979637
867+1052762422+1052949070+1053634147+1054618204+1055607737+1056277403
858+1056364136+1055938431+1055456432+1055270357+1055206231+1054889802
850+1054307569+1053751192+1053395535+1053223088+1053253273+1053517547
841+1053694388+1053036376+1051071191+1048401571+1046485229+1046494144
833+1048384377+1050913582+1052562847+1052672378+1051724045+1050500421
824+1049259413+1047853089+1046321060+1045095335+1044603911+1044749549
816+1044952117+1044791451+1044374724+1043949975+1043448362+1042587591
807+1041115612+1038557879+1033869008+1025958979+1014914270+1002415158+990900995
798+982626076+979082184+980389039+985238193+991980892+999599009+1007432366
788+1014765321+1021208084+1026926671+1032142689+1036790677+1040768362
779+1044151269+1047055998+1049468986+1051282484+1052499676+1053364268
771+1054143783+1054709522+1054467981+1052848009+1049784269+1045644262
762+1040754161+1034990616+1027793874+1018799491+1008687958+999256980+992436973
752+989310380+990021629+994087193+1000429405+1007502606+1013942121+1019180110
742+1023319034+1026516695+1028719536+1029982833+1030775275+1031727173
734+1033022629+1034174357+1034521671+1033837232+1032343475+1030435602
725+1028625989+1027415929+1026915017+1026739895+1026228922+1024441979
717+1020275162+1013454837+1005738843+1000500281+1000147681+1003665846
708+1007073398+1006537144+1000921210+991708148+981683666+974168712+972166974
698+976717085+986152647+997543334+1008585177+1018064297+1025424953+1030665107
688+1034329228+1036919503+1038417845+1038816040+1038814002+1039340323
680+1040454352+1041361483+1041553990+1041292008+1040831788+1039930133
671+1038380592+1036528504+1035325130+1035595709+1036768834+1038017612
663+1039197232+1040186511+1040623807+1040368638+1039777172+1039257538
654+1038914745+1038911752+1039655797+1041188336+1042921086+1044346769
646+1045481431+1046424414+1047082553+1047425219+1047589833+1047732796
637+1047915051+1047996052+1047770177+1047442604+1047634219+1048562046
629+1049523369+1049610230+1048795690+1047920591+1047629889+1047821440
620+1048185375+1048663935+1049240372+1049766820+1050108021+1050195964
612+1050119484+1050279386+1050982866+1051799316+1051889615+1051064568
603+1050033005+1049536296+1049620928+1049875969+1050094075+1050305495
595+1050267987+1049565207+1048347633+1047346064+1046953982+1046910934
586+1046841777+1046535282+1045958526+1045387756+1045175700+1045263388
578+1045403613+1045734943+1046458419+1047137955+1047045491+1046063854
569+1044783172+1043800643+1043210387+1042887081+1043019409+1043931698
561+1045343244+1046322270+1046308006+1045774107+1045543774+1045847021
552+1046330931+1046623671+1046681174+1046848145+1047514945+1048458310
544+1048847590+1048279049+1047419997+1047224243+1047755530+1048178816
535+1047841054+1046922396+1045814480+1044388097+1042417500+1040434357
527+1039578680+1040442189+1042227667+1043500899+1043614696+1043070417
518+1042663753+1042449467+1042069994+1041853480+1042442908+1043567636
510+1044189732+1043900813+1043418177+1043624312+1044767825+1046424286
501+1047508832+1046901318+1044769990+1042568232+1041516482+1041558002
493+1042022998+1042858424+1044549082+1046982129+1049003035+1049255146
484+1047433625+1044505206+1041477700+1038603538+1036036634+1034337316
476+1033947972+1034670047+1035810950+1036642810+1036898106+1036829649
467+1036828376+1037144168+1037789317+1038699441+1039981778+1041667341
459+1043065832+1042970502+1041280736+1039336820+1038166497+1037813515
450+1037822303+1037868599+1038077663+1038750067+1040059150+1042156855
442+1044792406+1046779688+1047100893+1046230060+1045403549+1044917857
433+1044173621+1043446770+1044130955+1046698623+1049276352+1049235023
425+1046213058+1042863455+1041666832+1042536837+1044631994+1047862896
416+1050814303+1050995857+1047798388+1043806566+1042956811+1046205734
408+1051126530+1055545139+1058744583+1059957254+1058590858+1055325823
399+1051480212+1048923052+1050812520+1057784852+1065339224+1068384115
391+1066932705+1063840946+1062727617+1063303799+1062979792+1062092211
382+1063672192+1067542193+1071035905+1073007840+1073741823+1072426945
374+1068384115
##END=
