##TITLE=X8047
##JCAMP-DX=5.0
##DATA TYPE=LINK
##BLOCKS=1


$$ === CHEMSPECTRA SPECTRUM ORIG ===
##TITLE=X8047
##JCAMP-DX=5.00
##DATA TYPE=INFRARED SPECTRUM
##DATA CLASS=XYDATA
##ORIGIN=ComPlat
##OWNER=
##XUNITS=1/CM
##YUNITS=TRANSMITTANCE
##XFACTOR=1
##YFACTOR=9.0039537e-010
##FIRSTX=3997.453
##LASTX=373.96442
##MAXX=3997.453
##MAXY=0.9667921651041641
##MINX=373.96442
##MINY=0.5089623327740813
##NPOINTS=2559
##XYDATA= (X++(Y..Y))
2559A036908558A036501240A036434578A036383539A036104514A035659065A035384806
2552A035674556A036598088A037708234A038453759A038797990A039085754A039314999
2545A039057818A038239806A037511558A037543201A038222396A038878884A039114881
2538A039117926A039212789A039370605A039340816A039151092A039177968A039594356
2531A040000813A039806918A038853199A037566106A036547380A036141121A036368314
2524A036997065A037585237A037843411A038098075A038916220A040058141A040625129
2517A040294734A039416415A038261718A037082726A036557111A037120988A038069809
2510A038391268A037888889A037054856A036494157A036407768A036463706A036286426
2503A035972183A036028650A036749616A037933374A039316521A040790824A042013242
2496A042189130A040686230A037845264A034989138A033297044A032994650A034041973
2489A036250282A038715573A040272822A040223835A038785346A037488786A037766687
2482A038856576A039037826A037804751A036194742A035033425A034308289A034548589
2475A036199508A038158978A038922575A038004272A036123512A034503177A034282273
2468A035772661A037621448A038210282A037376183A036478402A036655879A037511161
2461A038111911A037889815A036496805A033929370A032119839A033684767A037213997
2454A040300361A041975906A042059845A040754746A038570003A036241014A034464120
2447A033761491A034412154A036096437A038006589A039412972A039987309A039990354
2440A040039010A040566411A041548993A042443133A042400899A040921036A038806463
2433A037495141A037172226A037663285A039136925A041007557A042201245A042234741
2426A041288436A040137645A039745288A039842665A039070065A037125556A035818404
2419A036714001A039043321A041532774A043485624A044708042A045347451A045500767
2412A045140383A044456819A043914126A043797352A043844220A043461925A042379186
2405A041162726A040834382A041621215A042851180A043856070A044298539A044154426
2398A043687728A043185349A042834564A042948293A043572410A043943981A043158605
2391A041357216A039901317A039639635A039686967A038524988A035427636A031781963
2384A030495465A031739795A033363639A034157688A034146765A034027078A033925663
2377A033100236A030858033A027554076A025151409A025538404A028141189A031248868
2370A033867938A035497674A035853490A035156951A034258508A034055544A034897983
2363A036539304A038435223A040099846A041095799A040859736A039095882A036897040
2356A036424781A037943833A039779049A040636251A040233699A039162213A038600190
2349A039162743A040216553A040985447A041403688A041851056A042553354A043252209
2342A043418433A043013895A042714215A042811064A043007606A043024089A042722225
2335A042025885A040832529A039159036A038032340A039035245A041006101A041372045
2328A039995253A039728076A042271481A045620652A047665915A048078462A047632749
2321A046977452A046103436A045052604A044535993A044823624A044693346A042772602
2314A039115212A035900689A035494562A037426361A040136586A042531839A043869376
2307A044156941A044167070A044375263A044357323A043547784A041961474A039737741
2300A036686595A033623070A033236803A035857859A038809244A040525236A040944801
2293A040526825A040007565A040174054A040877941A041288304A041280890A041536548
2286A042338540A043383811A044693743A046235237A047158438A046787662A045532012
2279A044306880A043464639A042599295A041341461A040003196A039426543A039919720
2272A040629101A040478566A039632949A039919919A042325433A045253317A046848763
2265A046889541A046583506A046945412A047682795A048171868A048579054A049077593
2258A048880322A047103494A044331837A042730699A043372094A044767885A045715779
2251A046493079A047604416A048948043A049995102A050204818A049422023A048331208
2244A048023187A048623473A049203436A049118239A048655314A048526824A049265133
2237A050988474A053095432A054404174A054221268A053123236A052160912A051618880
2230A051101474A050355088A049534229A048874365A048526559A048767918A049895606
2223A051597366A052888232A053098478A052630721A052367980A052468535A052256370
2216A051325555A050235534A049826826A050120614A050377662A050137892A049756126
2209A049803656A050182575A050336420A050100622A049844633A049894149A050096187
2202A049981134A049263875A048238729A047634073A047849880A048461552A048718930
2195A048360004A047699941A047019952A046295411A045639055A045436885A045713396
2188A045887166A045527180A044742730A043608819A041988616A040130628A038705445
2181A038060673A037963560A038083843A038289256A038470639A038368959A037749541
2174A036783311A036019449A035732280A035533487A034919432A033910569A032852588
2167A032025904A031580853A031284615A030499437A029004811A027489533A026633522
2160A026155703A025349342A024136324A023075364A022563320A022325337A021652034
2153A020134637A018127835A016341871A015139313A014422517A013891806A013161638
2146A011931872A010263013A008579061A007347309A006667188A006076765A004940339
2139A003123460A001042781I99064379I97199705I95329868I93388470I91388951
2132I89505741I88018464I87005961I86196290I85173062I83700812I81906904I80220105
2124I79031515I78257127I77322010I75776478I73811580I71883753I70055290I67998840
2116I65467946I62562900I59697109I57249890I55098379I52823475I50536456I48867861
2108I47823782I46358416I43537640I39593082I35421596I31575673I28152162I25117301
2100I22259321I19166735I15593219I11647667I07559062I03470125H99351068H94965828
2092H90186178H85378990H81109199H77476369H74023796H70163971H65572458H60437720
2084H55416976H51085555H47361900H43659893H39635168H35619248H32237111H29769172
2076H28020875H26564909H24935438H22908314H20808768H19275219H18619524H18583049
2068H18611250H18301971H17761065H17501965H17886312H18853138H20186107H21741436
2060H23438231H25266032H27207430H29071707H30607110H31833765H33116357H34855651
2052H37094478H39436904H41497062H43392054H45510930H47865074H50067359H51930576
2044H53641273H55335353H56952644H58577482H60464861H62580228H64542280H66187043
2036H67785533H69530785H71198122H72593251H74067156H76223169H79170979H82347041
2028H85083083H87181106H88956081H90798512H92655043H94062022H94884404H95689309
2020H97008244H98685576I00327361I01836218I03177661I04237165I05205580I06556555
2012I08411696I10349982I11989913I13411389I14814925I16103541I17121473I18034347
2004I19075249I20108472I20827121I21242118I21653541I22237344I22878871I23421234
1996I24000734I25047329I26871622I29276077I31638363I33379908I34388307I35008850
1988I35596426I36245235I37082710I38455332I40439494I42494223I44032142I45104819
1980I46128576I47146705I47867737I48312193I48879181I49814828I51069153I52555239
1972I54138769I55593874I56849787I57964170I58795356I59157527I59145611I58884062
1964I58398034I58083062I58578688I59864194I61194118I62043574I62462543I62619301
1956I62596661I62489486I62407599I62583751I63392298I64881561I66479456I67507648
1948I67799781I67684067I67610851I67803356I68021016I67742520I66676727I64907776
1940I62614998I59976400I57294376I55014043I53629240I53506641I54591830I56347806
1932I58185008I59923905I61700468I63499076I64972981I65802115I66081803I66176467
1924I66354606I66774303I67534790I68390800I68660690I67727162I65495816I62308963
1916I58617878I54735480I50762391I46844643I43576101I41935046I42583723I45258796
1908I49025612I53070924I56993372I60414633I62856622I64203890I64875008I65428095
1900I66249881I67456543I68750720I69588989I69715759I69273157I68420920I67375384
1892I66772450I67339769I69059072I71101356I72749561I74047710I75312759I76444220
1884I77190209I77768915I78576137I79497617I80191773I80819068I81800127I83091258
1876I84240527I84876031I84825058I84180882I83412916I83050480I83285683I84002412
1868I84839622I85264151I85135462I85053905I85642739I86815111I88136959I89391483
1860I90475348I91280054I91894375I92524185I93159888I93564161I93561513I93289769
1852I93198878I93658890I94538004I95350125I95770087I95825164I95745328I95726528
1844I95664037I95194426I94163123I92795731I91271382I89529109I87568448I85467049
1836I83092251I80308083I77475855I75328448I74324220I74370823I75133428I76378353
1828I77937257I79553952I81017596I82333751I83544055I84564634I85396813I86197481
1820I86949494I87460148I87818347I88392021I89242603I89981839I90340833I90509639
1812I90800911I91306666I92052258I93137777I94427453I95391432I95678402I95712560
1804I96345019I97939471I99970766A001568992A002420037A002966504A003635570
1797A004207259A004228310A003707395A003064742A002647428A002498085A002441882
1790A002343446A002314583A002544424A002959288A003277305A003326557A003114391
1783A002707338A002219258A001808497A001555686A001393632A001197685A000924816
1776A000656978A000529281A000629108A000944477A001402106A001944733A002519070
1769A002954853A002976235A002469421A001694106A001136187A001150420A001698211
1762A002359399A002629224A002289097A001543704A000863583A000689680A001147838
1755A001944998A002587982A002802067A002748116A002741959A002755729A002411696
1748A001558930A000576613I99931113I99652352I99367700I98693801I97584251
1741I96376662I95438102I94791610I94270761I93908259I93862450I94074152I94353112
1733I94734149I95409968I96322247I97136751I97644028I97916103I98075773I98210619
1725I98516456I99192142A000144603A001061185A001784666A002417323A003074871
1718A003720834A004243602A004543083A004496148A004013165A003292398A002870053
1711A003166622A004063145A005092198A005887239A006321897A006462834A006556570
1704A006880346A007479441A008150625A008707287A009149823A009533773A009794197
1697A009850929A009818889A009889059A010061240A010249045A010526416A011007744
1690A011646094A012348260A013047049A013542279A013576569A013166206A012616363
1683A012185942A011885269A011568179A011159007A010794255A010654907A010683174
1676A010664836A010597646A010692640A010961935A011123657A011051038A011059445
1669A011522039A012350047A013052213A013234986A012864805A012144368A011381566
1662A010909638A010855025A010967363A010899841A010642462A010471207A010504571
1655A010562097A010437115A010093877A009597389A009032983A008516702A008174391
1648A008055896A008046959A007888348A007396031A006672616A005991038A005513350
1641A005288674A005430537A006013016A006820304A007496255A007945345A008306258
1634A008580517A008671077A008776001A009300225A010260233A011164038A011615511
1627A011722355A011792856A011941140A012167869A012570289A013224328A013973892
1620A014521285A014686649A014516585A014223790A014020561A013923581A013783174
1613A013569155A013490114A013760733A014381938A015140901A015703388A015824134
1606A015619912A015505257A015744630A016199942A016558538A016656843A016511405
1599A016157244A015589792A014926551A014523470A014737357A015523394A016444611
1592A017167629A017765068A018355756A018694691A018480341A017911300A017481078
1585A017317303A017206090A017171865A017470486A018039791A018501591A018736793
1578A018970672A019256119A019354159A019193892A018978417A018738250A018256591
1571A017625324A017389592A017831796A018498479A018827617A018889182A019066527
1564A019319603A019288622A018969282A018814444A019183301A019945773A020683156
1557A021196590A021667524A022227231A022663676A022873326A023209084A023916347
1550A024655186A025133866A025733159A026864488A028081544A028473306A027764322
1543A026478420A025192121A024171806A023569666A023407878A023443492A023402979
1536A023179560A022712332A022137069A022060345A022985665A024461027A025450559
1529A025471213A024865167A024249060A024146982A024810090A026040783A027348994
1522A028332038A028836403A028992631A029120593A029280991A029086170A028368779
1515A027705405A027767168A028424054A028878770A028502830A027399040A026296970
1508A025815907A025729783A025226809A023954146A022359164A020919417A019594326
1501A018256127A017200728A016877349A017325975A018112874A018696147A018778763
1494A018518471A018491727A019268895A020958276A023177441A025256465A026483782
1487A026656228A026495698A026959748A028032557A028756171A028546124A027937298
1480A027858257A028548970A029446553A030049222A030567820A031420520A032353254
1473A032680406A032323134A031904099A031801359A031873979A032109909A032716683
1466A033507223A033963660A033978092A033918977A034018340A034204093A034391831
1459A034526809A034505030A034359923A034372170A034773861A035492775A036310854
1452A037061145A037526784A037458600A036936759A036394396A036047384A035693091
1445A035224804A034809542A034482523A034151861A034018208A034414074A035295372
1438A036301453A037171895A037858835A038440254A038977123A039283422A038979175
1431A038006325A036852554A036054004A035731221A035770411A036141187A036817006
1424A037561803A037867110A036986076A034264002A029728624A024114611A018033370
1417A011430553A004054539I96026406I87664171I79113535I70372446I61462817
1410I52527502I43766951I35279601I27384593I21167778I17793253I17041770
1403I17616172I19191427I22956323I29717686I38784470I48882226I58580013
1396I65834817I68512936I65652242I58661437I51406103I47346691I46635125
1389I47499609I48832511I50749283I53509554I56305042I57798674I58003293
1382I58479656I60227821I62591498I64637952I66432853I68746152I72252344
1375I77129439I82976470I88883808I93786918I97059563I98959786A000512864
1368A002783466A006174010A010384884A014755760A018477693A020966220A022497386
1361A024192791A026935320A030431981A033504178A035138746A035298814A034982121
1354A035418037A036990313A039049213A040810551A042108766A043148476A043967018
1347A044440071A044554197A044412996A044106498A043717318A043373617A043252540
1340A043528984A044217380A045065380A045764104A046277935A046739999A047021938
1333A046744566A045875052A044960125A044517391A044579617A045015136A045644152
1326A045979447A045928143A046595687A048834646A051267632A051689249A050228583
1319A049107780A049462206A050280549A050454055A050336089A050880306A052207052
1312A053564647A054197569A053848373A052891145A052213142A052416967A053072595
1305A053213200A052335609A050665095A048973199A048233830A048895349A050540112
1298A052428949A054077154A055361600A056424281A057226604A057184502A055769116
1291A053275360A050591615A048640221A047966984A048194111A048130362A046963815
1284A045086233A043578434A043001251A042682109A041606056A040260840A040484326
1277A043024950A046705510A050182178A052776424A053660634A052160647A049023576
1270A046253640A045581396A047189353A049584143A050917641A050786635A050631003
1263A051985089A054271578A055161019A053885841A052427956A052567435A054307987
1256A056749844A058821056A059871624A060211022A060307738A059765044A058265057
1249A056503653A054985262A053396106A052140059A052638797A055114614A057823779
1242A059286034A059749951A060005477A060055192A059359646A057784193A056009880
1235A055025842A055102897A055413698A055069069A054336188A054127332A054477190
1228A054504332A053943963A053656729A054316262A055447194A056130030A056166703
1221A056168491A056594146A057074481A056997492A056485051A056196757A056339746
1214A056582164A056783010A057105991A057519002A057774925A057795645A057574079
1207A056927454A055995448A055617324A056315914A057345430A057797565A058041439
1200A058807817A059677928A059822902A059417702A059215334A059441202A059783977
1193A059870829A059317544A057842513A055901447A055019288A056536355A059443652
1186A060437090A057377470A052203345A049332920A050988076A055125272A058539912
1179A060507657A062121241A063400324A063251709A061847444A060761594A060597356
1172A060437487A060004881A060324619A061613500A062541997A062482220A062678101
1165A064023515A065199263A064400647A061895835A059874470A060422658A063888735
1158A068285362A070425023A068944828A065943928A064279769A064138766A063771895
1151A062386696A060728693A059871028A060319720A061447607A061694924A060263849
1144A058414401A058184626A059922596A061991293A062577810A060873734A057292141
1137A053451646A051575388A053211479A058208656A064657827A069915627A072304327
1130A071857290A069522607A066448822A064269309A064867411A068382342A072224426
1123A073741822A073042835A072185766A072362052A072765729A071954535A069495003
1116A066375872A064319620A064564024A066835354A069435623A070715766A070405561
1109A069216308A067722610A066288887A065410502A065252950A065294324A065037541
1102A064670008A064518215A064526159A064704100A065159941A065448103A065022116
1095A064371851A064437916A064934536A064798168A064005244A063542253A063604744
1088A063271635A062098733A060979254A061095167A062381863A063862388A065112543
1081A066291932A067285105A067800261A067862421A067600209A067017532A066232354
1074A065411296A064415144A063011806A061510958A060914644A062106015A064891838
1067A067882148A069451048A069262978A068396442A067820782A067570023A067412537
1060A067364742A067326479A066942993A066070830A065213430A065241961A066436642
1053A068192022A069594897A070081917A069700152A068917556A068406703A068729420
1046A069831489A071009356A071480092A070938126A069761650A068707972A068273049
1039A068532149A069381208A070497179A071447456A072025433A072184640A071820285
1032A070885499A069433439A067570619A066013635A066023631A067650123A069586820
1025A070908006A071561383A071645720A071201463A070571123A070200942A070042132
1018A069622634A068740938A067752863A067151716A067105178A067543676A068237368
1011A068675137A068439471A067710562A067035074A066690843A066510387A066094066
1004A065119031A063763819A062829893A062915223A063652805A064298172A064344643
997A063757332A062934090A062276409A062039751A062330757A062870142A063165320
990A062873055A061893585A060728031A060359307A060933114A061812955A062495261
983A062531803A061429667A059154630A056299497A053221409A049828613A046401924
976A043470200A041063693A038847970A036815748A035754986A036230820A037277415
969A037608009A037000177A035724734A033836957A031727482A029900607A027821186
962A024289176A018995893A013484818A008631291A003321062I96191770I86053897
955I71258444I50731211I26290732I00432748H71437230H34916884G93964298
948G61135765G40456409G27001273G16894513G07879695F98027269F86196904
941F73629487F63693387F58165961F56433154F58075005F63850608F74808082
934F91226916G10319698G28904871G47540885G67502387G87066367H04099059
927H20720460H40899026H61627370H77211311H88731801H98497176I07342395
920I15666699I23228332I29130043I33880632I39961807I48718584I57634767
913I64411090I69406878I73809528I78271558I82499511I85906010I88220634
906I89560024I90979514I94979613A000803938A004693750A006985734A010306373
899A016410916A023129712A027896718A030648317A032027823A032455531A032326312
892A032686629A034631932A037061145A038243116A037465551A034427909A029070546
885A021201157A010053959I96559237I85608581I81159789I82801641I89464235
878I99669762A009040595A014551472A016724431A016615535A014695652A011128887
871A006021092I99493807I91639577I82424707I71553027I58365663I41977876
864I21663470H97331358H69680062H39873416H09605103G81486911G58091504
857G40127337G26235888G14754256G05595588G00299261G00655805G09141831
850G29354887G58337563G85205071H06839139H27972153H51870203H75571446
843H95393204I11850631I25465769I35203605I41263795I47438706I58302046
836I69361532I76612894I81321777I84442697I86637832I88702623I90701481
829I91947797I91795673I89884396I85918720I79320801I71157690I64819666
822I59183874I49294774I30497303I02709639H71278023H37300619G96226227
815G47458997G00275297F64876616F43894865F37465885F43690180F57803790
808F77142367F99229761G20279563G38818265G55120127G69340581G84332511
801H07865875H38683038H62941009H79161579H91861193I03254054I14202392
794I25251749I35624428I43400676I47492127I47241170I41328471I29028627
787I12097088H92621481H70835885H46368926H20720857G98122478G82725547
780G76112204G78335739G89773416H10859495H37173783H59686833H74985128
773H85412552H93839530I02061690I10145231I16777903I21038691I23033775
766I24029133I25945574I28514200I30189017I30584618I30265675I30254157
759I31466314I33745190I35167395I32628292I23411304I05955209H77164839
752H31053353G71583446G23459664G03662863G09283297G34842594G73557479
745H14315907H49867837H79817935I04604234I23314721I36666720I47624525
738I58131255I67198899I73812838I78198012I80909230I82691950I84102305
731I85091572I85720390I86727796I88592800I90715383I92323737I93322007
724I94093747I94990933I96251348I98114764A000257670A001608843A001308965
717I99539881I97331572I95191050I92480428I88510317I83412982I78065483
710I73214207I68669958I63720046I58127945I52065769I45045969I36059416
703I25075662I13582048I03036460H93802988H85885738H78672572H69563024
696H54778692H31493969G99285847G60635968G19798633F81177616F49100369
689F27550703F18474320F20600345F30136078F42703958F55265549F66563481
682F76242268F84240546F91002636F97589169G05081029G13320996G19983127
675G21426317G14928622G00282976F79795859F57003056F34908974F15193863
668E98809254E86413820E77912899E72373293E68733445E66395785E65265382
661E65473113E67235113E70919975E76861273E84908736E94380720F04499527
654F14668248F24359217F32952087F39813938F44665082F47896950F50373230
647F52843618F55522663F58073747F59952984F60895781F61124827F61119001
640F61206251F61208899F60272126F57112084F50680456F40863049F28848454
633F16898933F07552063F02767515F03379320F08926406F18051048F29291122
626F41636179F54604360F68021564F81701642F95282290G08350563G20623133
619G31997987G42539140G52355222G61395527G69444314G76330526G81990547
612G86226444G88383516G87264500G81456459G69881753G52269628G29460738
605G03428984F76844805F52497732F32920246F19879842F13703276F13282255
598F16974134F23468055F31991086F42051772F53089478F64359872F75192562
591F85302697F94773821G03794928G12460220G20740899G28514765G35572364
584G41694185G46771925G50752363G53424457G54283314G52560834G47639917
577G40048031G32158187G27290957G27615593G32867502G40944025G49501215
570G57226160G64106613G70761660G77582469G84467224G91125119G97350341
563H02997917H07911618H11985461H15191842H17497529H18853668H19271180
556H18674800H16610869H12515842H06840728H01841498H00528786H04339359
549H11960372H20512862H27635005H32322970H33992557H31218319H22305909
542H07630275G90542706G75111352G63758741G57752569G58427328G66254350
535G79435425G94729815H09441064H22215946H32747434H41459263H49105166
528H56173490H62693758H68560516H73798854H78526869H82842469H86779878
521H90382853H93839596H97461106I01427047I05597407I09630208I13299712
514I16711639I20203533I23994908I27931391I31625785I34872283I37872191
507I40993838I44393253I47964056I51538963I55007423I58335278I61521932
500I64371570I66202946I65717712I60768529I47786512I21714907H78098037
493H17582396G49486651F89576327F51877520F41030266F51672239F74082946
486G00006532G24881603G47154949G66641279G83402094G97629102H09798865
479H20418132H29761096H37970215H45174775H51479369H57054921H62192902
472H67088266H71647409H75634401H78941271H81675989H84032516H86105913
465H87916437H89679695H91832397H94559436H97539154I00435793I03366061
458I06532591I09701040I12478853I14934281I17540640I20586490I23935529
451I27353744I30840343I34553935I38499023I42397308I45907606I48928499
444I51640776I54294070I56963583I59423114I61259191I62243228I62474856
437I61777523I58710821I50063932I31248190H97890138H48921532G89769179
430G32251592F89537668F69425697F71253167F88163589G11636250G34681335
423G53247774G66870657G78071674G89788112H02745966H15499400H26450188
416H34974411H41173087H45769103H50075832H55109021H60752361H66213191
409H70984433H75062514H78600350H81686250H84350202H86614978H88488986
402H89956006H91026631H91754217H92256596H92863039H94053880H96009113
395H98479369I01237587I04231472I07198744I09691574I11669513I13627526
388I15914280I18090219I18929878I16627302I09031775H95084190H77392098
381H62487352H56508123H60360136H69889447H80163225H88674076H95289008
374I00682183I05264562I09068913I12071072I14407673I16301473I17767105
367I18563735I18648270I18372223I17775710I15470686I07887869H90160758
360H59812278H20429386G80580855G49560926G35217938G42444410G69142913
353H05035368H38253080H63065263H80385321H93140211I03239821I11501435
346I18225462I23493986I27178848I28671488I27066179I21579993I10408170
339H89573645H56626551H16310726G77744985G44743014G14486219F85979376
332F62354129F44548573F31186049F25617646F35302193F62549744G00705652
325G40023141G74327962H02222006H24509253H41881277H54742614H63989193
318H70897979H76476311H81406429H86267569H91390325H96511492I00659345
311I02293649H98904891H86180320H60009947H22978153G88254297G72143815
304G80500688H04715564H31464974H53171794H68945526H80316805H88875451
297H95842293I01615248I05949119I08843772I10715463I11816274I11760469
290I09159803I01629415H86890495H64709695H38610154H16069897H05729722
283H12116733H32018127H56479062H77005897H90072383H96523143H98457987
276H97103569H91280171H76111293H45422753G98591162G44951671F99945960
269F76378769F78183070G00281784G33032203G67427053G97964793H22633458
262H41617079H55979132H66592441H73921983H78769552H82552123H86421216
255H90588531H94743468H98583962I01756516I03941788I05354195I06620039
248I07917658I08842779I09306233I09826287I10677200I11451522I11635950
241I11068631I09895200I08446516I07075748I06018296I05470638I05563911
234I06053712I06307318I05768199I04234053I01574139H97227426H90211068
227H80136547H68249120H56912727H48107426H42852737H41529036H43781830
220H48255644H53016295H56383736H57576497H56637077H53451813H47148014
213H37285857H25186330H13108516H04184058H04603225H16854016H30137963
206H35854252H35177772H32237905H29755138H27736752H25157004H21788834
199H17927024H13576604H08596042H03083511G96775673G87498511G70669711
192G42209671G03751304F64578194F36452124F25435469F29024476F40709403
185F55145796F69242857F81486167F91515673F99443581G05316761G09373194
178G12256263G14576050G16538830G18214772G19972867G22352431G25425687
171G28607773G31192287G32641831G32572852G31222606G29757174G29430088
164G30514417G32274166G33764687G34656577G35451883G36782337G38462648
157G39223664G37029455G29931276G17750259G02984132F89110887F78059478
150F69272183F60869698F52233733F45475217F43640134F47593695F55370142
143F64242899F72900843F81457768F89612207F95872713F99307081G01207965
136G03815715G07972107G12849863G17380541G21084667G23680170G25022275
129G25985857G28426257G33191608G38636750G42160353G43153857G43450624
122G44935584G47893722G51721639G55999836G60361179G64288327G67725144
115G71244378G75155109G79005997G82253487G85018987G87988511G91689658
108G95848301G99567587H02130851H03255560H03213193H03436480H05917129
101H10920662H16514154H20849017H23676876H25645481H27169896H28502070
94H30319876H33196390H36394430H38345493H39064671H40560554H44100641
87H48565121H51905553H53561305H54853231H57377372H61536612H66387756
80H70443064H72957805H74806260H77520854H81403980H85133394H87251408
73H87861624H88471509H90305401H93249769H96519502H99683648I02475032
66I04575901I06003997I06969500I07392904I07159290I06521734I05543787
59I03175873H97613363H87347330H71573069H50073184H23081555G93079425
52G66801546G52064281G51688341G61858916G76076192G90330342H03922972
45H17266365H30676221H43574762H53918776H60288774H64514410H69566731
38H75431503H79807277H82063050H83807773H86457823H91280171H99385028
31I08591689I14838757I15590107I11064129I04149055H97348768H90666248
24H83440968H75598190H66134481H52040863H28789768G92638147G49236090
17G17485333G07476481G11849143G22736778G37675021G54392674G68122996
10G76453589G84071491G97342198H13884095H25773840H29665770H27899004
3H25643363H28458975H36563501
##END=


$$ === CHEMSPECTRA PEAK TABLE EDIT ===
##TITLE=X8047
##JCAMP-DX=5.00
##DATA TYPE=INFRAREDPEAKTABLE
##DATA CLASS=PEAKTABLE
##$CSTHRESHOLD=0.93
##MAXX=3997.453
##MAXY=0.9667921651041641
##MINX=373.96442
##MINY=0.5089623327740813
##$CSSOLVENTNAME=- - -
##$CSSOLVENTVALUE=0
##$CSSOLVENTX=0
##NPOINTS=33
##PEAKTABLE= (XY..XY)
376.7974837842062, 0.7434054613164293
395.2123983815477, 0.6370085478762929
443.37448271305675, 0.6768167019193811
579.3615443549647, 0.5795305965997796
638.8558838232993, 0.5631392005213786
670.0195854495696, 0.7240836024510114
687.0179681548084, 0.7577088477349633
753.594967083659, 0.6090083119738995
774.8429454652069, 0.7254753111601872
804.5901151993744, 0.6952347160001365
838.586880609851, 0.563303231848699
876.8332416966377, 0.661986827316147
910.8300071071149, 0.7711959483165904
978.8235379280686, 0.6027477981378229
1065.231983346364, 0.5771806835362684
1134.6420460594213, 0.6822769047332055
1153.0569606567628, 0.7207924124661208
1187.05372606724, 0.654849410325669
1221.0504914777166, 0.5521965029051593
1266.3795120250193, 0.5427290796924056
1310.2920006802187, 0.5089623327740813
1347.1218298749022, 0.5568714141918983
1433.5302752931975, 0.6335747838861443
1477.442763948397, 0.6988078350820954
1521.3552526035965, 0.5739713313869524
1580.849592071931, 0.6305462122188216
1620.5124850508405, 0.8834317312457769
1701.2548029007035, 0.5910493725760969
2341.527218131352, 0.8523458836293712
2361.3586646207973, 0.8257001638046049
2963.3847187646684, 0.8791265484094256
3079.5403339171226, 0.8481139542591369
3303.352372869429, 0.7370483872800832
##END=


$$ === CHEMSPECTRA PEAK TABLE AUTO ===
##TITLE=X8047
##JCAMP-DX=5.00
##DATA TYPE=INFRAREDPEAKTABLE
##DATA CLASS=PEAKTABLE
##$CSTHRESHOLD=0.93
##MAXX=3997.453
##MAXY=0.9667921651041641
##MINX=373.96442
##MINY=0.5089623327740813
##NPOINTS=48
##PEAKTABLE= (XY..XY)
3303.352372869429, 0.7370483872800832
3297.6862453010162, 0.736074984251902
3153.1999923064895, 0.862653553100223
3140.4512052775603, 0.8665473461924166
3129.118950140735, 0.8712323302021598
3113.5370993275997, 0.8585329648206521
3079.5403339171226, 0.8481139542591369
3052.626227967162, 0.8704774378235565
3022.8790582329943, 0.8851341006682776
3014.379866880375, 0.8869379752624198
2995.9649522830337, 0.8942716712403949
2967.6343144409693, 0.8772770165668614
2831.647252799062, 0.8948691483968565
2361.3586646207973, 0.8257001638046049
2341.527218131352, 0.8523458836293712
1701.2548029007035, 0.5910493725760969
1620.512485050821, 0.8834317312457769
1580.849592071931, 0.6305462122188216
1521.3552526035965, 0.5739713313869524
1477.442763948397, 0.6988078350820954
1449.1121261063327, 0.8375965358860531
1433.5302752931975, 0.6335747838861443
1347.1218298749022, 0.5568714141918983
1310.2920006802187, 0.5089623327740813
1280.5448309460512, 0.5952684875194253
1266.3795120250193, 0.5427290796924056
1221.0504914777166, 0.5521965029051593
1187.05372606724, 0.654849410325669
1153.0569606567628, 0.7207924124661208
1134.6420460594213, 0.6822769047332055
1065.231983346364, 0.5771806835362684
978.8235379280686, 0.6027477981378229
910.8300071071149, 0.7711959483165904
876.8332416966377, 0.661986827316147
838.586880609851, 0.563303231848699
804.5901151993744, 0.6952347160001365
774.8429454652069, 0.7254753111601872
753.594967083659, 0.6090083119738995
706.8494146442531, 0.815281570126146
687.0179681548084, 0.7577088477349633
670.0195854495696, 0.7240836024510114
638.8558838232993, 0.5631392005213786
606.2756503049254, 0.6567754739738926
579.3615443549647, 0.5795305965997796
519.8672048866297, 0.7232094401001163
443.37448271305675, 0.6768167019193811
395.2123983815477, 0.6370085478762929
376.7974837842062, 0.7434054613164293
##END=

##END=

