##TITLE=ZZ 109
##JCAMP-DX=5.0
##DATA TYPE=LINK
##BLOCKS=1


$$ === CHEMSPECTRA SPECTRUM ORIG ===
##TITLE=ZZ 109
##JCAMP-DX=5.00
##DATA TYPE=INFRARED SPECTRUM
##DATA CLASS=XYDATA
##ORIGIN=Rieke
##OWNER=
##XUNITS=1/CM
##YUNITS=TRANSMITTANCE
##XFACTOR=1
##YFACTOR=8.3275875e-010
##FIRSTX=3997.453
##LASTX=373.96442
##MAXX=3997.453
##MAXY=0.8941678983442013
##MINX=373.96442
##MINY=0.3799551118578525
##NPOINTS=2559
##XYDATA= (X++(Y..Y))
2559I41170175I41703122I41901098I41803756I41657243I41624461I41718081I41919851
2551I42138083I42134862I41828808I41625320I42038880I42991542I43866331I44166302
2543I43804991I42952248I41988062I41469144I41756946I42666020I43654183I44280177
2535I44370505I43957518I43268680I42660795I42393534I42496816I42849466I43326871
2527I43889163I44497192I44944607I44951479I44497405I43778652I42877022I41845198
2519I41019081I40794049I41181627I41831170I42349873I42497675I42270282I41948982
2511I41902315I42227552I42719987I43171911I43578457I43959951I44116772I43860319
2503I43402382I43172412I43239836I43298169I43127749I42769732I42431182I42305711
2495I42331192I42178380I41709349I41356628I41509584I41834820I41875976I41756946
2487I41862233I42345577I43093608I43788028I44130299I44188275I44194287I44120350
2479I43784950I43333957I43073997I43006859I42941154I42887687I43008720I43364591
2471I43840779I44184193I44159502I43936975I43995810I44399063I44684790I44553951
2463I44329421I44379523I44683717I45136357I45675745I45969847I45602953I45083534
2455I44908748I44767245I44463624I44225065I44252120I44360842I44278889I44034675
2447I43794828I43647741I43661484I43904409I44334002I44744913I44923063I44890568
2439I44844760I44845762I44749924I44485096I44226926I44219482I44399063I44478368
2431I44347672I44203020I44310453I44655588I45007448I45138003I44990702I44763380
2423I44649719I44535628I44261496I44131731I44694954I45922032I47157847I47574127
2415I46871118I45514773I44306588I43937262I44575209I45701582I46486761I46502865
2407I46041565I45661573I45662575I45952883I46292506I46571863I46788735I46947059
2399I47082407I47250322I47359617I47196498I46769768I46412681I46388345I46586321
2391I46733909I46806271I47017202I47316314I47316529I46745003I45859047I45277431
2383I45223463I45533597I46088876I46720310I47198001I47502910I47681776I47689005
2375I47492388I47234289I47201222I47417807I47589587I47600753I47648636I47939302
2367I48402535I48658916I48356083I47612920I46995658I46889083I47163716I47627737
2359I48337044I49198518I49572499I48971055I47946102I47325261I47322112I47576346
2351I47620293I47385599I47200005I47214033I47282889I47324831I47420312I47650927
2343I47958484I48126828I48015887I47832799I47817553I47998566I48380204I48954592
2335I49585812I50017265I49818287I48480409I46561127I45712749I46558765I48402819
2327I49971958I50513924I50286387I49751221I49244113I48974920I48935554I48978928
2319I48977353I48889960I48792547I48819459I49055585I49559687I50304209I50909232
2311I50946666I50467255I49804903I49272170I49091587I49341526I49858226I50333698
2303I50608186I50767442I50892126I50832003I50404629I49877623I49723021I49895660
2295I50092992I50208156I50316234I50444353I50578699I50864355I51373038I51796189
2287I51737998I51265675I50857626I50854334I51039999I50814968I49929801I48952016
2279I48858038I49888860I51135695I51613744I51229530I50648270I50545130I51058179
2271I51803990I52142039I51734634I51018599I50578985I50511848I50681266I51039785
2263I51479326I51574807I50915745I49767684I49012210I49249982I50219321I51105204
2255I51378690I51364019I51475891I51476750I51066339I50436909I49924003I49523327
2247I49105615I48775369I48755256I49081280I49527049I49807766I49840618I49839545
2239I50099075I50697657I51395798I51716239I51334600I50561378I50131785I50320385
2231I50685704I50768229I50579630I50370631I50219608I49997224I49662969I49367792
2223I49197518I49076413I49027026I49201884I49542795I49733542I49574073I49202743
2215I48985584I49238960I49875261I50400478I50492449I50420876I50616777I51004067
2207I51183292I51020173I50674466I50275078I49881631I49611937I49544298I49582519
2199I49589748I49587243I49715577I50062286I50525948I50807810I50662871I50196060
2191I49802469I49784718I50058636I50265416I50194270I50037736I50148677I50603106
2183I51155020I51556914I51735350I51731413I51669143I51716310I51931322I52162080
2175I52156210I51815156I51361156I51161247I51332812I51623836I51747661I51673939
2167I51537302I51474245I51544102I51686679I51821884I51976128I52143971I52113552
2159I51713305I51177137I50982954I51338968I52004829I52605558I52980825I53188822
2151I53280223I53213229I52991132I52733534I52536631I52347530I52026159I51506453
2143I50906154I50532319I50711828I51447118I52245464I52538206I52306160I52005545
2135I51882007I51745084I51474674I51306902I51470952I51869837I52244319I52418890
2127I52354401I52130587I51882293I51668785I51453774I51294806I51462506I52177898
2119I53221174I53973856I53974643I53401900I52932584I53080171I53689775I54173335
2111I54168253I53753834I53151245I52566693I52262642I52428410I52968586I53591359
2103I54060748I54280268I54247487I54023099I53731789I53538107I53535173I53640603
2095I53692065I53664938I53693210I53894907I54262374I54682662I54952643I54816650
2087I54175482I53347503I52956848I53346430I54178775I54804339I54957152I54911917
2079I55050128I55455242I55900796I56072289I55813043I55279239I54825096I54583245
2071I54293509I53787904I53418864I53608752I54196310I54667918I54836978I54921364
2063I55140026I55457890I55584435I55277951I54781221I54675934I55139668I55693300
2055I55831654I55574342I55306080I55322900I55598177I55891992I56036359I56088463
2047I56206779I56450563I56734429I56923816I56964113I56877507I56624060I56114662
2039I55433197I54906477I54874626I55428043I56360092I57358204I58229414I58840449
2031I58962628I58497462I57766969I57247764I57121578I57283122I57528266I57601344
2023I57414534I57258071I57424769I57760169I57942685I57992859I58141449I58374354
2015I58400765I58014403I57368797I56921025I57063960I57742275I58491450I58917822
2007I59042577I59129326I59331811I59602293I59822457I59907989I59851660I59707938
1999I59539450I59432088I59507455I59775934I60058225I60215475I60308523I60398779
1991I60441652I60458902I60504853I60452675I60181907I59901261I59882867I60003184
1983I59955873I59750095I59667355I59909421I60515160I61361030I62094174I62333876
1975I62010503I61325746I60548657I60044340I60150772I60763596I61374059I61662362
1967I61702659I61580839I61234559I60711132I60258277I60093297I60220772I60483309
1959I60737614I60984262I61309713I61735727I62174624I62512315I62654961I62509523
1951I62036914I61350725I60627675I59949503I59432517I59387711I59990728I60874824
1943I61434826I61453006I61139865I60748136I60404934I60196079I60229933I60542716
1935I60878543I60759015I60030168I59147935I58662942I58684774I59022107I59476536
1927I59837488I59960669I60010556I60309024I60832879I61111522I60745631I59822314
1919I58656573I57316977I55596674I53291246I50344935I46899533I43360440I40255448
1911I37860121I36028304I34391243I32633577I30672353I28687938I26878882I25153781
1903I23275011I21307919I19669855I18722704I18538614I19002276I19933752I21208072
1895I22883641I25055009I27546461I29959395I31998493I33566127I34605681I35024681
1887I34766939I33904032I32626491I31109675I29426305I27635071I25890289I24390293
1879I23239225I22407882I21897768I21928545I22784080I24454066I26654924I29167275
1871I31866151I34480998I36674125I38375318I39827215I41284767I42744607I43998530
1863I44956346I45824764I46853868I47980458I48830338I49047568I48619336I47913464
1855I47379658I47251897I47524239I48016531I48401605I48406686I48057687I47546497
1847I46931742I46155655I45162839I43817159I41994933I39977021I38412823I37598587
1839I37050323I36040901I34343216I32227962I29970059I27702208I25705411I24517195
1831I24487420I25235235I25701116I24771072I21855825I17206175I12051349I08211998
1823I07000306I08249861I10479635I12042829I12263998I11752881I11756317I13141650
1815I15849114I19094250I21962686I23910455I24884160I25081421I24677380I23764370
1807I22413251I20733459I18945016I17418538I16515761I16280854I16359229I16370394
1799I16306836I16430947I16862257I17472863I18151178I18982808I20091789I21376058
1791I22545020I23477928I24374332I25418324I26496027I27413475I28185768I28961640
1783I29846664I30909409I32193749I33649225I35146859I36600474I37984232I39195566
1775I40023044I40365100I40390009I40338117I40277779I40169701I39995201I39738247
1767I39470915I39492674I40084310I41088795I41968307I42296550I42022776I41313755
1759I40344916I39272724I38244049I37321520I36440290I35493210I34392889I33036544
1751I31406497I29839364I29004870I29418145I31034951I33388979I35967967I38378896
1743I40379058I41962581I43333098I44648359I45880664I46968675I47944957I48856606
1735I49730035I50614272I51487629I52169881I52501559I52565619I52612644I52816060
1727I53146235I53456870I53662934I53785041I53815603I53715327I53624785I53828129
1719I54355422I54850362I54972467I54742427I54417191I54224153I54284562I54609942
1711I55054136I55342010I55263278I54903471I54610300I54652815I54977050I55374863
1703I55752636I56118527I56457935I56771004I57103755I57433072I57635414I57643931
1695I57527980I57394135I57313685I57379605I57696110I58210519I58663445I58846247
1687I58843239I58873803I58987751I59085021I59147076I59267108I59492496I59743152
1679I59871128I59796046I59591698I59394797I59237189I59063978I58891411I58818619
1671I58878885I58974223I58975726I58875163I58825204I58986820I59329449I59658694
1663I59851159I59949288I60011272I60020434I59995311I60055289I60298144I60687941
1655I61105366I61459734I61731647I61938785I62066904I62066474I61966842I61932844
1647I62101976I62418623I62730403I62990364I63241162I63448014I63496325I63380662
1639I63292553I63458893I63896930I64353150I64500093I64209929I63612779I62903185
1631I62180493I61547270I61232054I61423660I61987169I62531568I62812715I62938042
1623I63123063I63375078I63521020I63446797I63201152I62918144I62742786I62797899
1615I63109536I63547789I63915038I64127618I64276277I64472036I64683826I64792477
1607I64791332I64847731I65124871I65611580I66164282I66648987I66959050I66941297
1599I66481502I65766540I65304309I65446743I65943187I66216102I66077032I65908187
1591I66112748I66601963I66891984I66632454I66030723I65688094I65931377I66444999
1583I66659867I66341645I65721162I65223716I65088726I65162877I65151998I65052509
1575I65092447I65323992I65578012I65730538I65751581I65628687I65434647I65357633
1567I65495772I65695393I65723953I65605067I65624679I65956428I66496962I67098693
1559I67667856I68036396I68080987I67961672I67965179I68214403I68692738
1552I69306779I69835575I70110351I70265740I70546958I70920221I71113760
1545I71001387I70769842I70709934I70932747I71307370I71625234I71790143
1538I71907454I72220236I72846374I73540722I73898454I73831173I73627686
1531I73577225I73759741I74109027I74417730I74436482I74216102I74135152
1524I74369989I74636749I74694868I74755349I75079510I75474176I75553481
1517I75319932I75166115I75380699I75899259I76480734I76911758I77089335
1510I77090982I77129560I77269346I77230839I76697677I75814300I75176424
1503I75268040I76007337I76834815I77198702I77002873I76603413I76323412
1496I76090507I75679739I75158101I74840809I74881249I75115726I75320218
1489I75507601I75905558I76650653I77550493I78191732I78290219I77902069
1482I77311003I76833527I76733393I77074376I77560656I77785688I77687773
1475I77459736I77136790I76716430I76488321I76684937I76972451I76745561
1468I75825823I74631596I73833535I73934599I74930492I76195508I76842974
1461I76479517I75644238I75229747I75469093I75865834I76051569I76188851
1454I76545223I77159622I77929267I78712368I79366277I79848262I80250370
1447I80669155I81022521I81092592I80889463I80781599I81006416I81270597
1440I81147204I80640955I80109797I79885481I80150237I80918522I81921860
1433I82653355I82709756I82120265I81276969I80565586I80133345I79950684
1426I79963212I80155104I80493725I80809013I80864555I80660423I80505750
1419I80650546I81009923I81381540I81731757I82100582I82411718I82608120
1412I82825779I83194175I83588410I83749454I83513755I82912886I82297055
1405I82176953I82594020I82999563I83029553I82870013I82735738I82614061
1398I82530674I82535615I82537261I82436125I82316882I82461177I83116087
1391I84064240I84620878I84337513I83561927I83018602I82834368I82417158
1384I81470651I80598869I80492079I80921672I81164740I81059024I81057521
1377I81533136I82430471I83435884I84190069I84444661I84270734I84033678
1370I84034966I84276317I84556246I84626602I84318617I83720967I83191169
1363I83033776I83221732I83513901I83762910I84035968I84457187I84986340
1356I85370196I85298407I84620520I83535516I82623222I82510349I83327160
1349I84578864I85667733I86385699I86757461I86763903I86590620I86699343
1342I87115264I87187484I86692042I86478176I87283179I88651262I89643863
1335I89888793I89534781I88902704I88416998I88342774I88560147I88884954
1328I89370948I90036309I90550718I90493171I89905040I89380466I89493699
1321I90242946I91149798I91845866I92494118I93553644I95034529I96171926
1314I96146159I94947207I93287671I91924097I91283860I91423359I91962605
1307I92160008I91479474I90357823I90002167I90900146I91959885I91828044
1300I90594021I89390774I88945006I89338668I90412650I91552266I91914004
1293I91620333I91774219I92717076I93454584I93294540I92729673I92315827
1286I92049353I92139965I93027711I94347696I95074396I94992586I95128006
1279I96352510I98327476A000151134A001232273A001252171A000192647I98657007
1272I97365008I96503103I96064921I95844757I94828608I92384038I90223907
1265I90876097I94110783I97242329I98761077I99281856I99319362I98924554
1258I98923051A000014641A001504830A002441889A003132874A004194330A005108556
1251A005085579A004383645A003762375A003473499A003236299A002616962A001550209
1244A000699112A000653017A000967947A000914409A000636412A000692670A000964225
1237A000749286I99771572I98641261I98122844I98186331I98271219I98308724
1230I98643265I99089034I99019248I98342078I97624611I97361430I97566563
1223I97932383I98252824I98698664I99429802A000073117A000133025I99757257
1216I99530293I99639946I99724619I99427869I98800730I98219828I98120195
1209I98840953A000428272A002327584A003468274A003090931A001587499A000264866
1202A000042197A000473078A000411667I99663208I99381274A000607066A002989867
1195A005237463A006437058A006610699A006152405A005291788A004383717A004118460
1188A004654628A004954742A004034217A002575591A002181571A003184479A004341989
1181A004833279A005101685A005553108A005912770A005995799A005959582A005857516
1174A005773774A006135800A007434240A009936213A013384407A016408519A017190833
1167A015609027A013501360A012268554A011764237A011673480A011965864A011844828
1160A010449334A008877618A009290894A011745055A013851505A014019634A013310112
1153A013340460A014191844A015204700A016131309A016838613A017033010A016663040
1146A015989376A015162400A014205157A013401585A013133322A013179917A012897340
1139A012262542A011896865A011847264A011413090A010497647A009970927A010252145
1132A010743650A011185124A012117602A013712793A015495295A017096569A018155234
1125A018102912A017278512A017235138A018555266A019540208A018629131A016881271
1118A016275175A016964442A017721490A017927768A017861562A017664945A016955208
1111A015268903A012569383A009529310A007277849A006366126A006205585A006010758
1104A005754162A005813283A006091065A006111965A005882424A006022210A007012306
1097A008714358A010604365A012197766A013313190A014035309A014368061A014211670
1090A013751157A013272679A012591071A011327057A009609259A008002760A006833584
1083A005997445A005297443A004689199A004291314A004217520A004411774A004684618
1076A004769148A004392664A003676628A003212608A003244888A003240093A002884509
1069A002896104A004035219A006083049A008273456A010136695A011529829A012304842
1062A012494802A012601664A013231523A014421456A015593567A016078559A015559497
1055A014213388A012603596A011454819A011306444A012080527A013128240A013936608
1048A014533469A015107072A015666072A016237956A016982478A017901858A018771136
1041A019486742A020155610A020768649A021177127A021459418A021806915A022140096
1034A022148255A021694757A021046646A020542257A020218023A019916692A019638266
1027A019547581A019690730A019921917A020033646A019972807A019897797A019942316
1020A020001867A019924279A019803175A019861794A020186601A020710673A021334663
1013A021948633A022385526A022469985A022152478A021580595A021027034A020711389
1006A020685622A020883670A021207188A021515605A021536433A021013650A020026918
999A018858815A017696367A016570779A015474609A014543062A014073172A014218827
992A014722214A015159250A015350856A015414701A015584477A016067608A017011538
985A018406891A020002153A021583028A023226031A024942183A026334816A027124574
978A027547080A027899157A028249374A028611328A029052444A029590187A030128860
971A030569115A030911603A031204702A031486063A031782240A032109624A032458552
964A032847919A033363617A033978087A034289796A033950746A033322103A032815711
957A032469431A032237385A032213694A032515024A033019556A033475417A033895848
950A034578458A035538206A036255959A036550275A036678896A036739591A036624069
943A036263332A035736612A035229217A034879858A034695340A034697058A034971404
936A035462408A036031284A036602096A037053161A037340892A037571363A037830894
929A038144607A038577206A039239560A040070116A040699760A040955426A041025569
922A041148821A041517718A042198752A043059657A043933658A044890114A046170160
915A047720974A049051480A049942302A050571946A051075261A051466132A051851992
908A052347935A052935062A053685026A055028344A057253823A059292349A060469470
901A061394218A062557239A063823399A064714650A065260695A065789634A066431733
894A067194364A068166208A069330589A070294989A070883049A071410485A072140262
887A073053272A073741823A073576556A071962971A068275002A062460684A055481056
880A048044278A040135535A032012855A023698497A013188864I97362360I74045182
873I44205883I12926209H86292106H67099932H54804436H48727224H49102062
866H54673810H61449165H65083669H63740995H57686830H46776664H30936489
859H13633177H01861108H00796574H10121857H26566981H47635921H71257722
852H94621280I15521444I32619906I44023867I49474226I51700708I53445418
845I54882857I51677446I37982944I12850984H83034946H58310605H44331736
838H43298910H52418054H61116843H66931518H74194655H85954129I02661792
831I22171900I40744591I56155030I69008526I80349215I90395329A000145623
824A010320785A018453842A023494293A027256558A031297392A035649433A039255020
817A041846319A044136215A046679773A049354600A051828158A054122063A056266662
810A057596238A056761030A052389663A044033792A032671702A019895077A007446050
803I96544330I85671169I70565353I52771969I40354078I34471979I32857821
796I34659505I39627235I45660357I47542992I41185564I26741816I06163882
789H82911909H62642534H49269189H43558083H46191897H56482009H69408297
782H76726690H71644512H52167830H22805291G96011576G88423990H05671829
775H32998634H53778194H60222801H48138448H21167156G95653057G83314399
768G80095889G75571281G61279343G37453482G10751812F83746378F58702312
761F40136135F29745030F24040080F20103602F20743482F30929667F51275770
754F76091438F98288471G14473422G25682771G36400185G51106327G71905929
747G98352863H26320049H50430349H69258133H84791824H98664762I11297450
740I23426895I35808927I47010260I54706067I58767014I60291846I60998791
733I63757074I70989005I82586574I96576110A010595705A022455527A031187453
726A037357641A041721635A044302627A044629868A042481188A038660734A034638223
719A030542920A024009418A011281393I90964206I66641329I42050690I16214719
712H85995929H51233921H16457669G88246055G72637854G73971152G92294619
705H22825618H59634670H96646922I27169402I46727179I54843205I54121658
698I49258571I43836341I36924995I23737172H98708566H59726285H11063282
691G61250212G17829212F83929823F58845534F41101251F29396604F20271803
684F07637970E87397046E62727389E41576032E28292013E21404537E17664854
677E15069333E13274126E13076293E15814428E22749608E34550166E50968130
670E70862273E92594925F14309970F34158627F51063980F65165671F76870677
663F85779751F91296030F94117728F96449067G00593112G07515838G16787225
656G27465631G38557597G48955143G57754063G64650951G69311982G70518163
649G67077985G59938458G52741671G49896353G54024365G64783866G79275211
642G93043865H01027404G98579613G82877363G54411657G17575336F79735606
635F48909216F30344113F23820559F24772935F28597756F33106260F37120111
628F39256694F39711195F41549811F48030205F59029123F71375154F82465831
621F92789512G04840224G20003730G36643254G50951654G59661821G62365707
614G61497718G60247948G60727572G63759342G69473097G77731197G88289501
607H00725715H14318509H28201325H41617830H53970516H64831081H74038193
600H81578754H86834071H87178919H77348318H51823841H09762694G58294167
593G10763264F80536386F74100369F88178656G13140768G39536527G62125356
586G79599661G92688782H02906460H11764716H20081937H27764574H34234160
579H39151572H42896516H46375057H50298723H54573177H58259357H60067197
572H58925147H54326673H46840652H38846162H34141542H35589646H42773192
565H52269825H60225091H64674761H65924388H65073004H62389445H57910716
558H53632539H53147977H57899479H65300254H71711721H75931636H78989460
551H82095597H85797738H90132745H94784898H99348374I03567358I07283600
544I10408633I13045310I15418376I17486176I18450576I16765416I11339321
537I03293155H96157063H93517881H96177245I01787934I06683516I06592902
530H96347810H73363814H43942726H22180728H18251838H29466197H45394910
523H58877049H69103889H77019718H82015934H82977185H80372072H76752672
516H75498607H78817966H86428385H95668707I02805658I04937660I01577504
509H94800432H87769913H82953780H81545472H84006432H90322848H99502189
502I09490326I18048468I23169869I22375101I13202631H96584866H79362723
495H70621564H74168674H85929722H99000305I09182483I15301351I17126655
488I15138661I11392358I08935835I09694744I12926495I16085956I17201451
481I15819840I11576020I02384940H84628418H56713051H24113466G99192222
474G92467615H03980227H25146507H47653814H68065623H85707339I00089318
467I10912661I18418368I22693037I23216178I19672146I13148091I06268166
460I02114888I02784830I08209350I16083307I23556087I29236273I33305952
453I36228929I38176840I39420813I40513259I41937745I43721750I45462237
446I46835617I48010734I49385545I51052597I52762879I54295299I55641193
439I56844797I57849852I58607473I59245778I59970474I60828371I61697935
432I62504513I63340365I64326524I65387479I66185540I66208372I64925177
425I62194307I58770735I56051819I54845996I54468868I53413639I51010868
418I48270408I46851435I47298349I48681463I49929300I51042934I52937880
411I56343343I60886705I65311467I68637053I70804983I72219020I73144982
404I73418687I72244429I68580222I61976075I52592173I40589488I26243368
397I10303346H93584732H76906486H62368760H54160762H56648922H70710460
390H92091607I14017082I31569759I43599355I51418631I56747026I60674127
383I63673475I66093636I68350896I70533860I72122107I72411127I71348454
376I69976577I69790053I71450376I74351237I77402404I79750992I80876722
369I80686047I79614499I78303387I77048538I75382345I72113303I66236072
362I58053913I48724193I38004058I23257190I02948235H81969267H70811380
355H76602722H96046695I19131827I38278262I52040116I61444918I64918234
348I58049618I40167411I20351606I11815008I18558511I32004360I41997080
341I46307465I48354793I50890193I54409246I58875306I64460011I70597132
334I75244060I75495290I68164300I50538617I24461510I00316067H91296983
327I00762622I18379216I29232408I24445119I06051581H86416002H80626307
320H94628795I20907887I46888224I65442735I76438002I81704057I81083789
313I71127717I46302885I05789330H61904024H36369956H42605492H73951515
306I12105674I43293302I63681563I74483937I77661577I76069894I74365408
299I77202281I85918389I97755879A008660247A016006340A017888331A010965747
292I92675777I67890884I49784862I49071546I63881471I83868125A001508695
285A015597933A026908203A035355261A040839832A043913904A045061393A044108731
278A040331579A032539431A018331737I92168454I44361844H66678857G64851719
271F63921198E93562689E65224817E65647002E71486191E67733947E54661288
264E40611524E28600823E12089132D86601659D61859496D56260726D79803902
257E26272345E80731131F30638643F70416408F99861258G21381977G38440500
250G54603120G72359356G91953278H11473191H28673862H42769900H54318156
243H64008255H72195210H79102405H84967397H90065894H94610830H98675642
236I02247803I05102855I06735264I06953067I06567707I07244019I10569032
229I16917084I25045562I33099959I39967502I45489364I49957142I53769795
222I57044635I59205338I59178140I56593283I53232196I52359984I55624086
215I61105152I64139857I59402670I43906198I16077009H66551455G80744501
208F82787632F30225942F34881175F76919276G33780257G85701351H25022038
201H55385982H81001288I02592293I19651604I32365672I41762959I48921382
194I54760392I60195721I65467142I69756985I71253545I66420162I51065623
187I24105568H87700128H43664371G96165462G58988444G50435384G75271095
180H17045442H51158194H61080481H41560283G94629894G29903902F65212052
173F19258302F01818284F12968799F48582405G00790658G56645224H03719408
166H36732340H56813615H67498175H72603044H74977327H76696986H80806747
159H90120935I03546387I16685825I26441273I32901196I37325313I40510398
152I42838157I44075902I42970786I38188579I30317556I22698047I19263811
145I20356688I20750780I13258030H95160525H69751714H42179190H17061332
138G99261006G92970787G99518032H17393368H42782711H69471498H91338782
131I06122368I15247384I20766455I23913103I25157433I24083738I19854948
124I12403640I02978798H93792084H87278695H85290844H88580285H96341583
117I05884024I13411487I15894278I12933295I07478355I04123352I05602162
110I11177490I18607039I26395679I33791801I40113873I44890711I47581499
103I46726391I41019939I32205702I24558852I20288477I17514376I13800497
96I10247446I10416935I15840597I24516838I33707557I42253891I49545730
89I53757771I53007523I48079446I42635958I39963207I39334708I35357647
82I21751397H96983682H67075241H43607469H37332138H50539071H74932235
75H98189505I13349358I21996183I28752284I34871367I38109059I37379066
68I35310980I35923519I41096310I49444738I58287963I65604924I70272396
61I72049029I72041729I72221737I73502215I75179645I76224710I76668618
54I77752620I80168417I82204294I80699789I74700522I67112721I61027994
47I55257480I45410415I28558960I06301306H83560163H64960918H51269135
40H36787453H13529825G82903774G60665731G63301907G90805860H31364934
33H72590948I01592105I13137283I15303713I18568387I28361842I42528810
26I54067046I58334343I56490001I52863514I51306974I53857618I60890785
19I71524671I83254012I91786888I94007500I90695227I85942080I84570346
12I88268838I93391025I93132282I83396804I68338514I56990381I54143918
5I59659052I71678271I86152009I95281248I94360866
##END=


$$ === CHEMSPECTRA PEAK TABLE EDIT ===
##TITLE=ZZ 109
##JCAMP-DX=5.00
##DATA TYPE=INFRAREDPEAKTABLE
##DATA CLASS=PEAKTABLE
##$CSTHRESHOLD=0.93
##MAXX=3997.453
##MAXY=0.8941678983442013
##MINX=373.96442
##MINY=0.3799551118578525
##$CSSOLVENTNAME=- - -
##$CSSOLVENTVALUE=0
##$CSSOLVENTX=0
##NPOINTS=42
##PEAKTABLE= (XY..XY)
424.95956811571523, 0.6334510433153963
483.03737569194664, 0.6972956645757076
508.5349497498041, 0.7580165253216525
531.1994600234557, 0.7529166324573301
542.5317151602812, 0.737233696635885
566.6127573260355, 0.6603533613686363
616.1913735496478, 0.501169441910985
630.3566924706797, 0.62493163233561
665.76998977326, 0.5248261676774926
701.1832870758403, 0.7549521904716863
739.4296481626266, 0.3799551118578525
753.594967083659, 0.47069591207389877
810.2562427677872, 0.696494399096115
827.2546254730255, 0.7333492626344363
837.1703487177479, 0.7422353614418513
861.2513908835026, 0.7593219262933201
876.8332416966377, 0.7251757962945751
929.2449217044564, 0.7113098484621675
1024.1525584753713, 0.75124406648727
1043.984004964816, 0.6599343404828812
1060.9823876700543, 0.7569242697848063
1073.7311746989835, 0.725017725359685
1089.3130255121187, 0.7341147053308801
1103.4783444331506, 0.7290791255920613
1117.6436633541825, 0.6814063777980826
1130.3924503831117, 0.7440848336842087
1161.556152009382, 0.7104664428915488
1177.1380028225171, 0.6946386678389925
1209.718236340891, 0.5613629806629787
1240.8819379671618, 0.633103130866545
1269.2125758092257, 0.5194920289371413
1287.6274904065672, 0.6244827495538388
1328.7069152775603, 0.4272687724133138
1375.452467716966, 0.6434209334997225
1446.2790623221263, 0.5163967004720176
1473.1931682720874, 0.6565669763824126
1485.9419553010162, 0.7024803747514763
1559.6016136903827, 0.7022645461679625
1586.5157196403438, 0.6668703539685226
1602.097570453479, 0.70678502214921
2947.8028679515246, 0.7592701894904588
2954.8855274120406, 0.7553124410741775
##END=


$$ === CHEMSPECTRA PEAK TABLE AUTO ===
##TITLE=ZZ 109
##JCAMP-DX=5.00
##DATA TYPE=INFRAREDPEAKTABLE
##DATA CLASS=PEAKTABLE
##$CSTHRESHOLD=0.93
##MAXX=3997.453
##MAXY=0.8941678983442013
##MINX=373.96442
##MINY=0.3799551118578525
##NPOINTS=196
##PEAKTABLE= (XY..XY)
3990.370340539484, 0.7841460091117838
3981.871149186865, 0.7841467244515501
3970.5388940500393, 0.7840166675210101
3957.79010702111, 0.7847864613819225
3939.3751924237686, 0.7834544762526788
3929.459469179046, 0.7843773944615063
3916.7106821501175, 0.785435078851605
3908.211490797498, 0.7847133260102213
3902.545363229085, 0.783922968837495
3896.8792356606723, 0.7842563371547775
3877.0477891712276, 0.7851979716165113
3868.5485978186084, 0.7860717753797813
3861.465938358092, 0.7863985882201838
3845.884087544957, 0.7863116848480688
3837.3848961923377, 0.7858309132354838
3827.4691729476153, 0.78682774128165
3820.3865134870994, 0.7863070355559676
3814.7203859186866, 0.786293326681425
3800.555066997654, 0.7862339601428963
3789.2228118608286, 0.7860720143815425
3780.7236205082095, 0.7875079494545137
3762.308705910868, 0.7881131751967688
3748.1433869898356, 0.7871431095185513
3733.9780680688036, 0.7887901056311926
3718.3962172556685, 0.7885301691477263
3705.6474302267397, 0.7888907778364801
3699.981302658327, 0.7887890921637938
3685.8159837372946, 0.7893033606643388
3673.067196708366, 0.7875505667163037
3660.318409679437, 0.7902343857795976
3654.6522821110243, 0.7901152954490362
3640.486963189992, 0.7903643236256362
3626.32164426896, 0.7908901558141838
3607.9067296716185, 0.7918322666139226
3600.8240702111025, 0.7901698336523325
3592.3248788584833, 0.7915747742773875
3582.4091556137605, 0.7915470584006701
3572.493432369038, 0.7902982217343375
3565.410772908522, 0.7922567112574163
3552.6619858795934, 0.7900842410424901
3545.5793264190775, 0.7909871921947688
3535.663603174355, 0.7912305576118688
3518.6652204691163, 0.7903105598879775
3510.166029116497, 0.79027604869986
3503.083369655981, 0.791471300671665
3490.3345826270524, 0.7907413226721075
3486.084986950743, 0.7907770854966263
3474.7527318139173, 0.7909415345307825
3469.086604245504, 0.7911522374841901
3459.1708810007817, 0.7925108059382513
3449.2551577560594, 0.7920878511001613
3440.75596640344, 0.7923485029233938
3428.007179374511, 0.7919393760443475
3406.759200992963, 0.7915641058050413
3392.593882071931, 0.7922091465758926
3378.428563150899, 0.7921990735260526
3368.512839906177, 0.79356294748611
3357.180584769351, 0.7930050474236175
3343.015265848319, 0.7940647587485138
3338.7656701720093, 0.7941728216877075
3326.0168831430806, 0.79358315354442
3318.934223682564, 0.7952112543610238
3303.352372869429, 0.79396790141106
3287.770522056294, 0.7950147374529225
3280.687862595778, 0.7955394970482
3258.023352322127, 0.7951801999544775
3243.8580334010944, 0.7970513688933075
3236.7753739405784, 0.7971650346333713
3222.6100550195465, 0.7968843566277188
3202.7786085301013, 0.79897546631277
3184.36369393276, 0.7993508564693363
3178.697566364347, 0.7991713869656063
3165.9487793354183, 0.799485324522975
3151.7834604143864, 0.7995260938930988
3129.118950140735, 0.7989385109777213
3117.7866950039092, 0.7996116865029413
3107.870971759187, 0.7983349540840012
3062.541951211884, 0.7649210680213725
3031.3782495856135, 0.76771843290747
2998.79801606724, 0.7888323056808488
2966.217782548866, 0.7698749882699251
2954.8855274120406, 0.7553124410741775
2947.8028679515246, 0.7592701894904588
2925.1383576778735, 0.7630408986259726
2920.888762001564, 0.7630625353638151
2875.559741454261, 0.7823526248367563
2850.0621673964033, 0.7736369351178712
2810.399274417514, 0.7941393839256188
2800.483551172791, 0.7946385128720888
2790.5678279280687, 0.7949600801651251
2770.7363814386235, 0.7972113476784938
2762.2371900860044, 0.79848509798835
2740.9892117044565, 0.7984645946351663
2733.9065522439405, 0.798470078351535
2722.574297107115, 0.7994444951942213
2706.99244629398, 0.8010579927533851
2694.2436592650506, 0.8021903023205887
2680.0783403440187, 0.8004744037489725
2663.07995763878, 0.8017324790408775
2648.914638717748, 0.803438423647155
2634.749319796716, 0.8038656097324538
2627.6666603362, 0.8043684944208863
2619.167468983581, 0.8041852100493225
2609.2517457388585, 0.8036860811028526
2605.002150062549, 0.8036559210792038
2593.6698949257234, 0.8039100157600388
2588.0037673573106, 0.8041160685885863
2576.6715122204846, 0.80607855202263
2558.2565976231426, 0.8083671912504226
2541.2582149179043, 0.8107549529194688
2532.759023565285, 0.81121957151058
2520.0102365363564, 0.812078115802515
2503.011853831118, 0.81208669987971
2487.430003017983, 0.8118072135518288
2469.015088420641, 0.8133832794379388
2457.6828332838154, 0.8131791935855588
2449.183641931196, 0.8109683973146813
2439.2679186864734, 0.8121311050745363
2416.6034084128223, 0.8167544584062413
2408.104217060203, 0.8160082083007087
2393.938898139171, 0.8160625075022437
2384.023174894449, 0.8165247427378125
2362.7751965129005, 0.8179164516590888
2352.859473268178, 0.8182110167496562
2347.1933456997654, 0.8180329787582176
2330.1949629945266, 0.8165133580929413
2324.528835426114, 0.8169842348660588
2314.6131121813914, 0.8194626556491825
2303.280857044566, 0.81862997850954
2286.2824743393276, 0.8181940900953037
2276.366751094605, 0.8215919714729251
2269.2840916340892, 0.8214983327480401
2257.9518364972632, 0.8230510930477726
2246.6195813604377, 0.8239152409733362
2228.2046667630957, 0.8255003081487751
2219.7054754104765, 0.8244329670882113
2211.2062840578574, 0.8235526070153025
2204.1236245973414, 0.8257805089836638
2194.207901352619, 0.8261377791425888
2187.125241892103, 0.8285887821766276
2165.877263510555, 0.8246176230134363
2120.548242963252, 0.831195531915885
2107.7994559343233, 0.8305614577450126
2086.5514775527754, 0.8311933259379563
1602.097570453479, 0.70678502214921
1586.5157196403438, 0.6668703539685226
1559.6016136903827, 0.7022645461679625
1501.5238061141513, 0.7768455129436838
1485.9419553010162, 0.7024803747514763
1473.1931682720874, 0.6565669763824126
1446.2790623221263, 0.5163967004720176
1375.452467716966, 0.6434209334997225
1328.7069152775603, 0.4272687724133138
1287.6274904065672, 0.6244827495538388
1269.2125758092257, 0.5194920289371413
1240.8819379671618, 0.633103130866545
1209.718236340891, 0.5613629806629787
1177.1380028225171, 0.6946386678389925
1161.556152009382, 0.7104664428915488
1130.3924503831117, 0.7440848336842087
1117.6436633541825, 0.6814063777980826
1103.4783444331506, 0.7290791255920613
1089.3130255121187, 0.7341147053308801
1073.7311746989835, 0.725017725359685
1060.9823876700543, 0.7569242697848063
1043.984004964816, 0.6599343404828812
1024.1525584753713, 0.75124406648727
963.2416871149335, 0.7884988174463063
929.2449217044564, 0.7113098484621675
903.7473476465984, 0.8076011522987138
876.8332416966377, 0.7251757962945751
861.2513908835026, 0.7593219262933201
837.1703487177479, 0.7422353614418513
827.2546254730255, 0.7333492626344363
810.2562427677872, 0.696494399096115
797.5074557388584, 0.8114113192093201
781.9256049257228, 0.7903476343075275
753.594967083659, 0.47069591207389877
739.4296481626266, 0.3799551118578525
701.1832870758403, 0.7549521904716863
679.935308694292, 0.79308610982586
665.76998977326, 0.5248261676774926
630.3566924706797, 0.62493163233561
616.1913735496478, 0.501169441910985
579.3615443549647, 0.7655249821685963
566.6127573260355, 0.6603533613686363
542.5317151602812, 0.737233696635885
531.1994600234557, 0.7529166324573301
508.5349497498041, 0.7580165253216525
483.03737569194664, 0.6972956645757076
468.8720567709147, 0.778888402566075
457.5398016340887, 0.8094762551898788
424.95956811571523, 0.6334510433153963
403.71158973416686, 0.7922092065345225
390.9628027052381, 0.8199095706220275
381.04707946051576, 0.7945716964737826
##END=

##END=

