##TITLE=STM-155 (1)
##JCAMP-DX=5.0
##DATA TYPE=LINK
##BLOCKS=1


$$ === CHEMSPECTRA SPECTRUM ORIG ===
##TITLE=STM-155 (1)
##JCAMP-DX=5.00
##DATA TYPE=INFRARED SPECTRUM
##DATA CLASS=XYDATA
##$CSCATEGORY=SPECTRUM
##ORIGIN=Angelika Moesle
##OWNER=
##XUNITS=1/CM
##YUNITS=TRANSMITTANCE
##XFACTOR=1
##YFACTOR=7.5187279e-010
##FIRSTX=3997.453
##LASTX=373.96442
##MAXX=3997.453
##MAXY=0.8073172601986962
##MINX=373.96442
##MINY=0.44957089578787296
##NPOINTS=2559
##XYDATA= (X++(Y..Y))
2559I00570150I00711260I00793151I00411917H99747594H99373099H99518965H99926993
2551I00338667I00703887I00936004I00863467I00505383I00130809H99977095I00077298
2543I00393446I00928869I01601517I02150654I02342499I02250382I02208683I02396882
2535I02576994I02409962I01953735I01601992I01621811I02008435I02572634I02974875
2527I03008884I02971863I03357060I04108110I04640520I04591925I04058563I03259551
2519I02376587I01697756I01621177I02219306I02914230I03082055I02980028I03330740
2511I03942742I03905800I03018397I02038084I01700610I01994244I02438263I02773200
2503I03217139I03974294I04614201I04544756I03856729I03115826I02697017I02723574
2495I03249721I03999900I04256513I03704125I03060809I03078725I03470185I03455123
2487I02872848I02266237I02235637I02805226I03453537I03985946I04682377I05383168
2479I05352330I04581540I03970251I03935529I03994668I03913966I04009333I04304791
2471I04550147I04854404I05241820I05082399I04160114I03306085I03361816I04261111
2463I05218276I05529826I04951357I03772064I02837571I03200095I04783691I05888466
2455I05980663I05875148I05869916I05666813I05098650I04363137I03763185I03682959
2447I04488550I05819972I06624613I06530275I06076110I05689882I05321095I04895706
2439I04555220I04384224I04397067I04793520I05568829I05952599I05611796I05639780
2431I06818123I08252523I08819576I08704311I08500812I08513179I08799123I08882996
2423I08182999I07084644I06414930I06200175I05992553I06006981I06526708I07111994
2415I07298608I07257226I07253659I07186989I06912777I06655213I06813287I07415618
2407I08099522I08607674I08895601I08878240I08479328I07846952I07331111I07313987
2399I07839501I08332036I08253078I07867960I07592480I07347283I07131338I07284101
2391I07744846I07900463I07543647I07054520I06707455I06624454I06884317I07119447
2383I07046038I07380816I08962113I11152082I12152373I11612907I10363376I08995567
2375I08108321I08502476I10154883I11824729I12429121I11944355I11007643I10239707
2367I09803616I09473435I09178850I09122406I09338193I09555406I09492698I09125022
2359I08813868I09158794I10348076I11655636I12257650I12085702I11572556I11253950
2351I11368899I11537596I11271866I10745402I10389457I10207918I10002199I09916503
2343I10342685I11245309I11846689I11557256I10792412I10182233I09885110I09677805
2335I09269382I08759565I08829961I09913570I11065196I11349159I11485353I12227049
2327I12959391I12881781I12389246I12126767I12104649I11975271I11651910I11527131
2319I12031954I12895258I13237091I12768497I12100368I11925012I12249801I12464874
2311I12425712I12517354I12772144I12809086I12465191I12045272I11819418I11692816
2303I11508740I11334018I11451820I12237435I13664224I14709543I14510722I13494893
2295I12367208I11624402I11752589I12804884I13849728I14053226I13819286I13873352
2287I14146533I14162388I13930826I13731370I13537384I13292266I13229322I13530567
2279I14023657I14369216I14452454I14459193I14546158I14540767I14234924I13924563
2271I14206702I15139768I15848961I15546528I14484165I13361315I12698022I12722279
2263I13292425I13953419I14281934I14172456I13768471I13290126I13079017I13596444
2255I14839475I15821214I15558340I14202739I12680898I11808161I11733405I12035442
2247I12294275I12458532I12671306I12948134I13237250I13622367I14091120I14271312
2239I13909501I13441700I13459457I13890315I14211142I14213996I14071697I13823329
2231I13358144I12839686I12647127I12887964I13271655I13476898I13468415I13472219
2223I13724790I14190530I14560744I14600065I14393633I14177767I14096668I14183951
2215I14339883I14279715I13802399I13115325I12609233I12360469I12096166I11675772
2207I11324505I11313089I11614017I11972815I12223165I12404150I12596788I12764770
2199I12797749I12681295I12560718I12587988I12729018I12794420I12680264I12497138
2191I12391545I12327253I12168782I11978840I12032985I12439586I12951622I13341574
2183I13735967I14290734I14737369I14673472I14205830I13850679I13859241I14053385
2175I14249987I14444448I14609815I14668241I14720404I15086099I15963592I17061471
2167I17719294I17496135I16544282I15359201I14386419I13892536I13913148I14285740
2159I14839078I15396222I15604398I15183369I14380632I13789479I13692843I13840532
2151I13812468I13447803I12978893I12777217I12923638I13127295I13144894I13103751
2143I13268643I13628551I13880011I13793046I13438925I13064113I12889867I13032403
2135I13432661I13827054I13965865I13921551I14059648I14627652I15455679I16137522
2127I16396830I16182629I15550729I14698207I14017156I13816274I14019852I14323950
2119I14544889I14667765I14733881I14822034I14992238I15201681I15408114I15669166
2111I15990467I16233128I16310421I16337690I16502583I16842672I17152320I17121324
2103I16684915I16158371I15884239I15885349I16004737I16167964I16368608I16612617
2095I16977518I17528163I18151422I18654738I18957172I18951146I18319642I16815719
2087I14632647I12203743I09780309I07446931I05282488I03269857I01369400H99825362
2079H99002330H98871606H99090484H99478217H99968295I00350797I00571181I00978099
2071I01824754I02906857I04067758I05539576I07315413I08717312I09158556I08928896
2063I08746960I08917877I09319880I09872743I10630214I11565421I12488260I13194362
2055I13685866I14198934I14878874I15486596I15646810I15362847I15044083I14993823
2047I15132633I15304660I15558102I15929029I16201259I16144023I15867512I15704205
2039I15787603I15971362I16142120I16355845I16603659I16735810I16713613I16674610
2031I16725108I16907677I17239126I17571130I17712952I17821479I18222294I18802269
2023I19079493I18858078I18421511I18186541I18397570I18965417I19510035I19740804
2015I19730261I19692685I19703228I19750000I19861144I20085966I20433746I20836859
2007I21173778I21376959I21485010I21546052I21556834I21534875I21551998I21655293
1999I21797829I21892562I21924035I21972631I22080127I22123808I21939098I21584659
1991I21351195I21438239I21735520I22017263I22218383I22375346I22429570I22322630
1983I22220682I22391282I22801291I23059173I22893726I22535403I22440036I22735255
1975I23108402I23196794I22917112I22459616I22157024I22311293I22905617I23501685
1967I23626623I23268538I22828483I22643059I22724712I22952707I23326408I23907176
1959I24549858I24865372I24601625I23986927I23553452I23617823I24023393I24381320
1951I24498092I24495079I24535509I24605667I24623979I24550492I24291898I23712477
1943I22821348I21789585I20788264I19924564I19249776I18756606I18454252I18411047
1935I18590050I18730842I18547240I18009282I17404335I17157632I17471402I18071909
1927I18499359I18688589I18980479I19506229I19874858I19577577I18515056I17079229
1919I15865134I15312350I15426109I15796085I16003468I15989437I15936957I15961532
1911I16109459I16478563I17091596I17768603I18269304I18456709I18327254I18064854
1903I18025930I18460515I19215767I19794631I19779887I19239787I18631352I18298634
1895I18276121I18562938I19178190I19895231I20355978I20465853I20318164I19821743
1887I18805519I17454516I16350296I16008859I16398256I16925911I17008277I16682220
1879I16520816I16966421I17904718I18880751I19547849I19870576I20057032I20387450
1871I20992714I21741307I22400953I22893647I23279795I23560904I23675535I23695592
1863I23887199I24514343I25553478I26595547I27102114I26886486I26325537I25968245
1855I25953419I25922186I25413716I24210324I22451293I20612036I19217194I18368080
1847I17639940I16504406I14708354I12323051I09688271I07264203I05286531I03553027
1839I01528505H98513838H93883946H87584921H80483157H74070293H69800626H68526044
1831H70126684H73580057H77638219H81491693H84802847H87527605H89895784H92119762
1823H93954659H94968427H95225435H95192458H95086705H94858392H94644668H94682244
1815H94881224H94890658H94458213H93508579H92090112H90455148H89010997H88024658
1807H87468149H87159848H86888649H86392309H85475891H84321093H83543724H83754357
1799H85024737H86845841H88578077H89917585H90993821H92084406H93242374H94208100
1791H94680500H94544306H93805702H92554902H91133424H90069872H89678174H89900144
1783H90592056H91714588H93177924H94738133H96139476H97302597H98362740H99505409
1775I00724419I01795185I02517855I02892112I03021885I02984547I02857231I02716360
1767I02511276I02108638I01593827I01336580I01558629I02014301I02311265I02403858
1759I02565975I02977412I03504273I03890738I04083852I04296705I04744686I05381582
1751I05921761I06095770I05922474I05721513I05719610I05649135I04930984I03309098
1743I01163285H99204640H98001881H97758824H98342287H99427402I00691837I01975219
1735I03295067I04701483I06118125I07388663I08464266I09451635I10451926I11435886
1727I12258997I12741861I12823276I12729256I12857206I13405630I14217405I15005397
1719I15569914I15832710I15849516I15789743I15764851I15739403I15707059I15811306
1711I16122777I16417997I16426796I16253263I16263569I16561167I16895231I17109115
1703I17314516I17559238I17665467I17509691I17226997I17036182I17016284I17121244
1695I17310474I17586826I17960211I18441727I19012902I19553636I19859083I19805493
1687I19517091I19358699I19651620I20317609I20917957I21131286I21026564I20850415
1679I20813790I21087446I21684308I22343320I22747305I22807316I22618246I22288541
1671I21918328I21617400I21443312I21366019I21310844I21228398I21105759I20906066
1663I20584289I20216692I19961744I19784406I19396751I18643956I17778116I17158345
1655I16837123I16625935I16417997I16257782I16226151I16399129I16804303I17356532
1647I17937855I18514580I19090433I19648449I20212490I20818230I21380923I21757637
1639I21960660I22186752I22623874I23280588I23959972I24385759I24400187I24061921
1631I23585874I23223906I23132343I23289863I23584845I23969328I24434196I24907229
1623I25320331I25712028I26125843I26479330I26651277I26632410I26494074I26295729
1615I26112684I26065832I26196953I26370565I26421776I26350429I26294461I26382535
1607I26672444I27102589I27465748I27586721I27559847I27640073I27883051I28084567
1599I28117625I28155598I28447647I28981008I29496294I29775105I29782319I29600700
1591I29390384I29350191I29527212I29701696I29604664I29219943I28758562I28401984
1583I28179935I28038112I27899935I27733935I27635079I27697468I27764218I27623822
1575I27507288I27945916I28970702I29909555I30183212I29954108I29797619I29988672
1567I30368398I30798306I31417126I32324507I33311004I34128011I34771326I35295096
1559I35596658I35559795I35238256I34870420I34819764I35316104I36075320
1552I36425477I36070642I35524675I35510962I36103304I36721569I36870605
1545I36613517I36357935I36392895I36672339I36905882I36834377I36511966
1538I36252340I36183768I36020937I35522060I34919254I34529142I34237014
1531I33821455I33495793I33660844I34330083I35075663I35378572I35007645
1524I34273560I33844603I34140378I34957940I35727144I36086418I36221423
1517I36567775I37180174I37692052I37940578I38170000I38542117I38968774
1510I39464005I40130786I40776322I40992029I40662721I40114217I39775476
1503I39874332I40367263I40984815I41427723I41685208I42036713I42584027
1496I43015758I43096381I43078782I43231940I43260401I42702543I41737054
1489I41106184I41242617I41801900I42145637I42091096I41999137I42197879
1482I42605194I42959949I43131183I43106052I42971127I43009020I43546028
1475I44581200I45691921I46325247I46180413I45453779I44722626I44405606
1468I44369694I44259106I44053150I44006297I44200839I44487418I44728810
1461I44827031I44688616I44376354I44108008I43996865I44004554I44081767
1454I44139480I44100873I44180069I44738323I45708409I46562359I46912992
1447I46785439I46385813I45983732I45920787I46393583I47197510I47806340
1440I47816013I47347972I46868281I46599698I46394138I46146879I45911988
1433I45648716I45280562I44959896I44963701I45323451I45685499I45574673
1426I44940712I44399264I44614099I45478353I46273164I46521057I46322394
1419I46014411I45866166I46003391I46387558I46872324I47291926I47440646
1412I47150262I46574013I46226947I46540637I47402197I48199307I48455127
1405I48429521I48757640I49440276I49693322I48952815I47673476I46910613
1398I47115777I47606727I47531495I46892856I46357354I46451216I46988700
1391I47366762I47344327I47095562I46867805I46935902I47541642I48632861
1384I49735417I50208688I49742867I48618275I47460702I46812154I46872800
1377I47479649I48369510I49428068I50492016I51173543I51286668I51167835
1370I51233395I51456633I51544787I51418423I51263519I51216351I51226578
1363I51236249I51278740I51319329I51220394I50930248I50496139I49961191
1356I49508294I49508373I50078677I50821721I51308389I51586406I51970730
1349I52591533I53331088I53961562I54173464I53713194I52713695I51730528
1342I51276600I51473280I52269280I53648981I55335792I56611008I56879670
1335I56347578I55853695I55995676I56600465I57135174I57406056I57576815
1328I57738456I57887176I58162260I58704738I59436287I60204857I60941321
1321I61556652I61900944I61846323I61337933I60534482I59944043I60101324
1314I60956462I61783379I61828486I61019724I60055899I59743873I60203033
1307I60902476I61436631I61848938I62201950I62379605I62416706I62531100
1300I62807294I63226736I63811231I64385499I64475158I63650462I61794398
1293I59104362I56096435I53417815I51468128I50275279I49472778I48150553
1286I45416678I41887676I40026619I41778911I46037321I49594385I50775583
1279I50935956I51921739I53580329I54783960I55586697I57129704I60158560
1272I64169712I67531602I68687588I67802643I66709759I66761764I67469372
1265I67817547I68141226I69670122I72370701I74420354I74564238I73367504
1258I71422414I68906387I66844289I66460281I67456212I68513819I69018562
1251I69159196I69168471I69266772I69563339I69728469I69451403I69014281
1244I68747838I68292404I67199678I66014836I65827351I66654901I67172487
1237I66407405I64864002I63569918I62940317I62953556I63577687I64597242
1230I65487182I65739910I65274012I64539847I64117311I64220369I64772756
1223I65733330I66943303I67902133I68131079I67725905I67360052I67701568
1216I68829174I70282521I71574860I72380848I72455288I71887283I71259822
1209I71104204I71362007I71583739I71391815I70658205I69640077I68998188
1202I69221823I69948694I70338251I70227187I70366234I71293514I72517043
1195I73096067I72675593I71726433I70945972I70621659I70715917I71479017
1188I73284265I75518787I76616585I75923723I74711610I74601418I75573804
1181I76521535I77123787I77891644I78902636I79529463I79277765I78425084
1174I77758382I77692822I77913206I78125108I78790938I80637726I83533956
1167I86103652I86884827I86196324I86055928I87477962I89034523I89075827
1160I87944732I86881101I86262598I85906178I86102066I87578879I90323614
1153I92588022I92241670I89408623I86330537I84630089I84048529I83702336
1146I83316425I83084783I83183006I83714465I84780554I86234773I87470034
1139I87993645I88195003I88797412I89702257I90321315I90757247I91640687
1132I93073185I94483881I95070278I94143236I91937334I89908292I89307072
1125I89732144I89959504I89680456I89469506I89559323I89533481I89132825
1118I88695228I88540404I88397868I87908900I87372209I87320046I87637859
1111I87783091I87522593I86871746I85881048I84940213I84598618I84836918
1104I85108514I85043429I84659184I84023637I83166358I82260642I81647926
1097I81638096I82233055I83040232I83709233I84432695I85550551I86772256
1090I87454496I87635480I87978662I88837685I89982652I91027496I91768557
1083I92149315I92162395I91909191I91619283I91417290I91183429I90821302
1076I90428574I90050036I89652076I89436765I89757908I90725775I92156608
1069I93760736I95187526I96090070I96320205I96017375I95502088I95052996
1062I94740811I94587335I94759361I95381036I96424214I97868524I99511575
1055A000792182A001412270A001617672A001645497A001529280A001340765A001154785
1048A000946451A000743111A000553406A000208640I99667668I99280489I99456717
1041A000308447A001660639A003037882A003860993A004129814A004379768A004931442
1034A005615426A006114224A006370837A006509013A006480395A006041370A005170773
1027A004327367A004069010A004548227A005396786A006138561A006542942A006504494
1020A005962492A004977976A003654640A002107115A000616588I99587996I99303320
1013I99867995A001195612A002928562A004691477A006430848A008258293A010046654
1006A011472177A012465490A013500980A015293307A017792686A019874762A020951553
999A021679931A022819745A024423794A026099507A027717825A029425248A031105242
992A032463855A033620476A035040288A036855051A038528623A039520273A040107383
985A040970924A042395336A044241252A046511130A049316351A052214484A054583853
978A056545272A058494880A060460184A062504684A064906713A067534439A069755009
971A071266225A072280945A073040240A073619660A073741823A072655757A069590830
964A064417825A057149506A046889985A032741238A015943282I97385898I75453782
957I49470718I21168545H92233205H63582302H36818539H13051288G91102365
950G69352104G49915800G37746152G33951024G36298275G42908771G52370469
943G63568288G76098479G88983029H00189488H09610360H19679542H31185898
936H41444071H49686204H57207173H63408769H67542480H70582118H73393760
929H75864522H78188862H81667049H87062340H92311131H95415934H97002462
922H98008618H98835853H99941659I01777666I04311846I07557282I11778671
915I16360760I20031505I22789400I25614203I28988856I32369218I35005504
908I36795294I38073285I39496270I42275647I46841486I50400692I51513076
901I52053255I53640498I56169525I58330798I59792390I61008625I62075903
894I62998108I64331749I66766045I69545740I71097387I71476005I71685528
887I72341845I73440595I74788665I76464456I78560090I80664283I82286327
880I83590162I84861335I84953214I80915743I69823281I49381296I19557995
873H86500519H61329706H51644610H56349339H68946201H82920623H94287852
866I01786624I06098068I08706689I11003758I13971097I18180833I23742998
859I30189633I36652441I42388377I47103648I50823701I53669830I55785360
852I57390598I58835145I60178062I60423259I58333018I53596342I46288306
845I37595495I30797196I28446854I29894493I32365413I33036078I30098547
838I22691258I14053068I10628630I13145291I19252947I26810461I34298292
831I41108325I46932890I51605670I55325724I58157186I59708516I59377622
824I56785810I53180228I50812208I51086974I54607652I60293882I65472040
817I68970046I71561780I73858216I75357304I75007464I71810386I65412505
810I57359681I50203297I45821059I45520211I49397151I55930275I63011664
803I69029264I73375986I75859907I76359973I76203881I77075984I79295919
796I81828911I82156871I76409124I62360421I43089405I24127798I09838733
789I03784193I07380420I17445717I29178244I39595283I46792098I48781343
782I44059967I32718899I16363376H97461860H79117726H65288219H59718364
775H62086543H68335784H74976960H79565232H79615176H74357110H66263537
768H58602332H53928600H54773037H61517904H70046774H76836511H80974979
761H82535109H82637453H83440904H86553633H91857362H98333012I04952943
754I10616738I13456602I09859425H97276833H81305238H71751185H72861985
747H83228685H97941948I11718660I22756977I31879299I39613914I45875441
740I51191617I56434225I61364966I64997580I67206655I68316662I68209007
733I66266533I61561092I53125132I40487682I24765961I09396301H98256908
726H93326247H94678914I00773965I09087446I17575806I24877184I30195975
719I33940922I37448678I41878639I47322526I52920286I57999429I62450636
712I66153567I68772730I69975727I69361346I66179173I59689491I49999481
705I37566718I21947897I02892826H82956931H67416354H61260895H66077876
698H78375634H92415378I04831969I14897108I22782028I29075028I34652731
691I40072440I45167517I49363141I52355373I54424052I56182528I58268647
684I61230437I65343219I70397232I75915240I81582444I87238314I92651283
677I97587890A002051068A006275310A010430505A014433729A018102571A021387010
670A024393828A027258347A029995234A032452281A034434629A035725066A035846753
663A033971426A029010799A019594287A004916220I86945710I70860594I60990392
656I56568279I53485912I49776084I47018111I46541668I46681351I44204723
649I36780470I23814900I06228397H85822719H63951248H40273576H13257561
642G82422476G49887341G19212392F93038672F72582258F58709942F51724753
635F49878559F49733922F48972605F48331430F50505505F57628870F69814850
628F85520160G02757538G19896931G35813984G49749403G61063597G68975629
621G72300260G69384450G59035824G42397369G23611594G07903113F99131662
614F99067925G07526320G22118848G38775933G53800351G65686275G75062673
607G83388361G91791978H00497155H08523501H13723618H14028747H09912001
600H05468880H05759265H12677348H23973308H36091747H47001163H56358059
593H64316546H70994665H76595437H81415034H85705550H89647495H93389746
586H96983199I00205961I02441593I02734593I00108691H94383299H87199010
579H81900196H81539337H86641311H94879877I02573823I06533764I05515953
572I00931089H95843305H91980556H87302780H78002170H64262797H52769998
565H51267183H60764951H74457630H83406499H81675610H67461461H42849457
558H14036992G90086457G78792796G82237052G96129504H13612078H29815869
551H43444415H55379807H66694239H77699260H88079120H97431814I05646360
544I12900648I19407850I25217511I30232838I34238441I36770243I37131658
537I34763796I29532919I21507525I10486331H95903791H77531118H56738181
530H37139682H23354568H18317995H21402186H29043177H37012525H42095235
523H42086276H34884945H18338528G92055408G60196567G31683365G15457695
516G13908029G20711956G25603852G22262018G12799607G05212919G06311272
509G16578563G31063832G44408335G54916859G64477412G75417508G87992728
502H00754481H12365877H22411038H30994529H38378748H44948735H51041805
495H56598499H60974316H63298180H63421057H62512567H62299793H63746877
488H66800943H71133078H76538438H82600749H88265813H91884871H92096455
481H89339432H86416328H86346964H88614226H88273661H80844968H68599928
474H60056630H62026453H73457815H87786675H99307063I05767968I06562382
467I00822958H87469100H66235792H38440106H06733078G74037411G43206449
460G18053789G03565270G03234138G15730321G35195640G55314264G72733338
453G87040874G98937421H09026104H17571464H24673148H30541473H35639325
446H40594641H46020215H52260022H59153610H66092146H72311976H77230191
439H80875885H84110936H88080627H93190053H98293692I00242903H94780307
432H80239625H61489445H47661364H42761699H39360568H25325263G97887980
425G68362755G51689181G53646161G69263635G90212107H10694048H27944823
418H40659012H48346379H51710013H52822635H54262823H57752981H63498112
411H70543511H77623077H83914413H89223771H93695509H97614385I01295991
404I04823725I08005899I10710521I13008859I14962034I16497113I17540926
397I18167356I18410968I17661582I14059885I04576942H86707982H62178740
390H39456491H29642970H37125412H55194938H72389903H82168780H85946387
383H88834452H94088475I01100896I07441620I11832578I14871105I17701140
376I20877210I24295465I27615736I30609553I33214050I35432479I37348870
369I39167596I41113239I43334522I45869972I48560721I50949750I52300118
362I51886303I49636639I46530570I43777273I41189027I36893595I29472115
355I20314755I12967476I09392655I06926887I00173695H87478454H74987821
348H71860188H81160720H97577364I13757610I25987349I33896528I38072572
341I39046543I37075927I32465616I26355899I20567642I16362821I13914574
334I13093683I14174993I17420586I22433060I28620228I35940156I44292401
327I52610321I59613387I65108248I69777460I74106505I77929775I80466968
320I80593570I77692109I72737903I68425427I67633074I71353763I78185674
313I85522963I90691766I91640766I87847779I80390626I70117946I55574965
306I33034176H99026747H53759190H02227806G50873759G03047842F59602141
299F24485142F06471822F11906632F37125684F71107745G04055902G31007071
292G50802412G66265696G83375678H06220803H33170783H59350132H81503346
285H99483925I14519601I27446087I38351540I47038881I53392289I57365943
278I58739381I56970837I51184483I39513869I18768101H87927704H53456201
271H26213697H08399357G87277272G48046974F92161574F38300300F05279963
264E97934786F09964793F34736259F68680823G06057276G34964237G42064018
257G24105953F94753150F75504252F76992321F91490591G03719380G04320997
250F92842466F74607969F58019973F51027371F56782492F72517252F92872195
243G14193498G35619840G55548045G66737143G58225635G27275681F88529436
236F64491183F64394983F76862548F85039358F84240743F82353683F87821987
229G01581732G19057806G35999488G51088911G64685747G77060797G88040927
222G97490020H05652719H12957108H19520517H25162512H29915835H34068730
215H37772375H40882567H42891472H43269376H42576989H43159422H47990831
208H55950745H61894857H64729252H66328623H68021776H70355075H73498325
201H77158843H80534845H82943375H84494785H85932039H87849064H90164764
194H92184213H92988853H92071800H89975059H87872847H85855380H82071985
187H74638377H64522027H55882093H53172159H57863648H67664088H78457763
180H87157708H93093337H97122960I00095056I02453008I04657247I07140692
173I09802347I12020696I13344508I13902683I14098651I14263860I14673156
166I15534002I16719399I17704787I17838127I16063796I10098677H97557070
159H80016942H64879874H60181567H67247023H80208153H92425367I01295516
152I07293376I11464900I14673552I17345592I18764692I16985684I10356241
145H99933573H90199248H86122695H88957247H95865422I03290389I09092044
138I11929452I10467384I04021700H93648737H82207228H72954816H67643001
131H65974105H66933966H70103376H75393867H82182256H89404280H96256010
124I02230722I06606617I08504538I07589864I04476263I00635076H98151552
117H98736680I02221446I06712370I10681189I13917349I16172720I16112947
110I11853268I01864154H86343475H68731444H54622651H48495574H51395528
103H60461328H70643793H77955635H80980052H79678358H74628468H67932751
96H63386255H64320827H71047541H80808264H89985206H96180064H99107053
89H99908443H99495896H97845868H94897713H91523377H89076636H88235450
82H88804803H90331320H92271970H93726110H93508500H90892983H86405627
75H81637162H78179587H76999976H78772484H84003677H92236851I01658119
68I09879165I14910981I16353388I15931011I15780944I16530805I17660235
61I18934024I20648106I22727804I24278817I24016654I20516272I12474625
54H99953074H86169388H77167801H77568774H86773145I00354047I14101663
47I25640998I33274775I36188524I36553030I38439852I42906518I46384704
40I45475104I41928503I40900228I44974007I51322897I55213313I54956462
33I52699822I51502533I51572295I51464799I50982014I50921845I51683518
26I52492281I51686531I47944438I41707405I34956037I29101188I23694006
19I17723734I12115748I09924193I11982328I15345645I16708698I15055975
12I11602601I07489343I02443416H96383325H91167591H89119762H90573505
5H94207150H98148143H99321095H93884660H83529930
$$ === CHEMSPECTRA ===
##$OBSERVEDINTEGRALS= (X Y Z)
##$OBSERVEDMULTIPLETS=
##$OBSERVEDMULTIPLETSPEAKS=
##END=


$$ === CHEMSPECTRA PEAK TABLE EDIT ===
##TITLE=STM-155 (1)
##JCAMP-DX=5.00
##DATA TYPE=INFRAREDPEAKTABLE
##DATA CLASS=PEAKTABLE
##$CSCATEGORY=EDIT_PEAK
##$CSTHRESHOLD=0.8370000000000001
##MAXX=3997.453
##MAXY=0.8073172601986962
##MINX=373.96442
##MINY=0.44957089578787296
##$CSSOLVENTNAME=
##$CSSOLVENTVALUE=0
##$CSSOLVENTX=0
##NPOINTS=0
##PEAKTABLE= (XY..XY)
##END=


$$ === CHEMSPECTRA PEAK TABLE AUTO ===
##TITLE=STM-155 (1)
##JCAMP-DX=5.00
##DATA TYPE=INFRAREDPEAKTABLE
##DATA CLASS=PEAKTABLE
##$CSCATEGORY=AUTO_PEAK
##$CSTHRESHOLD=0.8370000000000001
##MAXX=3997.453
##MAXY=0.8073172601986962
##MINX=373.96442
##MINY=0.44957089578787296
##NPOINTS=46
##PEAKTABLE= (XY..XY)
2967.6343144409693, 0.6530210998899428
2946.3863360594214, 0.6726589825877838
2923.7218257857703, 0.66431248485087
2901.0573155121187, 0.6689248108874855
2837.3133803674746, 0.675000431747999
1714.0035899296322, 0.551837804138237
1606.3471661297885, 0.6403284097610347
1471.7766363799842, 0.6463988449549156
1459.0278493510555, 0.6420456789427941
1433.5302752931975, 0.6554459956517562
1400.950041774824, 0.6716676977121192
1364.1202125801406, 0.6475586320415471
1267.7960439171225, 0.4874627611187897
1242.298469859265, 0.5256101511692608
1222.4670233698198, 0.605610134815648
1191.3033217435495, 0.6628054408049403
1172.8884071462076, 0.6400446319176506
1160.1396201172788, 0.5855531123604208
1120.476727138389, 0.6152710340078561
1103.4783444331506, 0.5367680215676309
1096.3956849726346, 0.530230404952574
1066.648515238467, 0.6483397511793325
1051.066664425332, 0.6664201647307096
1043.984004964816, 0.6466531779560978
1021.3194946911649, 0.528742613361305
973.1574103596558, 0.5651746417312851
923.5787941360436, 0.6237859753096591
865.5009865598122, 0.6555279520414845
794.6743919546516, 0.4559896608635234
746.512307623143, 0.44957089578787296
733.7635205942138, 0.5078932666081031
722.4312654573882, 0.4894897658001351
705.4328827521499, 0.4995405095302126
699.7667551837371, 0.5130431674039856
671.4361173416728, 0.6335107115092293
633.1897562548866, 0.6414769315376536
594.9433951680999, 0.646747114686862
575.1119486786547, 0.6662515429719691
558.1135659734164, 0.651102366394103
539.6986513760748, 0.6752957132450701
521.2837367787329, 0.6379607345260315
508.5349497498041, 0.6491566323945015
490.1200351524626, 0.6678400659684055
475.95471623143067, 0.6593924187850531
446.20754649726314, 0.6595186018360348
382.46361135261895, 0.668504956099076
##END=

##END=

