##TITLE=X9573
##JCAMP-DX=4.24
##DATA TYPE=INFRARED SPECTRUM
##DATE=19/11/2018
##SAMPLING PROCEDURE=Instrument type and / or accessory
##ORIGIN=Default
##XUNITS=1/CM
##YUNITS=TRANSMITTANCE
##RESOLUTION=4
##FIRSTX=3996.5625
##LASTX=399.65625
##DELTAX=-2.0390625
##MAXY=0.97154886
##MINY=0.41116259
##XFACTOR=1
##YFACTOR=9.0482538e-010
##NPOINTS=1765
##FIRSTY=0.86837566
##XYDATA=(X++(Y..Y))
3997+959716290+960193219+960004424+959542975+959438499+959646266+959955677
3982+960393082+960760528+960999651+961126854+961001891+960570349+959888024
3968+958931465+958169432+958465537+959136004+959353257+960079059+960976068
3954+960873700+960374044+960351120+960795639+961083180+961044512+960747880
3939+960438271+960638792+960559678+959787698+959983410+961137460+961209263
3925+960450524+960019838+959840002+959764576+959979985+960879036+961882892
3911+961577302+960731016+961124878+962105679+962372140+962086641+961764846
3897+961287653+960640176+960677461+961582309+962509224+963144581+962870874
3882+962131765+961950611+962047183+962271484+962581818+963645884+965062706
3868+964320567+963149983+963496086+963455112+963019815+963852531+965951876
3854+968425452+967684038+964171626+962125771+962119578+963389369+965256837
3840+966841704+966938803+965712950+964886361+964745653+964850393+965098212
3825+965366979+966257400+967900961+968425057+968092721+967172129+965109542
3811+963748911+964253441+965467042+965465856+965488978+966131515+965603138
3797+964202125+963162301+962790441+962682276+962537814+962297439+962391705
3782+963004928+964090271+964827074+964467862+964171296+964267473+964287696
3768+964386639+965078581+965977698+966239746+965746809+964569637+964316615
3754+966718849+970152344+970184359+968290146+968458257+968222889+966164583
3740+965406833+966447316+968254047+968792503+966942294+964371883+962176230
3725+961077119+962049554+964060628+965215402+965158289+965040506+965658406
3711+966036129+965404461+965351367+965990280+966049172+965379429+964770356
3697+964473066+964831949+965971704+967119232+967141695+965624415+964114513
3683+964034673+965487990+967589903+969338995+969855910+969928108+969789641
3668+967887787+965663215+964687223+964436637+964682216+965602281+966134281
3654+966231841+967970525+970435208+969953338+967385693+965512561+964938006
3640+965186813+964889061+964241518+964478204+965813211+967424559+966679654
3625+963860897+962296319+962913231+964517070+965676983+966871414+967709399
3611+966870030+965023050+963757145+963379357+963362493+963573817+963856418
3597+964093104+964345995+964246854+963871634+964173009+965189843+965684492
3583+965531269+965192544+964594472+963761098+963263945+963405048+963826906
3568+964219450+964554355+964633470+964586369+964796969+965008557+964779315
3554+964015767+963017971+962662579+962758822+962186836+961713596+962486300
3540+963416444+963353995+963126795+963808329+964883264+965556762+965314477
3526+964355415+963520986+963077455+962961055+963258741+963906416+964389669
3511+964235194+963799766+963963265+965027002+966445866+966546193+965145641
3497+964627343+965170278+965083588+964479324+963927035+963759846+964439272
3483+965116525+964758169+963974991+963811689+964165960+964225906+963974925
3468+963726645+963612485+963796933+963924861+963836655+964187567+964998544
3454+965048806+963817552+962626217+962890768+964109506+964886624+964840776
3440+964292636+963680665+963246159+963096427+963331071+963909051+964504883
3426+964905662+965360457+966091200+966703632+966678007+966335395+966013270
3411+965670988+965366913+965153217+964781950+963656753+961584482+958335699
3397+954167114+951057918+950564652+951953016+953614956+955196596+957059452
3383+958747215+959805550+960290186+960179583+960055279+960293480+960643733
3369+961359654+962198496+962868107+963420264+963270071+962787411+963050051
3354+963543779+963688702+963968997+964165631+964028876+963836655+963544569
3340+963125082+962997352+963591801+964495990+964750594+964355283+964442566
3326+965177656+965592795+965191622+964436967+964332227+964907309+965388717
3311+965521981+965220936+964535515+964095607+964327286+964990837+965543785
3297+965409006+964645788+964052657+964192969+964923514+965539437+965438452
3283+965268102+965866766+966635386+966943546+967046310+966947037+966442968
3269+965891271+965957475+966511741+966622014+966366751+966374722+966385526
3254+966169590+966093900+966407528+966863706+967551367+968845268+969860982
3240+969403618+968072827+967371728+967633710+967859527+967810121+968078822
3226+968103525+967480289+966913310+966578010+966310297+966340072+966549289
3212+966447843+966102003+966486181+967680019+967982975+967160733+966569842
3197+966653568+967106914+967326802+967500051+968299698+969266599+969537408
3183+969304082+969396306+969736217+969830878+969696692+969387479+968909166
3169+968357074+968232704+968753966+969102507+969028662+969182544+969612571
3154+969848664+969411588+968505884+968432830+969084260+969131623+968961404
3140+968938480+968776034+968949086+969516394+969932983+970064534+970482439
3126+971247700+971352111+970511424+969463563+968703639+968413002+968460431
3112+968237052+967061263+965179435+964081114+964848878+966681169+967857089
3097+968344624+969095985+969959398+970337846+969823829+968895267+968346600
3083+968142061+967971513+967604066+967360793+967760320+968293835+968394623
3069+968258131+967997335+968042591+968379603+968022565+966847106+965024960
3055+962359426+959513793+957607460+956999045+957610951+959451608+961926238
3040+964090666+965591280+966522083+967235698+967763811+967876324+968245747
3026+969192952+969536815+969101321+969080966+969215547+968672348+967814073
3012+966547840+963754642+959012886+952899497+945981586+939228164+934135956
2997+931107522+928851001+925780803+921762345+919233369+920904399+925243138
2983+927771850+926389019+923015338+920345589+917701464+913416282+910032983
2969+910591069+912817551+912917087+910258273+905483843+898602361+889903607
2955+879158867+865519352+852232592+845884296+848305304+855040216+861401885
2940+865504991+866479139+863693978+857332902+847914143+835836505+821263551
2926+804363790+785664082+767689912+756560006+757816161+770803127+789703883
2912+808947382+825651300+838425887+846966741+852268625+856166797+859587380
2898+862562654+865976980+869918364+873264576+875752183+877021974+876178785
2883+873061420+867769680+861357222+856763419+856143609+858809142+862900523
2869+867026487+870239304+871717521+871052784+868741061+865041829+860086509
2855+855257930+852598853+853601260+858168911+865198874+873145475+879865236
2840+884954545+890051627+895895656+902223400+908640008+914320998+918783119
2826+922304094+925236484+927744117+929787535+931207387+932287263+933384266
2812+934329824+935182105+936235235+937107146+937400747+937829984+939073030
2798+940505135+941334491+941794490+942374183+943252879+944400935+945506699
2783+946499950+947293207+947827908+948528875+949207709+949484644+949753081
2769+950143254+950483165+951030843+952076267+953242042+953776414+953826544
2755+954112175+954742261+955377091+955714103+955997626+956365929+956219885
2741+955597243+955019789+954410980+953770946+953124193+952093262+950849755
2726+950017896+950052150+951328331+953245007+954887514+956243403+957454039
2712+958415999+958992860+959370385+959640469+959689282+959661088+959698241
2698+959781110+959838289+960023923+960220360+960291570+960486491+960482275
2683+960058572+959442912+958571397+957729788+957553377+958066142+958919674
2669+959836247+960340251+960454345+960730358+961044841+961131466+961369469
2655+961825582+961858914+961470849+961643308+962805658+964209898+965053154
2641+965217774+965036751+964828787+964600928+964552971+964959152+965663017
2626+966364973+966482295+965554523+964522603+964763571+965771512+966151672
2612+965944695+966170578+967432662+968992892+969812169+970295818+970663330
2598+970421242+970380861+971400067+972126462+971482673+970734079+970644358
2583+970683026+970265779+969217787+968662862+969031956+969156458+969244927
2569+969891219+970538301+971266276+972116185+972568543+972474673+972228567
2555+972371250+972845347+973203241+973272673+973336768+973452443+973472403
2541+973272936+972641400+971826207+971017009+970219536+969656706+969332605
2526+969630554+970658719+971358961+971432609+971554410+971995240+972142074
2512+971084464+969276283+968185077+968416625+969398875+970408199+971387419
2498+972623483+973807505+974493980+975066493+975947626+976699119+977110042
2484+977678800+977665098+976237209+974802864+974534691+974939685+975137571
2469+975043239+975711006+977066170+978019106+978787858+979618663+979823598
2455+979327631+978803668+978293011+977855936+978180300+978826921+979028826
2441+979110510+979161299+979452529+980193218+980025898+978637731+977541584
2426+976915450+975797104+974786923+975187965+976341225+977196140+977773659
2412+978137680+978523703+979016903+979662272+980815334+981919847+982342759
2398+982688203+983291150+983566109+983162695+982578457+982113188+981178235
2384+979905677+978852349+977271763+974804511+971790108+967948984+964904212
2369+964190927+963890211+962648812+960521800+958072400+957062680+957959821
2355+959523015+961622031+964761397+967058430+966561673+964345336+963211377
2341+963436338+964870485+967170614+968040285+967142684+966622212+967466653
2327+968427757+968373345+967873294+968021511+969272989+970796396+971428261
2312+971837867+973305478+975649611+978400254+981166509+982515020+982527997
2298+983626120+986205688+987833307+987847405+988168410+989531413+990955217
2284+991802689+992189832+991247172+989049016+987679359+987564343+988516028
2269+990292128+991618834+992281660+993010295+994112304+995436705+995806259
2255+994973675+994967088+995938930+996322252+996077924+996786862+999384677
2241+1001762209+1002159628+1001996523+1002726409+1003567557+1004103509
2229+1004696575+1004100611+1002581025+1001814183+1001236994+999740003+998411847
2214+999322558+1001904563+1004689329+1007964330+1010125135+1009286162
2202+1007684431+1007583380+1008724979+1008893025+1007268172+1006997363
2190+1008202926+1007426204+1004981810+1003492658+1003219741+1004225904
2178+1005366911+1004063590+1001292855+1000624430+1003551088+1005838899
2165+1005051637+1005629683+1008528279+1010426510+1010092133+1008297719
2153+1005833300+1004122283+1005946538+1009278257+1008428019+1004137632
2141+1001853115+1004053247+1007308618+1008061297+1007770462+1007724021
2129+1007301175+1005914325+1003834150+1002396643+1001510306+1000906700
2117+1001675452+1003419538+1005156442+1005916367+1005112900+1005341615
2104+1007838971+1010057812+1010976823+1011524765+1011813162+1011420288
2092+1010731244+1009871783+1009137418+1010066903+1012525328+1014600101
2080+1015509758+1014973740+1013619959+1014055915+1015443225+1014711956
2068+1012473946+1010748371+1011467256+1013559553+1014706686+1015730898
2055+1016317376+1016845819+1018910909+1019882158+1019019996+1018529102
2043+1016231739+1013427080+1015582220+1021573478+1025627112+1025360981
2031+1023630597+1024122480+1026681758+1027003159+1023412685+1020215481
2019+1020856767+1023918336+1025194385+1023076464+1021519527+1024290657
2006+1029400452+1031147765+1028603045+1025697400+1024241251+1024561795
1994+1027340369+1030776432+1032841852+1034319674+1033934310+1030697515
1982+1029279968+1033165821+1038341293+1040296176+1040924945+1041164003
1970+1039247393+1035398298+1031014699+1028983798+1030395943+1031650583
1958+1031206920+1031585499+1033813628+1034691665+1032274939+1030024874
1945+1031124643+1033467196+1033897025+1033467986+1032968989+1032343514
1933+1033020042+1034933094+1035842685+1035555803+1035668514+1036040374
1921+1036379823+1036842326+1037025654+1037135598+1037863047+1038410000
1909+1038024636+1037851585+1038581932+1039484672+1040122532+1041182382
1896+1043010193+1044958883+1046473595+1047307957+1047177658+1046790581
1884+1047046503+1047923683+1048809230+1049675344+1050978467+1052112887
1872+1052439821+1052314923+1051677129+1050528217+1050017297+1049849713
1860+1049578311+1050185869+1051519295+1052379743+1052711420+1053153699
1847+1054137728+1055597500+1055633731+1053157191+1049565532+1047626920
1835+1049399331+1053323655+1057421096+1059953761+1060142227+1059226641
1823+1058070549+1057137902+1056755239+1056698653+1056698851+1056789296
1811+1057068800+1057295737+1057300019+1057657123+1059117356+1062034661
1798+1064877528+1066316945+1067502417+1068950463+1068811337+1067399060
1786+1065880001+1064332814+1063388046+1062521866+1061188704+1060526208
1774+1060953797+1060173451+1057040013+1054034701+1052621699+1052267889
1762+1051775809+1050705551+1048656139+1045250245+1041398647+1038180165
1750+1036157103+1035456267+1034836786+1034211047+1033944586+1032744819
1737+1030970959+1028924182+1022675685+1012523483+1002689388+994402612+988957912
1723+984316679+977511809+961117237+921063947+864857250+811730106+763801490
1709+718422601+668616834+612918356+569096799+545806549+545253864+562989734
1694+588121003+610600507+632371072+654389193+673997570+695177902+714088474
1680+727367790+740029469+752995750+764339089+772951877+781504390+790023702
1666+798237885+810732639+828627298+847499597+865690756+884232103+906190673
1652+921190293+922411601+922341050+925193073+926730116+916474689+883980529
1637+829548944+772060336+752260265+760289012+765725082+752951746+720938007
1623+673850209+625744260+587650859+548097686+511034130+491703577+485818179
1609+489906035+502186105+518875662+536848975+555199781+574633789+596331695
1595+618975752+638629846+653974054+667196323+673889668+666078767+650684099
1580+645280504+655330996+676326618+697583892+713937490+732069956+750741140
1566+766140683+780464500+793297518+807222071+821728953+829630497+837279940
1552+846494686+855874118+864344880+871656323+880286041+892728425+908145819
1537+918264886+924750860+931489197+935569708+936617306+938713159+945667103
1523+957457859+970427369+979636845+986032043+991858945+996804187+1000600517
1509+1001281920+985462166+938896948+877292651+804758706+741963799+728711689
1495+759485544+795975633+831990637+868490805+897926887+919898303+933806388
1480+934226204+920789383+901890801+876537206+826138374+764522351+723592342
1466+707646307+714580554+723547350+714003562+679666044+639905170+624792114
1452+622095949+620947433+617440752+615158342+622048586+636540843+648938828
1438+654008901+660603633+679244186+701085105+710553137+703177928+695258137
1423+703441886+727740440+760733729+791215103+812477449+830461236+847092428
1409+860100804+868594688+875516749+884391848+894738444+901751213+898288339
1395+881575726+856777780+831812184+813058130+803938045+791268856+758939250
1380+717604246+702583018+720747499+725094273+687517458+651184743+653799751
1366+681655840+704024873+711041463+703722115+686369007+673225656+678924367
1352+700926809+726010781+748746733+771722203+795567740+817701141+836846027
1338+853182761+867740893+881855428+896126611+909781476+920731150+928002871
1323+932708594+936565726+940284456+943736857+946534600+947445904+944383742
1309+933095869+907482598+865654460+816100398+775096148+756265218+762747766
1295+788542125+823184970+857350424+887743593+914790220+938252369+957013340
1281+970043849+977081124+978962952+977748890+977542375+981862273+987829948
1266+987040841+965541677+898603415+776681015+653651073+606099521+641831397
1252+712302559+779250372+831286508+868838686+895401468+915679588+932548322
1238+946417871+957670962+965050190+961305571+934827504+891881678+869540576
1223+889472066+926534272+952523026+966340204+977284016+989912758+1002845180
1209+1011605658+1012384752+1001589091+968721952+897154117+783081550+650927768
1195+539903430+478538586+471854825+505941297+563821857+633596332+706429083
1181+774483716+829883915+862388878+860500858+826543961+786776236+766589879
1166+761766241+746073953+699486075+627207326+552112323+493694855+461021715
1152+454410976+467402224+491798996+521362644+553045036+585906510+618982274
1138+651123085+682175258+712223707+739664592+760488347+764965619+736080706
1124+668230547+587772726+528812521+503071915+509122856+536073702+558310624
1109+556988397+540617638+529907548+535340160+554706712+580056487+605614752
1095+630356112+655206494+680266224+704440012+726806278+746355961+760906912
1081+768780723+772721976+778625226+787274245+790458669+775676763+732259739
1066+663748731+596228009+559472249+560937094+586168821+616221750+636270429
1052+635601214+610922500+573181658+542791717+531878965+537679550+552488498
1038+572122467+594745774+617769332+639006448+658054960+675538697+692474952
1024+709398429+726051952+741685612+756606908+773244688+793299560+815483815
1009+834951946+839753780+808175600+728037006+625908880+551779955+530213105
995+546697365+576437885+606198727+632114295+653429142+670924868+685621796
981+696139797+697101758+686861285+676010290+676139272+686331986+699519078
967+711552186+721699315+730981582+739913728+748000510+755044965+761431205
952+767330239+772767561+777623938+781881849+785904984+789995574+794185304
938+797943164+801232789+804624322+807773702+807790566+793660748+747339858
924+689647500+682773462+729869165+775409182+798951171+812427055+822547308
909+829939578+835112152+839065592+842494805+845567968+848197995+850624471
895+851073997+845461845+829889712+807612310+792019031+792446555+803994104
881+817977944+830435150+839983878+846849748+852943572+858559940+861872424
867+863486935+864943413+864844602+860430240+852879213+848636981+851906844
852+859153467+864571685+866402066+865725011+863992190+861971236+860522991
838+860286701+859604573+857317751+856532991+858659147+859233306+851159567
824+820478002+746012427+632920792+544953181+546410417+621414810+707702366
810+772214613+812418360+831096132+837068550+837589746+820838333+758258374
795+645141773+546156341+536321389+601463097+679711695+744220583+793331575
781+827594193+850286207+865341689+875731169+881926901+876622184+833285987
767+735527956+649066756+657512684+733538226+802067349+841680270+863111254
752+876735092+887762367+897117095+904429988+910176787+915048381+919776370
738+924653366+928867865+931547693+933137040+930410046+903670326+824618261
724+728719923+707872848+767274839+833447379+876071212+900394864+912345431
710+918071084+921806744+926287968+932541867+938901098+943308411+946296860
695+947933636+943982897+923839293+881968929+840949133+835080335+862890576
681+896824482+922379652+940485900+954214411+963929999+968940983+968283954
667+941643902+873073014+798688794+781176468+825176413+873791635+904869105
653+922483536+931848673+938581477+943775459+942392101+925043143+881856613
638+824147655+798029854+828988750+883616574+925262966+948559639+960839709
624+969673373+978453020+985986524+990867802+991727065+981014933+953716798
610+929816388+934019688+957537172+978067458+989111530+994519868+998083530
595+1001182647+1004545723+1009032414+1014384166+1018155134+1019021314
583+1020008307+1024153902+1029744381+1033160354+1033903151+1033835037
571+1033824761+1032731908+1028094892+1017801917+999874979+968488164+914481797
557+842923646+784115248+768337653+794633842+839275599+882789853+916045255
542+937984459+955146795+969989108+980288999+987691941+992007492+986271496
528+960304349+918499333+896121802+912594501+944240004+969165614+986452123
514+996957872+1001957328+1007083658+1013587286+1017894338+1020191437+1023782108
500+1027279369+1030646990+1037318465+1045353799+1047943709+1043900680
487+1042379975+1047156776+1051301383+1053291574+1055306666+1055381367
475+1055384529+1058377852+1060378584+1058071867+1058854189+1064991424
463+1067069821+1066759553+1070693626+1073741823+1069304010+1056154137
451+1024214111+960670873+882818772+824305885+784482496+749315359+730034443
436+739701613+769238812+802311018+833508313+860282419+882050745+901540416
422+920442555+944042645+963118165+964811659+967188927+980184720+994357685
408+1000346770+1004023999+1010968259+1015369314+1014347276
##END=
