##TITLE=DMK-HES-6
##JCAMP-DX=5.0
##DATA TYPE=LINK
##BLOCKS=1


$$ === CHEMSPECTRA SPECTRUM ORIG ===
##TITLE=DMK-HES-6
##JCAMP-DX=5.00
##DATA TYPE=INFRARED SPECTRUM
##DATA CLASS=XYDATA
##ORIGIN=Angelika Moesle
##OWNER=
##XUNITS=1/CM
##YUNITS=TRANSMITTANCE
##XFACTOR=1
##YFACTOR=8.6876006e-010
##FIRSTX=3997.453
##LASTX=373.96442
##MAXX=3997.453
##MAXY=0.9328240105739893
##MINX=373.96442
##MINY=0.6212876408381776
##NPOINTS=2559
##XYDATA= (X++(Y..Y))
2559A007045290A006962410A006877884A006854489A006970918A007318422A007982418
2552A008887232A009687898A009950875A009536684A008793237A008280936A008294108
2545A008677769A009014021A008974365A008634751A008403197A008547618A008940541
2538A009310549A009482963A009364270A008998653A008663842A008667546A009018549
2531A009462174A009775717A009958560A010155330A010398548A010498306A010261536
2524A009736541A009128598A008619109A008364432A008434619A008685042A008896288
2517A008984657A008951176A008839000A008844077A009212232A009814687A010101472
2510A009746833A009022392A008477020A008409440A008663567A008929289A009080572
2503A009173262A009220602A009100810A008793993A008535749A008559213A008814368
2496A009090245A009323996A009569410A009726180A009654142A009593972A009886657
2489A010285549A010202601A009537438A008811556A008682983A009203793A009552807
2482A009255250A008909667A009193914A009767072A010046653A010364930A010941107
2475A011079080A010557103A010105314A010126240A010240405A010238964A010331517
2468A010307504A009934135A009727073A010185312A010856238A010884436A010177971
2461A009226227A008489575A008427415A009655308A011811479A012778178A012023275
2454A010836547A010233544A010459198A010953594A010746944A009575378A008506109
2447A008835775A010342563A011456977A011417596A010738437A010192790A010198485
2440A010629691A010967865A010713257A009982161A009675342A010568767A011790965
2433A011758239A011017194A011125048A012109585A012733102A012504703A011709321
2426A010846221A010575765A010941725A011078393A010906940A011443598A012766309
2419A013554076A013490887A013235937A012939889A012448787A011999125A011859094
2412A011898887A011898201A011837345A011629390A011048892A010266682A010013172
2405A010793186A011998233A012475476A011868082A010759911A010075263A010379818
2398A011284083A011982178A012447895A012971038A013194017A012774199A012208725
2391A012173460A012398016A011997341A010788315A009427939A008909393A009843640
2384A011218767A011623422A011555705A012294005A013713523A014052862A012874231
2377A011337392A010520946A010934246A012346971A013950910A015135716A015717245
2370A015609255A014900182A014007512A013451300A013372537A013484438A013481213
2363A013211169A012683429A012039192A011445588A011136368A011520372A012761643
2356A014103770A014682143A014448598A013710024A012934126A012766583A013376653
2349A013942608A013718188A012941536A012249341A011965438A012086189A012641235
2342A013701105A014815037A015105048A014400984A013218510A012072742A011282368
2335A010896374A010730478A010803546A011497182A012590190A013228458A013531161
2328A014140544A014795004A014764885A014258552A013902539A013965112A014370247
2321A014905671A015448161A016035384A016466248A016169240A015114173A014221915
2314A014696208A016666792A018311003A018447809A017764465A017080229A016668507
2307A016426455A016149138A015736318A015275610A014930713A014669587A014314537
2300A014090872A014655797A015752098A016104130A015522533A014675556A014101437
2293A014062330A014418136A014588012A014394466A014371413A014750203A015011054
2286A014786566A014463898A014424448A014439336A014268157A014152071A014405169
2279A014973388A015558278A016060837A016576365A016927574A016620961A015553064
2272A014428153A014264315A015449602A016903561A017193845A016464464A015669150
2265A015212489A014858811A014308362A013579667A012903115A012436643A012139498
2258A011929624A011951236A012562815A013813006A015029234A015570559A015463598
2251A015015788A014501564A014101300A013897599A013983842A014455116A015088582
2244A015343738A015096884A014903474A015157534A015453512A015204051A014541701
2237A014033377A013913175A013952899A013822268A013409380A012851247A012388068
2230A012222995A012365496A012594718A012789636A013117175A013594349A013906794
2223A014008953A014371276A015267720A016270850A016686620A016265979A015427715
2216A014890782A014996509A015314511A015144292A014403454A013704947A013618911
2209A014013481A014253818A013989262A013470167A013201015A013451506A014059380
2202A014624786A014857439A014741284A014438513A014133889A013967856A013991046
2195A014109739A014167714A014165450A014310283A014733737A015215165A015381473
2188A015215714A015110537A015310943A015562395A015432449A014816273A014010737
2181A013474421A013595035A014437278A015530560A016105777A015806162A015045633
2174A014482491A014341157A014413058A014461634A014437895A014447020A014579504
2167A014755349A014825260A014861624A015122749A015619066A015974665A015880534
2160A015458109A015014759A014699501A014604066A014898329A015563904A016217815
2153A016475716A016379938A016290609A016409783A016536846A016338292A015836624
2146A015495501A015669836A016156067A016530260A016702949A016808881A016761540
2139A016371979A015826745A015587780A015777483A016040942A016057613A015853022
2132A015562189A015252214A015017572A014982856A015195542A015624760A016147011
2125A016507207A016481548A016101866A015583389A015122063A014877335A014975377
2118A015354373A015718617A015796763A015584693A015298113A015162748A015294065
2111A015690625A016218158A016623568A016728470A016652315A016704595A017002015
2104A017318164A017364887A017100537A016716396A016425083A016327795A016440588
2097A016728540A017058685A017197961A017002769A016625489A016427004A016642092
2090A017171959A017724192A018066344A018129052A018008026A017952865A018173168
2083A018531992A018614117A018217695A017579015A017049904A016794747A016834060
2076A017123109A017502036A017751223A017778187A017716301A017785048A018010839
2069A018163837A018094404A018002675A018146685A018434568A018615146A018674424
2062A018724646A018723342A018619743A018549145A018604375A018635111A018472851
2055A018182430A018009810A018183665A018677992A019138152A019243466A019121686
2048A019110091A019216160A019151325A018776789A018208021A017602822A017101017
2041A016932308A017358163A018320334A019206692A019313790A018669416A018056807
2034A018082330A018569316A018979665A019055890A018872773A018565954A018247677
2027A018089121A018257145A018663996A018898021A018624752A018056053A017780862
2020A018085417A018681354A019155167A019424044A019660402A019985128A020334073
2013A020546966A020575645A020599178A020803701A021066267A021059131A020681302
2006A020230542A020101077A020365496A020727612A020905516A020919032A020899479
1999A020841161A020722672A020650291A020718145A020871418A020989288A021028463
1992A021078136A021251922A021476959A021531846A021404851A021389552A021691431
1985A022170732A022594185A022930850A023296261A023780914A024380349A024942119
1978A025163520A024806067A023986603A023154035A022705470A022660531A022723102
1971A022610790A022294640A021939040A021676817A021536718A021533562A021681482
1964A021927377A022163666A022278517A022205586A022005728A021829403A021724089
1957A021614383A021520183A021581382A021872284A022372237A023015994A023613028
1950A023900911A023804927A023485347A023126660A022850234A022728042A022723239
1943A022706911A022572163A022246957A021725186A021178236A020819618A020592728
1936A020227935A019622324A018942411A018421120A018198622A018221880A018253783
1929A018148126A018036430A018088505A018274297A018522181A018872224A019330668
1922A019766129A020021354A019995900A019668155A019147620A018594975A018017357
1915A017261082A016238878A015032117A013773624A012593277A011712820A011417733
1908A011759747A012329682A012556640A012312186A012054286A012304846A013147500
1901A014297041A015437595A016342546A016832551A016918037A016962084A017370993
1894A018070323A018603894A018774182A018797646A018808692A018611716A018014476
1887A017116591A016147697A015156230A013991114A012594581A011135476A009741138
1880A008370058A007182370A006726533A007448573A009179780A011259246A013015016
1873A014148366A014783547A015092630A014962067A014253886A013179471A012057168
1866A010877232A009410169A007643079A005972178A005015702A005211375A006476454
1859A008246219A009876641A011039835A011760709A012150887A012220868A011953980
1852A011393034A010598955A009669785A008814368A008226460A007883759A007638345
1845A007500234A007678687A008311672A009233158A010074371A010585507A010770340
1838A010731644A010537893A010238690A009835818A009201255A008112226A006398240
1831A004122072A001647213I99374750I97365951I95396533I93336552I91214685
1824I89012890I86721902I84515784I82577515I80785794I78768556I76287660I73505502
1816I70827149I68478324I66287437I63886127I60994400I57434492I53025000I47683593
1808I41643543I35465383I29849953I25473805I22814800I21893314I22284042I23605929
1800I25911530I29414493I33991458I39153041I44397778I49427699I54107030I58352821
1792I62080547I65190724I67591074I69293466I70530552I71680780I72993679I74407434
1784I75645961I76470228I76849292I76909805I76776635I76535201I76315172I76292325
1776I76618766I77432399I78846290I80809807I83003233I84962908I86367126I87197842
1768I87589804I87626373I87444697I87378420I87679682I88169824I88427999I88224299
1760I87558382I86425306I84737940I82417931I79463633I75950927I71985541I67719030
1752I63466583I59779749I57362178I56831763I58373404I61533803I65493083I69601176
1744I73585225I77334288I80724870I83699064I86365891I88927952I91477869I93863948
1736I95822388I97278543I98453538I99631690A000887712A002083085A003068857
1729A003832680A004463675A005028669A005535689A006007169A006499299A007030745
1722A007587506A008187490A008803186A009268972A009452981A009464164A009527559
1715A009758633A010182087A010771849A011342812A011624383A011578415A011467612
1708A011527370A011753779A012060118A012422373A012771729A012930353A012797389
1701A012488649A012190063A012003859A012011337A012318910A012875740A013362520
1694A013453701A013204994A013064963A013440322A014278791A015107381A015457629
1687A015259418A014853322A014642967A014776617A015168374A015673198A016117715
1680A016329716A016320866A016305497A016429748A016638113A016837559A016999613
1673A017107329A017179643A017304305A017522276A017748342A017868064A017837739
1666A017706010A017610438A017690916A017940721A018213167A018375701A018384620
1659A018277796A018212687A018380778A018746875A019034003A019081069A019004845
1652A018914007A018768007A018622419A018691714A019012254A019331080A019472208
1645A019583080A019860397A020210989A020354038A020202275A019998850A020051473
1638A020396232A020790322A021020985A021126711A021245199A021368831A021397236
1631A021341663A021317238A021392433A021556065A021742613A021846281A021831736
1624A021812114A021884702A021984734A022048128A022171760A022436592A022709243
1617A022781077A022621973A022388634A022253886A022279546A022405032A022539093
1610A022677339A022872601A023069371A023106832A022974073A022906631A023095374
1603A023412963A023548810A023362606A023030470A022842550A022908964A023119181
1596A023343738A023525826A023603628A023544625A023437458A023385452A023424971
1589A023657418A024206289A024913851A025376550A025394732A025137448A024868021
1582A024729980A024703429A024612522A024333901A024009999A023830038A023726576
1575A023587643A023558758A023836967A024390847A025063214A025700315A026137697
1568A026344004A026507636A026723136A026753873A026383385A025843845A025614006
1561A025858253A026294674A026616038A026787011A026868518A026862001A026871400
1554A027119284A027642770A028234864A028746685A029169935A029437441A029427973
1547A029149626A028743050A028397261A028335308A028646311A029067845A029219881
1540A029116969A029136316A029437372A029751806A029816024A029692940A029574521
1533A029526220A029572394A029822954A030303216A030789927A031042614A031125356
1526A031295300A031642804A031991886A032080529A031783864A031244667A030762758
1519A030527773A030587668A030970780A031541263A031871272A031616184A030952667
1512A030388497A030200577A030256562A030361190A030552884A030905533A031224633
1505A031229161A030954931A030709449A030703068A030901005A031138940A031261545
1498A031207618A031025530A030826221A030728385A030808520A031093110A031597110
1491A032297058A033080571A033836984A034497206A034884299A034736309A034018660
1484A033050109A032288619A032081420A032461925A033075357A033458400A033428350
1477A033074671A032505629A031804721A031138940A030680976A030417175A030166273
1470A029823022A029414525A028890834A028113289A027168477A026448564A026291381
1463A026695419A027408402A028173115A028888913A029565053A030149258A030550071
1456A030843854A031205628A031569941A031668944A031490286A031360616A031439722
1449A031477662A031252625A030950335A030904778A031192524A031622496A031970137
1442A032179325A032401344A032760580A033104379A033191924A033056284A032921948
1435A032868433A032838725A032859033A032987606A033100605A032963319A032574307
1428A032280043A032444842A033069800A033808374A034252823A034197524A033753556
1421A033264169A033066164A033311921A033902437A034469078A034587702A034202395
1414A033705187A033507524A033750743A034406918A035250807A035767706A035548844
1407A034776994A034067510A033934546A034412681A034968413A034960043A034410897
1400A033957324A033917188A033972830A033830878A033608997A033567969A033863604
1393A034418444A034810681A034649313A034181195A033941476A033971801A033982366
1386A034007271A034273542A034676414A034911262A034878330A034511272A033526804
1379A031883004A030274400A029683403A030364209A031600472A032586862A033137517
1372A033488177A033810638A033973104A033696679A033021293A032444087A032383505
1365A032757424A033237754A033586356A033668687A033513631A033373943A033406189
1358A033415108A033182593A032858553A032772449A033017451A033407355A033791702
1351A034228741A034677374A034671405A033770228A032390160A031643765A032150029
1344A033368729A034225859A034158074A033492636A032961535A033007640A033629717
1337A034707974A036136273A037687177A039025461A039820912A039851581A039265318
1330A038624648A038284829A037928337A037158340A036271090A035978061A036567206
1323A037608688A038310900A038141572A037289245A036391087A035688669A034958122
1316A034489180A035252728A037467285A039803623A040758384A040197164A039069645
1309A038259855A038079071A038309116A038556794A038747870A039056404A039392655
1302A039539273A039652752A039965197A040192018A039844514A038945532A038063977
1295A037823983A038471239A039680813A040780819A041339433A041487010A041441317
1288A040875362A039312384A037231339A035997203A036336405A037542343A038562694
1281A039267651A040291501A041971457A043748427A044625660A044132774A042802448
1274A041837945A042276424A043941081A045271544A044858930A042968687A041106643
1267A040569984A041555962A042973696A043374440A042943782A043825269A047199933
1260A051053008A052620720A051281612A047944820A043906159A040915293A040689638
1253A043313104A046688043A048445596A048101591A046740117A045366979A044433898
1246A044233012A044767200A045607865A046393779A047066078A047471762A047344287
1239A046751163A046067201A045416309A044532489A043299794A042119172A041561451
1232A041820998A042636758A043612650A044464223A044985102A044964108A044403505
1225A043808529A043851546A044583191A045361216A045610815A045221116A044347520
1218A043450390A043321474A044354449A045928199A047028617A047222300A046715075
1211A045900550A045238406A045283962A046282633A047573920A047859538A046539230
1204A044568715A043553098A044144506A045587831A046628353A046730100A046456282
1197A046580876A047071841A047380169A047313687A046915344A046117697A045465227
1190A046234950A048551185A050305994A049522618A047138185A045848407A046768109
1183A048492936A049275077A048938962A048323266A048165397A048900061A050473468
1176A052091128A052719860A051978198A050429765A049139781A049038994A050458717
1169A052907437A055361301A057068908A057809334A057372365A055735014A053895953
1162A053152164A053149557A052267933A050372064A049210654A049859625A051656079
1155A053595584A055083779A055340856A053800450A051202232A049174634A048856975
1148A050227643A052304433A053851838A054379028A054446471A054710066A054960626
1141A054612024A053675650A052645831A051721944A050644922A049408590A048853201
1134A050028402A052698111A055094893A055884170A055605412A055560747A056099258
1127A056526692A056236888A055262573A053808683A052040769A050476076A049771805
1120A050024766A050886425A052183339A053757569A055033625A055351353A054628764
1113A053378780A052135312A051063230A050167541A049651466A049736472A050218381
1106A050622212A050703788A050500500A050049946A049162833A047585309A045541383
1099A043892436A043453615A044306697A045886623A047373445A048085331A047999707
1092A047704209A047630454A047651448A047537901A047341954A047196777A047219487
1085A047564521A048098915A048195380A047354098A045842781A044357880A043250189
1078A042366645A041477199A040624528A040164986A040475029A041521726A042897814
1071A044259975A045503030A046547189A047255369A047650008A047991405A048508510
1064A049157756A049730434A050081094A050171109A050044045A049891116A050056395
1057A050767732A051686610A052073702A051786092A051465484A051722287A052521100
1050A053244375A053314424A052760957A052169342A052075485A052464772A052912308
1043A053061120A052831761A052405220A052199393A052599520A053360873A053776093
1036A053583508A053091926A052774610A052815295A052959648A052977006A053073264
1029A053580695A054316594A054750888A054720083A054428632A054079413A053754482
1022A053540765A053562720A053791393A053978901A053949811A053774035A053561073
1015A053310445A053008909A052645694A052131264A051416566A050652606A050098658
1008A049831427A049597676A049102938A048402372A047903380A048054594A048892995
1001A049874787A050541734A050896030A051070503A051167310A051320994A051633576
994A052005504A052161178A051945540A051516735A051227137A051348575A051718170
987A051853055A051722218A051645102A051635565A051502258A051302538A051269880
980A051395777A051463700A051422398A051313447A051091566A050744473A050343523
973A049878218A049205302A048227283A046873149A044945034A042320677A039167962
966A035756729A032323541A029183039A026653498A025107398A025102526A026620360
959A028899135A031459687A033939829A036052639A037940000A039768358A041307392
952A042410143A043389946A044591080A045778152A046419988A046570653A046534976
945A046431308A046363386A046578200A047258800A048137131A048731969A049145750
938A049980720A051298902A052177164A052258877A052077750A051951646A051869796
931A051881117A051953499A051812370A051339312A050867968A050709414A050524102
924A050122397A049967752A050449867A051672889A053391335A054892566A055660779
917A055973292A056272702A056491495A056327040A055869624A055428813A055203158
910A055144292A055078770A054945257A054770236A054693188A055174548A056476264
903A057329415A057193981A057087844A057811255A059044980A059705478A059804961
896A060000633A060444189A060856117A061244375A062171761A063672099A064805175
889A065320427A065673489A066219478A066948516A067677485A068467928A069516134
882A070598919A071297563A071707296A072298361A073176486A073741823A073584228
875A072778554A071285763A068536468A063197257A053260292A036862978A014256219
868I89633731I69113916I55140142I44468719I32473556I18238039I05136902
861H97168393H95928768I00752109I09999555I21899283I34959393I48166051
854I60794062I72096961I81865835I91246794A001626493A011479893A018112518
847A022289700A026181468A030542729A034349218A036958825A038975583A040785279
840A042236425A043582188A045809300A048569984A049640831A049319604A048744868
833A048384946A048573277A049518227A051064671A053022562A055376258A057844050
826A059954734A061906313A064065708A065654964A066244795A066238620A065937358
819A065310891A064168759A062393573A059507061A054456213A046737372A036048728
812A018974176I90195089I49271340H97877466H37496448G80181628G43342371
805G31405594G37302595G53778877G79125120H13297551H42212347H53645877
798H56649368H60848779H69890399H83286967H97735377I09390308I17074913
791I22742623I29278578I38565063I49386123I58444002I64578116I68524978
784I70659536I70508323I67491660I61995472I55588021I50429458I48683773
777I51632445I57803196I63698756I68000120I71694433I75845887I80324400
770I83842182I85686046I86389012I86903167I87974014I89478675I90881040
763I92402648I94425855I96990180I99845475A002462423A004135519A004560620
756A004125914A003358043A002307299A000706516I98837405I98039415I99280550
749A001885903A005117243A008891966A013038961A016976972A020186289A022384517
742A023312795A022641801A019816213A014154129A006285241I98618543I92969837
735I90148366I90713498I94368635I99536255A004505801A008811968A012980094
728A017119061A020437055A021825698A020112329A015006457A008601751A004605490
721A005419054A010016671A015699269A021006577A025899144A030557412A034755931
714A038216082A040835981A042513948A043199145A043022271A042226134A041165578
707A040346730A040167387A040727647A041971183A043563183A044817559A045257411
700A044945789A044011748A041999038A037608071A028624700A011612376I82512131
693I39619925H86719880H32140085G84575546G49459675G27729257G17236765
686G15142960G19707233G30950786G49105927G71610871G93470754H11537871
679H26076090H38783413H50910373H62527364H72851695H81174774H87446517
672H92235690H96405942I00530639I04128831I05590406I03709151H99654916
665H96685730H97559670I02461705I09571367I17072100I24054768I30254058
658I35752443I40767820I45402623I49580079I53167912I56065264I58166411
651I59278767I59198357I58035711I56444877I55321887I55164361I55817175
644I56880887I58174438I59679031I61276245I62775143I64106635I65335214
637I66524549I67661535I68703635I69671707I70622557I71516736I72228828
630I72703807I73005892I73244994I73531024I73887927I74128127I73941854
623I73181187I71970927I70529043I68944933I67167620I65153401I62964778
616I60729158I58550003I56497294I54711131I53487355I53162012I53866076
609I55450255I57629478I60128075I62747151I65406705I68094595I70742965
602I73210826I75410633I77394184I79272763I81051105I82603175I83837928
595I84789532I85513631I86020651I86350248I86604856I86921554I87466652
588I88357263I89528622I90764954I91910379I93015394I94242806I95591039
581I96761026I97412330I97510784I97254461I96689604I95538073I93423960
574I90282977I86594839I83104294I80269924I78195329I77172577I77875063
567I80653859I84853751I89171925I92618286I94916408I96164678I96498940
560I96160836I95681740I95772578I96861332I98724200A000731490A002470931
553A003984717A005476960A007052013A008706654A010344073A011784859A012889599
546A013632770A014023772A014091146A014000720A014028026A014324828A014845158
539A015534814A016400315A017350685A018173442A018707631A018847593A018361431
532A016883939A014217318A010717922A007375916A005251305A004552661A004277677
525A002804095I98746498I91336123I80269787I65507629I47716800I29406397
518I15182200I09538914I13609068I24409338I37394321I49123625I57532396
511I61182114I59762939I55192011I51065325I50394193I53907378I60366972
504I67976930I75373584I81866384I87300892I91771858I95364904I98128675
497A000185363A001744294A003006629A004086189A004973919A005586528A005915302
490A006131831A006475973A007001655A007484524A007638688A007384561A006841727
483A006130528A005285815A004302101A003157500A001838906A000453761I99281373
476I98600293I98453744I98677958I99140725I99804035A000564222A001221357
469A001690642A002183528A003145150A004947299A007560542A010562866A013483340
462A016048351A018147097A019746507A020863459A021381799A020570568A016865757
455A009098342I98831093I90667049I88718558I92852448I99357323A004827165
448A008429405A011027623A013473186A015953808A018279649A020309785A022068917
441A023614949A024936767A025992864A026803752A027474128A028080632A028563569
434A028815913A028861332A028862567A028943319A029055152A029083968A029028257
427A028938585A028744628A028397536A028110408A028152808A028476642A028798829
420A028944623A028909084A028713548A028405700A028154866A028141418A028256133
413A028029449A027026388A025278302A023298182A021780690A021267565A021840175
406A022812293A022623276A019576905A013568347A006992255A003001689A002830921
399A005502482A009674176A014676037A020054423A025238784A029788649A033508965
392A036348480A038366267A039687125A040409095A040592556A040246562A039114859
385A036428135A031057913A022179377A009934684I95535603I80849806I67993877
378I59196710I56412563I60203957I68805588I78806291I87044364I91975695
371I93860175I94245619I94970678I97064552A000354690A003907875A006654562
364A007804996A007048034A004576811A001104105I97816711I95984031I96344365
357I98791917A002561563A006710822A010664270A014499437A018595181A022762415
350A025645085A024930181A018023875A003017126I80341483I54061268I30262773
343I12384125H97499911H78231797H50718954H21963606H06640226H13160539
336H33833695H51522090H55048448H46227475H34574053H29224482H34958262
329H51462126H74249875H97378885I16375377I28870356I33869335I32399596
322I28259325I25539532I25026407I24737632I23791516I23789526I26388499
315I31300139I37020746I42349116I46690823I49321836I48860373I44174730
308I36479697I29952935I28738421I32929599I38440332I41029288I39628020
301I35877997I31923039I29429930I29842406I34207165I42303492I52421790
294I62349219I70477998I76226323I80012710I82850853I85570371I88370573
287I91043438I93320497I95072425I96518288I98159344A000304879A002753462
280A004989425A006596451A007442947A007395812A005528897I99330291I85561726
273I64092296I41541522I28461515I30656039I44457604I61461421I75829970
266I86146823I92923595I96292428I95248064I88239668I74629315I55891341
259I36007119I20475237I12990558I12011853I12205124I10744922I10972566
252I18269119I33178375I49783093I59597112I55963517I37159405I09004727
245H84109244H74311829H82240270I01403138I23014246I41364991I54405204
238I61219368I59084947I42420333I06791541H57905185H15216129G99963006
231H17411201H53717093H90274162I17518401I35280825I46042469I51213931
224I51420170I47733129I42446473I38792982I39543906I45449689I54785366
217I64665866I72941811I78861659I82629863I84819721I85933724I86275327
210I86117801I85613869I84274418I81127741I75191427I65565329I53311373
203I43398284I41742409I49101739I58949787I61606871I50792261I27789972
196I01242937H82548392H78949857H89513427I07737109I27072941I43868392
189I57083900I66918707I73775340I77881169I79408128I78269976I73612874
182I64829636I53760487I44310164I38986390I37267121I38083703I41943432
175I49424132I59313002I69358987I77989297I84759963I89764568I93219711
168I95508776I97185921I98777098A000676123A003075032A005683541A007714363
161A008583569A008311192A006435563A000681543I88218330I69609204I51170845
154I41318543I43479105I54137355I67503049I79751859I89502688I96533108
147A000883870A002969511A003936073A005144893A007095031A009268149A011060760
140A012285635A012926099A013098719A013070932A012756772A011541572A009068908
133A005542207A000605661I93025685I82987796I74049570I70943303I75222850
126I84071953I93164961I99856247A003907532A006106720A006876718A006185209
119A003986638A000228038I94914899I88616811I82607154I78261400I76421584
112I77155082I79747331I82842688I84602506I83130571I77306570I66620053
105I50201539I28062623I04411637H87757383H84576195H93414185I06463523
98I15659787I18330387I18578339I22478891I31971408I44640035I57818907
91I70039725I79907121I86478478I90360642I93205646I96340523I99972402
84A003190020A004516436A002943097I98249290I89438813I73313397I47426722
77I15817244H88254180H71800676H65110831H62515838H62586573H69522313
70H85463995I05744913I24584428I39654984I50593021I58067340I63875698
63I69653525I75579479I80472458I82371002I79614435I72263269I62580294
56I55038670I54079998I60038061I69125374I77360840I83377700I87577180
49I89831188I89752562I88290164I86744199I84870355I82037014I79897721
42I80918415I84467072I87191050I87349468I86410211I86426198I87941013
35I90574565I94054062I97283414I98172585I97428385I97821376A000048763
28A002780425A004801094A005812457A005176110A002405203I99260928I98833837
21A002493572A008966475A015076026A016688060A012651526A006851676A002545166
14A000099808I99489670A001312264A005099954A006917540A000014390I82610173
7I63744381I53301562I53231375I61106575I74416353I88987298I98153786
##END=


$$ === CHEMSPECTRA PEAK TABLE AUTO ===
##TITLE=DMK-HES-6
##JCAMP-DX=5.00
##DATA TYPE=INFRAREDPEAKTABLE
##DATA CLASS=PEAKTABLE
##$CSTHRESHOLD=0.93
##MAXX=3997.453
##MAXY=0.9328240105739893
##MINX=373.96442
##MINY=0.6212876408381776
##NPOINTS=45
##PEAKTABLE= (XY..XY)
2926.5548895699767, 0.8009040907842389
2889.725060375293, 0.8481637788445394
2872.7266776700544, 0.8577949354019052
2850.0621673964033, 0.8312572198337858
1590.7653153166534, 0.7783471302434061
1512.8560612509773, 0.6354159677277756
1474.6097001641906, 0.8241785724212664
1436.363339077404, 0.8670567820577648
1413.6988288037528, 0.8602013538550619
1344.2887660906958, 0.6212876408381776
1314.5415963565283, 0.7790047485959438
1287.6274904065672, 0.8298086475722216
1238.0488741829554, 0.8280690867348407
1178.5545347146208, 0.8489285066248746
1164.3892157935884, 0.8650085281833043
1104.8948763252538, 0.7901710823677348
1090.7295574042219, 0.8256645161343316
1045.4005368569192, 0.8674167345446646
1012.8203033385453, 0.8589591937711935
906.5804114308053, 0.8308930356166337
881.0828373729473, 0.8652711465306018
851.3356676387803, 0.7007768120069335
841.4199443940574, 0.7203971107357889
821.5884979046127, 0.8025514440351316
806.0066470914776, 0.8068508463522652
796.0909238467552, 0.8074516017525958
756.4280308678653, 0.8066102814790909
735.180052486317, 0.7923194721329911
732.3469887021106, 0.7912188130814153
718.1816697810787, 0.7595671970207497
701.1832870758403, 0.6949759090903403
685.6014362627047, 0.8155858473698989
658.687330312744, 0.8181481917473845
647.3550751759185, 0.7635965305043114
624.6905649022669, 0.8142602402759872
590.6937994917903, 0.8177799538957925
553.8639702971068, 0.8435167621708781
532.6159919155589, 0.848276073901135
515.6176092103201, 0.7684844691115317
475.95471623143067, 0.7493193111718303
450.4571421735727, 0.8288665963072799
433.4587594683344, 0.8512960028898232
426.3761000078184, 0.8569537949617326
416.46037676309606, 0.866525943598303
379.63054756841257, 0.8281293465388825
##END=

##END=

