##TITLE=X9684
##JCAMP-DX=5.0
##DATA TYPE=LINK
##BLOCKS=1


$$ === CHEMSPECTRA SPECTRUM ORIG ===
##TITLE=X9684
##JCAMP-DX=5.00
##DATA TYPE=INFRARED SPECTRUM
##DATA CLASS=XYDATA
##ORIGIN=Default
##OWNER=
##XUNITS=1/CM
##YUNITS=TRANSMITTANCE
##XFACTOR=1
##YFACTOR=8.5497548e-010
##FIRSTX=3996.5625
##LASTX=399.65625
##MAXX=3996.5625
##MAXY=0.9180229296605246
##MINX=399.65625
##MINY=0.5045428873411707
##NPOINTS=1765
##XYDATA= (X++(Y..Y))
1765A048687216A049123702A049577686A050034319A050101594A049841557A049745420
1758A050000368A050011592A049499326A049533347A050204773A049975898A048681848
1751A047669376A047546957A048422089A049339539A049068906A048843447A049551264
1744A050399208A050795189A050690826A050509846A050715226A050719758A049105157
1737A047125390A047070594A048432128A049821061A050689571A050735234A050685736
1730A050971080A050456095A050231055A051653521A052505438A051176042A049465165
1723A048471657A048953945A052759829A058380882A061233552A059968503A055809931
1716A051224982A050205121A052787436A054072005A053865648A055773261A056830698
1709A056350223A055856292A053402810A052675613A055319416A059276511A062318318
1702A061132256A059592808A059332423A056185973A053035830A055294040A063574025
1695A072636421A068375857A057140373A052284790A053424143A056908919A060928339
1688A064993632A065147005A060675483A057471101A055903907A054531776A054257796
1681A055042996A059042129A064902166A064826316A062262615A058672640A052620259
1674A049666224A052094120A056548213A058931840A062149677A063000828A058230995
1667A053870250A049665039A046656835A046522215A047551488A048684288A049050292
1660A048954084A050519397A051222542A048875934A047825677A050568685A054675040
1653A055829172A054430271A052641313A052459566A054584759A055242171A055107343
1646A060366854A070402891A073741822A070384835A070511786A067705756A060034941
1639A058493960A064023756A070084921A068346855A059986977A053080448A051181341
1632A052726365A054499358A053793703A050970801A049218375A051209506A057279106
1625A061541412A058016691A052763942A050950863A051633373A050848870A048358440
1618A046908437A047631242A052795104A061386855A064187238A057145392A050366790
1611A048709734A051446049A057829853A065833559A067379629A063972725A062605892
1604A057235534A049376070A045410261A044778782A046410950A050144051A052113501
1597A051471216A055808885A065069621A065763356A055374491A047005968A044188226
1590A043601434A042779912A042610435A044183415A048371267A054007170A052094538
1583A044154065A040743745A043718904A048723677A049212031A047708556A047305324
1576A046841580A046003954A043211797A038950256A036310357A035780523A035950070
1569A035851702A035251944A034075572A033992890A036440794A036677267A031607311
1562A026821932A024581500A023424997A022005948A020344081A019859979A021846509
1555A024877789A024042881A018705498A014094128A011216849A008682010A006871790
1548A006135041A004819240A002553013A001222711I99978297I96883508I93299458
1541I90444906I87903235I85801536I84393920I83478771I82606426I80400503I76565967
1533I72761478I69767357I66925632I63843392I60834350I57991442I55006732I51635592
1525I48461746I46233862I43874427I39805299I35135786I31559614I28481974I24862858
1517I21056417I17793335I14890959I11921238I08750180I05089095I01300849H98397288
1509H96107846H93030067H89402236H86519031H84235864H81952766H79772079H77646260
1501H75623060H73817580H71809089H69587271H67664531H66242622H65021146H63580275
1493H61722300H59853728H58623815H57645992H56281669H54878305H53837251H53050098
1485H52530860H52474531H52784205H52736172H52091586H51524524H51365156H51274944
1477H50995108H50887608H50915145H50821936H50967919H51219102H51264627H51461153
1469H51849466H52328827H53044033H53634241H54077001H54724932H55533417H56523162
1461H57313800H57783122H58835540H60448815H61421480H61762595H62734283H64392525
1453H65734749H66737390H67851506H68999852H70232135H71707933H73347352H74957699
1445H76230835H77317135H78726493H80656973H82697741H84084164H84787659H85554454
1437H86810509H88198188H89370864H90602938H92082709H93641677H95294690H97087412
1429H98751022H99888632I00826299I02517725I04468770I05802977I07375330I09273879
1421I10577270I11723735I13021968I14016314I14939899I16318583I18184506I20003511
1413I21341203I22369918I23465559I24868156I26609917I28309430I29757968I31225888
1405I32330872I33055838I34339780I36047450I37393508I38218237I38969974I40410077
1397I42527114I44616752I46266698I47088429I47208618I47607527I48734540I50236551
1389I51709490I52863413I53441281I53970976I55017538I55810547I56424178I57753017
1381I59380235I60697710I61685572I62430477I62924687I63491331I64602867I65735179
1373I66444390I67074962I67702049I68504957I69626742I70695404I71268043I71679710
1365I72966162I74659052I75588074I75999881I76349990I76557880I76684204I77415584
1357I78974691I80161032I80085740I79632801I80021811I81223768I82457515I83004848
1349I83139886I83483929I83775199I83730302I83466570I83740272I85259571I87240594
1341I87924289I87105974I86884280I88040783I89197843I89455580I89159291I89101079
1333I89340480I89294887I88820824I88538269I88797819I89564893I90896032I91702356
1325I91155999I90569696I90762109I91032604I90843536I90536442I90765595I91093744
1317I91014478I91107687I91289852I90895614I90445811I90768872I91448384I91702565
1309I91790755I92370784I93062915I93252330I93218797I93257768I93165117I92650062
1301I91918891I91625669I91736447I91603849I91204800I91059374I91289782I91237775
1293I90532538I89575350I88747066I88319364I88245536I88230408I88176309I88032347
1285I87537789I86897456I86768484I86941865I86731395I85943546I84678915I83177323
1277I81686606I79486121I75873069I71306595I65811587I59203299I51895560I43993638
1269I34585107I23411251I11779856H99649997H86503276H73755812H62797864H55890916
1261H56556137H64360944H74951007H84900876H92720811H97788606H99675234H98526819
1253H95424848H91649082H88240296H85855693H84402832H82863524H79822763H74548193
1245H67070280H58104787H49405745H42745798H39638948H41678600H48246802H56214045
1237H63219221H67886852H68644445H64607596H56776716H46861076H35240765H22592227
1229H10222828G98844359G89569261G83324049G80506307G81419156G85644096G92399204
1221H01022535H11007889H21690742H32346825H42369197H51141649H58713817H65245069
1213H70800173H75744364H80216444H84456930H88716310H92751346H96391029I00181923
1205I04534092I09231911I13613431I16838657I19324765I21763885I23634340I24531642
1197I24575074I23448270I20776999I16911510I12492622I08741953I07324368I08493419
1189I11180725I14214932I16842701I19523802I23252510I27978911I32809814I37544301
1181I42459630I46815983I49986134I52276064I53911021I55080630I55883329I56465659
1173I57388965I58642650I59708593I60808766I61932363I62493639I62595911I62575206
1165I62764203I63321923I63958840I64505754I64884168I65114506I65177250I65062638
1157I65216569I65869241I66517870I66829566I66959375I67180720I67616091I67853749
1149I67864206I67973938I67956858I67895230I68171580I68310871I67725473I67082213
1141I66953170I67017099I67016332I66834446I66629553I66552239I66394335I65955339
1133I65528125I65416651I65490897I65733645I66038858I66368540I66719275I66870628
1125I67009709I67308508I67475894I67539542I67777481I67794631I67254479I66672776
1117I66441113I66388826I66386317I66196692I65571558I65021715I65069260I65406751
1109I65755396I66397053I67119580I67347618I67295401I67052445I66532231I66445436
1101I66982590I67323357I67275184I67130177I66753437I66441044I66578382I66785157
1093I67264587I68248057I68703297I68273712I68006774I68431756I68774197I68673737
1085I68859249I69698548I70644024I71149318I71426645I71271250I70303745I69378487
1077I69353738I69591536I69249165I68987106I69479155I70113213I70117396I69654976
1069I69684675I70336092I70539172I70152812I69729223I69595091I70288477I71458086
1061I72295224I72311328I71932497I71919878I71682569I71265324I71271598I71384745
1053I71437102I71356442I71098635I71092640I71513510I71652521I71354490I71064545
1045I70236121I69263666I69510318I70284643I70193804I69419409I69188722I69766451
1037I70036039I69949244I70022723I69568739I68827459I69025031I69667386I69804306
1029I69832401I70012684I69851782I69278724I68496173I68051461I68458039I68397596
1021I67134569I66388409I66960142I67456652I67152067I66864214I66821548I66879133
1013I67177932I67286966I66841696I66033002I65216290I64763491I64567243I64587391
1005I64913308I65151316I65481765I66105017I66342536I65810332I65131935I64739368
997I64198590I63762871I63739028I63708075I64002760I64599312I64542146I63952426
989I63487706I63350018I63785249I64608584I65207157I65191193I64697470I64285455
981I64085861I63970831I64125458I64283363I63941690I63200549I62170092I60480687
973I57788780I54610890I52244135I51113078I50214242I48931067I47184287I44806586
965I43216735I42797050I41459846I40380658I40824603I41381765I43156780I46434223
957I48666847I48700589I47346305I45830840I44549547I44428452I45358590I45413246
949I44529469I44136485I45130343I46958132I47267527I45569896I44759598I46460506
941I49065966I50607017I50944786I51211725I52044680I53405656I54987700I56181221
933I56831802I57284949I57886382I58680784I59458944I60306400I60902602I60936484
925I60633224I60146961I59901495I60500277I61396185I61403156I61221827I61846614
917I62772290I63457449I63886755I63666176I62403287I60992186I59910836I58988855
909I58564360I58608977I58532710I58382892I59262277I60924144I61669189I62068586
901I62989731I62936539I62378470I62702645I62842005I62624843I63296617I63519077
893I61626733I59967933I60097324I60561486I61061762I62197768I63753529I65216639
885I65657307I64425652I62115644I60181052I59835056I59394806I58465574I59976020
877I62558683I62901821I62407262I63118216I62788534I60928606I61330025I64934711
869I69628903I71120805I67599220I63655998I60787642I58006849I57526373I58846358
861I58022465I54550935I53215962I55658568I58941031I60638173I59725116I57970737
853I56808308I55565847I54387942I53608039I53250471I53777517I54693921I55149718
845I55361303I55297305I55435201I56183731I56265298I54766843I52776270I52468617
837I53967769I55290194I55097501I54361101I54394843I53627351I52081838I51772931
829I51840065I51849338I52653013I53588380I54547310I55685478I56287188I56178224
821I55375176I53582733I50606459I48180236I48521910I51109034I54399933I56539627
813I56728903I57214329I58437549I58093784I57338700I58299791I58549023I55983789
805I53873933I55271092I56477162I55709599I55542144I54218186I52951185I54147216
797I52100522I47187146I47911485I52461924I53878604I53110065I52620247I53760297
789I56538162I57064581I55165125I52803877I49645019I48804604I52003200I54342975
781I53155728I50643966I48033625I46075609I46792419I50442280I53594585I54724526
773I54683882I52907682I50581849I48180864I45951795I46098964I47835007I48465859
765I47988938I48005042I48494302I47934839I46584877I47753929I52261424
758I54384038I50132675I45260361I44621841I45500460I44998163I43780520
751I42689480I42608192I44417228I45857540I45576449I45346041I44497958
744I42866068I42831629I43681663I43040495I41627720I41199182I41885178
737I43081209I44190236I44380767I43340828I42697288I43116415I42793983
730I41971276I41916619I42263940I42618371I42368442I41598579I41832194
723I44257999I47361362I46662610I42757034I40908052I40962430I40793859
716I40618804I40453789I40309269I40306760I40483766I41988705I44876650
709I44970905I41717862I40196889I40734740I40951972I41625838I44174968
702I45501436I44240988I42678883I40342663I37855788I36862349I36812294
695I36795282I37505819I38291159I37312778I35427753I34971120I36402786
688I37488878I36491744I35495586I37321074I38991586I34807777I29333544
681I27267748I27086489I27663102I27753871I26042924I25319491I27594432
674I28000801I21671722I13301317I07049412I04032842I01350626H96548933
667H91590521H86497350H82878093H82385697H81771089H77632386H72065989
660H68255017H66616993H64972275H65582352H72837526H80314812H79554430
653H76735154H75252245H75869711H78524808H84440268H95283815I04816858
646I05038970I03403176I05745950I12073774I20397401I26855802I32601018
639I40457344I44231507I42149328I36163177I31242202I31107303I34017906
632I41126748I48299937I42519097I33786103I31597679I33819009I34887183
625I35814044I37939795I34954458I30659942I30494090I29566601I25995657
618I26047735I33705512I44861731I41998116I36825818I38232249I33598012
611I24142492I20321410I23057936I30159318I32316162I23981381I18182763
604I18466364I20197598I21364976I21384566I19353488I20070507I22856180
597I20142313I16053945I15752358I17010784I17327081I17231502I17390522
590I17358592I17310976I17576382I17792708I17995509I18188619I18041521
583I18050862I18408291I18967894I21033829I26336494I30488443I27097504
576I25082948I27520186I27046890I24835042I25948739I32825500I47257837
569I50941370I38440906I30030624I26646168I25914718I26818365I31083252
562I39872086I50442838I49237255I36626921I31660701I31706504I28785235
555I27265517I29999531I34052973I38769752I40699255I38128583I35242660
548I31142579I27937361I29947872I38828731I46063479I35551775I24621923
541I22890061I25747542I25754374I21501478I20431422I23773142I24044682
534I18581324I13688444I11599433I10602578I10763968I13346492I16642827
527I14127787I05088188H98644358H95535068H88705853H78769578H72056160
520H61470559H35382078H12855826H03108688H01067432H02600953H03847249
513H04838597H06821014H08887297H06299894G92852003G76838460G65624866
506G53999953G34795623G06199632F75368227F59112076F63761929F75179718
499F81946747F91187475G08999874G31985480G52800855G67059114G73862812
492G76844385G77869057G75142432G66709283G53545272G41367171G32774863
485G26820223G23214771G21452654G18902687G13381953G05797167F97585363
478F90262356F86289645F85098494F86115288F92168784G03733253G17819385
471G33767675G50677056G65668787G77119551G85088955G89843939G91683509
464G91840438G92354307G93618520G94810995G96838657H00898164H06952287
457H13970499H20601584H26322609H30914250H33931726H34808532H33320535
450H30526983H27206038H23149390H18567230H13723011H08478140H02808077
443G96906769G91052588G85420170G80551343G76851217G73431136G68974534
436G61571772G47990308G25519410F94422253F60615481F35940472F29936264
429F40493979F56892698F70968860F81915236F91537863G00104307G07232530
422G12691147G15384448G13747609G07705476F99895928F94310848F93490441
415F97725002G06034546G17028538G28918715G39117049G45365677G47543714
408G47542111G47811629G49718614G52587458G53234343G49336785G46144185
401G49911376G57250696G62396572G64695913G65485297G66193044G67632799
394G69439324G71478977G73746807G75612033G76830582G77292514G76183835
387G73266401G69531696G65781655G62275965G59298018G56967235G55920602
380G58445891G66664178G79464834G93411118H05599327H14673784H20612530
373H23970633H25570035H26399714H27005606H27166858H25679627H21191722
366H13018262H00309072G82513263G60202361G34625937G07547641F81644951
359F59959253F44286128F35162312F31514752F30373029F29599332F29333926
352F30641502F34614004F41885839F51653473F61465028F69508191F77199502
345F87635564G00995544G13474814G20888589G21014285G13306173F98102370
338F76698111F52453175F29686684F11178249E98133451E91232848E90125564
331E92933616E97614074F03552958F11110277F19587695F26416631F29177277
324F27844046F24488104F21770682F22323661F27319859F35815751F47331350
317F61828592F77565157F91371592G00094198G01882668F96878941F88051553
310F80644610F79101886F84087347F93980259G07920617G24483096G40850165
303G54816317G65578645G72696132G75106041G71690702G63736565G56480903
296G56079693G64015913G75645496G85719040G92937474G98244949H02355835
289H05490223H07831812H09740191H11761091H14011492H15742795H16504850
282H16454446H15892403H15335868H14446165H11747636H06108805G96695393
275G81891684G61272138G37177507G13349257F94144578F82171718F76043836
268F73161119F73305499F77634454F85709128F94678107G01414740G06110187
261G13100583G26099230G43773944G62097773G77117459G85590346G84246867
254G68034706G35798613F97989989F72321332F71224157F94270413G28358904
247G57839649G77076048G88582794G94869695G97176148G95263237G86107771
240G67797884G44860940G26425497G17382690G13630348G09960618G07478414
233G10118593G17920960G26934765G35468373G45706165G58383775G71105932
226G81554961G88682905G91874947G90682123G85592298G77900638G70274719
219G66476156G67835390G72847483G79225781G84345375G86646738G87199369
212G87619959G88786501G91578240G96224956H02146969H07762724H11229583
205H12781300H13991832H15211288H15519986H13461161H09169434H03925888
198G96059034G82212373G59897985G27780757F87904873F48736039F22450891
191F16713693F29442961F50012591F67065794F76054990F79886668F86108874
184F99984467G19524615G39215417G55239069G66940249G74869916G79629571
177G82959928G86292655G89434154G92338343G95175675G97331891G98160175
170G97582935G96889340G97121003G97716021G98626708G99477162G99647336
163G99900820G99990195G98561873G94663130G87232204G77703972G70020608
156G66355201G67472524G72498280G78401680G83321609G86796416G88518516
149G88867649G88137175G86547463G84062750G80251708G75866981G71060756
142G63604873G51810902G38965419G33598825G39907478G51114796G58061761
135G57599759G52166936G48268332G53131582G58726006G58677484G53525473
128G47060868G44386390G46104238G49330371G53286839G57238148G58632518
121G57069995G55557876G56833033G60283091G64066526G66482431G67061832
114G67291055G67728517G67826188G67574447G67474267G66714721G65083737
107G64687129G64879473G64411964G63669290G61734837G59836148G60080848
100G61070941G60721877G60169037G60972433G61546606G60937785G60449780
93G60530301G59851416G58473428G57742117G56976089G55563523G54184071
86G53054269G51183955G47989751G44728412G41709542G37189568G32438140
79G29961722G28447860G27322450G26813252G26722343G28937051G34876562
72G41668968G45389450G47565117G49849330G51109987G51250323G49900710
65G49065105G51979193G55841965G57385246G58010520G56655330G54287389
58G55379824G57065324G55491089G53226466G52568077G52971866G54420614
51G55319311G53184218G50584196G51277511G53325531G49857834G39400231
44G30498737G28692142G30231101G30572426G28629050G26088634G27306974
37G33586555G38827871G37901846G35032794G34838637G36722059G41922173
30G50903840G55600193G53290882G52794023G57060444G59332317G53725137
23G44990540G42051006G46098870G54158974G63923331G68127566G64087719
16G58934314G56293021G55360443G53781537G53867077G60812995G66454684
9G65317144G65929869G71406055G77715196G79399860G80535239G86275087
2G90624119G88630270
##END=


$$ === CHEMSPECTRA PEAK TABLE EDIT ===
##TITLE=X9684
##JCAMP-DX=5.00
##DATA TYPE=INFRAREDPEAKTABLE
##DATA CLASS=PEAKTABLE
##$CSTHRESHOLD=0.93
##MAXX=3996.5625
##MAXY=0.9180229296605246
##MINX=399.65625
##MINY=0.5045428873411707
##$CSSOLVENTNAME=- - -
##$CSSOLVENTVALUE=0
##$CSSOLVENTX=0
##NPOINTS=32
##PEAKTABLE= (XY..XY)
424.125, 0.6444647314117128
442.4765625, 0.6344354150393329
477.140625, 0.6207879783766943
485.296875, 0.6230139138786782
550.546875, 0.6213297840331496
656.578125, 0.6364321110957172
681.046875, 0.627209007531811
715.7109375, 0.6552149058254715
787.078125, 0.5272750856952476
844.171875, 0.6553183193846549
874.7578125, 0.6048766965992888
907.3828125, 0.5738801958186703
944.0859375, 0.5755362508343621
1001.1796875, 0.6464295984409276
1027.6875, 0.5806154609517553
1054.1953125, 0.5315986872928774
1074.5859375, 0.5045428873411707
1117.40625, 0.5380650754621344
1174.5, 0.6462935803918144
1217.3203125, 0.6379349827195838
1245.8671875, 0.5929173226693867
1274.4140625, 0.5385800596828068
1368.2109375, 0.5857424137549271
1421.2265625, 0.5635246635518965
1449.7734375, 0.6848930121865674
1727.0859375, 0.7483192082899526
1739.3203125, 0.739530086004817
2828.1796875, 0.7769520874623125
2895.46875, 0.6673137544703523
2928.09375, 0.7178707125929951
2970.9140625, 0.7317657467347397
3423.5859375, 0.7288448213294999
##END=


$$ === CHEMSPECTRA PEAK TABLE AUTO ===
##TITLE=X9684
##JCAMP-DX=5.00
##DATA TYPE=INFRAREDPEAKTABLE
##DATA CLASS=PEAKTABLE
##$CSTHRESHOLD=0.93
##MAXX=3996.5625
##MAXY=0.9180229296605246
##MINX=399.65625
##MINY=0.5045428873411707
##NPOINTS=157
##PEAKTABLE= (XY..XY)
3423.5859375, 0.7288448213294999
3407.2734375, 0.7274880410758519
3403.1953125, 0.7274318931261293
3158.5078125, 0.8375620242587195
3140.15625, 0.8408398027497036
3127.921875, 0.8437618609974544
3117.7265625, 0.8456571697865429
3109.5703125, 0.8451759810366442
3097.3359375, 0.8469128013110541
3089.1796875, 0.8468843699564421
3083.0625, 0.8472930790149994
3074.90625, 0.8468068826737143
3058.59375, 0.8491777177100975
3048.3984375, 0.8478156323335961
3040.2421875, 0.8473314639941495
3013.734375, 0.8436628582567723
2970.9140625, 0.7317657467347397
2928.09375, 0.7178707125929951
2895.46875, 0.6673137544703523
2826.140625, 0.7757400870464967
2775.1640625, 0.8229781987859489
2758.8515625, 0.8251048921541162
2734.3828125, 0.8275266888589604
2724.1875, 0.8267212506582716
2705.8359375, 0.8254075645887174
2665.0546875, 0.8250699039925482
2644.6640625, 0.8262871505379092
2632.4296875, 0.8262833954856011
2618.15625, 0.8276220562439015
2612.0390625, 0.8281922932549688
2593.6875, 0.8287736774363442
2587.5703125, 0.8284602160661609
2579.4140625, 0.8290312285399885
2567.1796875, 0.8289800283333687
2550.8671875, 0.8304080365942555
2538.6328125, 0.8302603960084672
2526.3984375, 0.8286966680849097
2516.203125, 0.8286325928025365
2510.0859375, 0.8292828204645372
2503.96875, 0.8283237217957053
2485.6171875, 0.8276602625331763
2477.4609375, 0.8262383938512113
2467.265625, 0.8266087170756431
2450.953125, 0.8246813415762017
2424.4453125, 0.823946774003001
2412.2109375, 0.8236406440475587
2395.8984375, 0.8241714239402239
2359.1953125, 0.8040024044562658
2338.8046875, 0.807463169074357
2330.6484375, 0.8072135444483878
2320.453125, 0.8077462907846571
2279.671875, 0.8206922414403426
2271.515625, 0.821821092925802
2251.125, 0.8195490238018928
2245.0078125, 0.8193938731114881
2230.734375, 0.8228099943299156
2224.6171875, 0.8230206372038497
2216.4609375, 0.8207490443012828
2189.953125, 0.8194645641941255
2181.796875, 0.8228346107839357
2175.6796875, 0.8215703961605809
2157.328125, 0.8186615703683341
2149.171875, 0.8149762746546118
2128.78125, 0.8150057790034511
2118.5859375, 0.8167557718850814
2106.3515625, 0.8143373130045112
2098.1953125, 0.8159553404208035
2090.0390625, 0.8137425185327319
2065.5703125, 0.8106708524006133
2047.21875, 0.818501114555076
2039.0625, 0.8155388237261628
2026.828125, 0.8147498968119438
2020.7109375, 0.8098217848011801
2010.515625, 0.8144669529365436
1996.2421875, 0.8112046717311099
1984.0078125, 0.8088714479210674
1965.65625, 0.8087655899869866
1957.5, 0.8105072973012403
1949.34375, 0.809306859573816
1937.109375, 0.8076285119274587
1926.9140625, 0.8059068914071321
1912.640625, 0.806097924563457
1904.484375, 0.8047022224060574
1892.25, 0.8059830663024983
1884.09375, 0.8053156134495021
1875.9375, 0.805043697047843
1863.703125, 0.8044533133945649
1851.46875, 0.8039392234782448
1839.234375, 0.8038452864672817
1814.765625, 0.8009369958896854
1804.5703125, 0.7993773821081376
1796.4140625, 0.7998257876782313
1784.1796875, 0.7926362159342897
1776.0234375, 0.7911254759710807
1739.3203125, 0.739530086004817
1727.0859375, 0.7483192082899526
1712.8125, 0.7723875640341245
1690.3828125, 0.7960739133139304
1678.1484375, 0.7964931727699109
1659.796875, 0.7917035813214903
1649.6015625, 0.8009631034209427
1641.4453125, 0.7868522392690268
1631.25, 0.7850237485236512
1621.0546875, 0.7860246896924743
1610.859375, 0.7829458118421818
1604.7421875, 0.784210443693571
1598.625, 0.7842783920148685
1588.4296875, 0.7849029900769051
1572.1171875, 0.790923237506115
1566.0, 0.7907112839547702
1549.6875, 0.7916343804611147
1535.4140625, 0.7965470550346115
1529.296875, 0.7927892804845231
1512.984375, 0.7933636906309083
1500.75, 0.7890483728907043
1492.59375, 0.7869462968315326
1480.359375, 0.7785428762147875
1449.7734375, 0.6848930121865674
1421.2265625, 0.5635246635518965
1368.2109375, 0.5857424137549271
1274.4140625, 0.5385800596828068
1245.8671875, 0.5929173226693867
1229.5546875, 0.6391301751724383
1217.3203125, 0.6379349827195838
1174.5, 0.646293579536839
1117.40625, 0.5380650754621344
1074.5859375, 0.5045428873411707
1054.1953125, 0.5315986872928774
1027.6875, 0.5806154609517553
1001.1796875, 0.6464295984409276
944.0859375, 0.5755362508343621
907.3828125, 0.5738801958186703
874.7578125, 0.6048766965992888
844.171875, 0.6553183193846549
787.078125, 0.5272750856952476
742.21875, 0.6813208459733832
715.7109375, 0.6552149058254715
681.046875, 0.627209007531811
668.8125, 0.6397510763204993
656.578125, 0.6364321110957172
642.3046875, 0.6459834577008805
615.796875, 0.6537887451665969
605.6015625, 0.649641275357651
597.4453125, 0.6499258872902127
589.2890625, 0.6501659156713944
550.546875, 0.6213297840331496
530.15625, 0.6404322976986254
517.921875, 0.6448972224682217
507.7265625, 0.643427252865752
497.53125, 0.6417310832555141
485.296875, 0.6230139138786782
477.140625, 0.6207879783766943
464.90625, 0.6282690163916208
452.671875, 0.643620431155556
442.4765625, 0.6344354150393329
424.125, 0.6444647314117128
415.96875, 0.6543273925436291
##END=

##END=

