##TITLE=X9714
##JCAMP-DX=5.0
##DATA TYPE=LINK
##BLOCKS=1


$$ === CHEMSPECTRA SPECTRUM ORIG ===
##TITLE=X9714
##JCAMP-DX=5.00
##DATA TYPE=INFRARED SPECTRUM
##DATA CLASS=XYDATA
##ORIGIN=Default
##OWNER=
##XUNITS=1/CM
##YUNITS=TRANSMITTANCE
##XFACTOR=1
##YFACTOR=9.490253e-010
##FIRSTX=3996.5625
##LASTX=399.65625
##MAXX=3996.5625
##MAXY=1.0190081556951218
##MINX=399.65625
##MINY=0.7036335438751028
##NPOINTS=1765
##XYDATA= (X++(Y..Y))
1765A041758032A041813930A041433010A041253133A041853811A042540408A042922835
1758A043182664A042856575A042114708A041766448A042002160A042434329A042125574
1751A040651136A039266386A039845710A041651010A042234542A042189950A042983380
1744A043759225A043915550A044228262A044622119A044888857A045413916A045001908
1737A043579223A042746036A042986018A044304320A045692399A045805387A045800488
1730A046387098A045970693A045467678A046294145A046381822A044693216A043189699
1723A042806644A043803692A047641400A053664198A057818575A057590588A053396706
1716A048133298A046788555A049984824A051530923A050240508A051284912A052593353
1709A052807961A052629278A049726125A048814242A052154714A056527908A059537328
1702A058228197A056455555A056806387A054366619A050354187A050930057A058569234
1695A069319138A066735041A054315498A047800425A048621428A053258533A058552022
1688A063496880A065169032A061563330A057105222A054114267A052554161A052478794
1681A053516289A057965789A064445002A064595486A061345392A056774736A049946261
1674A046712371A049498516A054471257A056545616A059229449A061088138A057643974
1667A053715573A049581734A045773419A044749176A045643159A046959890A047655406
1660A048011642A049837104A050159237A046965794A045200815A047816378A052422080
1653A053990162A052846210A051147994A050856008A053742329A055743208A055531802
1646A059560943A069409827A073741823A069438341A068483942A067470498A061195662
1639A058446762A062117026A067724364A067294016A059910771A053023010A050772288
1632A051593290A052840055A052975465A050790376A047978041A048825171A054863793
1625A060187873A057308337A051243271A048866434A050238247A050482060A048445633
1618A047150256A047391934A051289936A058967799A061354185A053939286A047117157
1611A045488781A048278631A054980741A063779131A066393752A063300800A061712554
1604A055589961A046538335A041845709A040644981A041159992A044356575A047572753
1597A048395200A053310599A062955994A063381820A051877299A042700313A039684109
1590A039063773A038423715A038798731A041154842A046372213A053255016A051221038
1583A041195666A036607424A039832772A045172678A045482689A044147995A045025021
1576A045265568A043891306A041038964A037129029A034885341A034960457A035156475
1569A034633803A034060319A033262430A033650698A036775179A038196420A034427610
1562A030480054A028879501A028583370A028016293A026785104A026365245A028490040
1555A032935524A034655282A030607990A026321029A024140838A022596749A022231719
1548A023263373A023167029A021647182A021142032A020947082A019368009A017667407
1541A016843013A016577343A016616220A016634810A016914926A017822538A017942874
1534A016733165A015567294A014603659A013505304A012562647A012090407A012151078
1527A012181288A011452736A010644860A011024084A011751128A010932073A009271603
1520A008775246A008718218A007800557A007031558A006772420A006430127A006557183
1513A007266014A007018432A005524838A004749936A004967559A004720982A004007630
1506A003549019A003606298A004307843A004816071A004130604A003361354A003491740
1499A003672433A003486715A003494441A004127338A004760550A004843203A004597128
1492A003980309A003250250A002912479A003021447A003394704A003741583A003800118
1485A003989102A004818583A005956756A006407768A005884529A005395520A005307780
1478A005432325A005517678A005357209A005411536A005266517A004479178A003881075
1471A003856078A004343957A004671993A003762937A002753014A003139209A003873287
1464A003520882A002452926A001770788A001336044A000518747I99456883I98583940
1457I98081930I97493248I96566794I95624074I94431008I92970387I91991428I91443758
1449I90659120I89273930I87575965I86278453I85215961I83957262I82577285I81453620
1441I81090789I81068179I80505498I79293339I77889181I76865315I76164084I75021012
1433I73565605I72859286I72908087I72852252I72319216I71065228I69373481I68522520
1425I68797297I69085452I68775378I67735999I66257541I65474223I65482388I65393203
1417I65031816I64639026I64408905I64197122I63837808I63406958I62788191I61942632
1409I61233362I60797613I60602851I60658246I60420210I59924921I59830460I60014169
1401I60072578I59887174I59767026I59845408I60114156I61160507I62141602I61549465
1393I60742218I61125272I61595565I61511405I61429506I61761499I62215964I62394585
1385I62797110I63235748I63101155I63219984I63982765I64582061I64550407I64057127
1377I63708113I64191470I65164463I65679662I65826566I65979122I66057567I66283732
1369I66836489I67510839I68172125I68784799I69602535I70592675I70913174I70463231
1361I70516742I71792147I73172689I73464926I72960404I72698440I73163771I73918701
1353I74427557I74957641I75841826I76283981I76296857I76444765I76190903I75786682
1345I75833724I76155857I76649450I77463356I78132618I78051661I77964988I78035583
1337I77669423I77420836I77260429I76695299I76115661I75647001I75246109I74922406
1329I74423160I73956008I74078103I74587524I74664838I74115912I73330082I72426803
1321I71020573I69562779I69094119I68941500I68698440I68961787I68788128I67721616
1313I66928939I66718853I66259174I64906141I63304898I62649076I62627659I62444328
1305I62342582I62374864I62269538I61971900I61389624I60758484I60214018I59362806
1297I58014483I56455006I54979877I53254026I51151150I49188646I47719107I47210754
1289I47871161I49179916I50590480I51842772I52582880I53039418I54042558I55140221
1281I55349303I55078985I55286811I56147067I57106117I57472089I57423916I57494573
1273I57446966I57196432I57028552I57075279I57146690I57288695I57860357I58210564
1265I57472089I55481761I51573459I47102476I46480507I49938175I53243601I55021769
1257I56045761I56302449I56376624I56562781I55988105I55238701I55420839I56025914
1249I56402814I56886547I57900992I58919520I59417573I59716153I59909345I59686948
1241I59556437I59990616I60548398I61223501I62306280I63896972I65915939I67726201
1233I69376622I71359161I73238824I74565793I75060580I75155857I75647629I75855957
1225I75440683I75043057I74870089I75042052I75315950I75443195I75713324I76232920
1217I76937165I77714203I78468568I79277449I80048520I80524277I80930005I81524591
1209I81873165I81913424I82089281I82656484I83703211I84874484I85785927I86460779
1201I87108499I87957701I88863869I89507444I90078352I90697495I91155729I91575839
1193I92198814I93008825I93633809I93768277I93785612I94125456I94658240I95293336
1185I95932326I96017554I95765890I96163516I97063403I97696929I98041420I98263377
1177I98264885I98078664I98044749I98317893I98889178I99664395A000191715
1170A000558378A001143480A001585573A001679845A001861731A002266643A002712315
1163A003209866A003546884A003531747A003618231A004144233A004810418A005311988
1156A005606361A005778010A005935968A006124512A006467433A006847725A007013533
1149A007170234A007440364A007571817A007520065A007534322A007613269A007693975
1142A008028104A008493937A008813746A009041419A009235929A009357962A009393196
1135A009546003A009949219A010484579A010736055A010494377A010320655A010644295
1128A011294088A011798233A011723493A011257032A011105041A011408395A011549332
1121A011361416A011215643A011041104A010755650A010800117A011074015A011326244
1114A011855449A012338680A012338429A012351806A012645362A012912603A013178587
1107A013415178A013341192A013070058A013182355A013777381A014145613A014038152
1100A013688259A013409462A013513218A013631984A013447146A013297856A013303697
1093A013466804A013777569A013757597A013588146A013779077A013827123A013553602
1086A013445073A013396713A013426420A013899350A014525214A014860913A014569995
1079A013884779A013945638A014631921A014455625A013694791A013672306A014048955
1072A014390432A014898596A015226131A015372092A015586261A015670045A015902428
1065A016213569A016086324A015897466A015440551A014407515A013794401A014537775
1058A016348477A017580420A017298609A016409336A015929120A016180659A016834157
1051A017473147A018077217A018336481A017949406A017289502A016750750A016433265
1044A016883962A018197930A019106170A018819334A017946706A017589778A018526281
1037A020434772A021614460A020943816A019555360A019015729A019499023A020134558
1030A020483384A021058814A021956754A022493495A022176827A021288685A021077091
1023A021945449A022408833A021677706A021065911A021567042A022182291A022137510
1016A022172682A023112011A024646679A025697427A025727825A025274804A024920828
1009A024548136A024265446A024135123A024057181A024155661A024382642A024925978
1002A025710427A026268712A026779577A027278195A027253261A026702828A026174502
995A026038527A026392440A027463473A028456313A028493306A028295341A028235047
988A028050271A027888797A028056866A028341127A028087201A027506307A027653085
981A028503041A029211557A029637069A029725500A029567668A029262305A028341629
974A026645360A024539972A022332335A020494249A019288685A018111509A016966678
967A016567294A016611132A016220415A015616157A015366754A015465987A016070874
960A016943879A017904123A019152396A020399035A020635626A019384025A018422651
953A018896837A019956063A021049833A021364240A020786047A019825866A019408582
946A019973398A020224434A019722362A019766703A021110504A022720979A023228516
939A023004675A023468624A024472204A025445951A026851490A028194412A028951163
932A029824357A031175569A032134619A032394072A032818641A033511582A034438727
925A035460457A035588833A034745660A034322410A034669602A035021568A036038525
918A037693531A037811229A036396521A036120613A037200000A037438035A036433639
911A035399096A034993619A035576084A036537269A036535259A036111129A037049830
904A039123188A040014721A039880693A040585315A041090088A039832709A037967554
897A037543738A038362856A038781773A037904685A036607172A037511016A039741577
890A039192965A036428238A035691019A038308780A041905061A044500589A045279260
883A043174876A040342444A039468810A039886094A042482627A045432130A043247794
876A038484951A037080291A039199120A041072754A039872214A037638261A037959389
869A041433324A043894321A043972012A044142594A040837984A035346590A035089524
862A037683921A038556488A037322660A036613579A038745534A042207096A043732658
855A041869011A039068107A037824482A038371900A039975844A040276686A038499334
848A036844329A036530674A037299736A038398342A038377176A038132043A039800112
841A041995879A041756148A039441238A037759289A037361475A038152958A039784976
834A040708227A040588895A039736929A039187878A039534003A039508692A039573759
827A041022069A042252882A041868885A040942431A040661876A041258032A041646551
820A041414545A040544805A038417937A037073257A038112825A040016731A041350420
813A041303253A041203328A043066410A045421390A045728198A043492048A039383017
806A036201256A037312925A040850797A042591344A042394887A041938600A041698052
799A043007749A045449213A045066473A041780140A039934141A040589586A040916618
792A040515224A042149440A046116655A049152265A048338109A044628714A040899911
785A039114458A040799233A044924908A047424216A046902548A044883770A042542858
778A041575454A042815123A045985201A049069864A049700940A049625824A049147743
771A047072125A044577966A042268772A040697110A040900539A042363546A043037582
764A042499773A042949339A043707284A042158296A041132608A044253510A047979862
757A046971447A043792952A042873532A043094296A043757404A045290502A045376610
750A044269714A044892751A046276999A046879436A047567540A047537833A046951349
743A047256021A047226063A045951914A044743837A044289121A044379059A045078343
736A046152705A046772351A046964098A048116592A049844829A049700438A048340872
729A047753949A047359966A046906003A046876421A047189949A048337858A051589145
722A056025835A056200311A051358960A048026904A048180968A049228889A049631225
715A049986268A050214129A049518300A049225309A051574448A056053470A057187875
708A053654149A051200751A051026401A051301806A052631225A056170038A058103337
701A056787800A055080477A052528285A049937656A048388354A047298102A046962528
694A048048572A049054790A048313489A047092160A046982500A048281521A049536639
687A048800299A047501154A048990037A050656222A046214444A039932131A036976912
680A036221857A036185115A035409773A032767706A031274175A032876549A032197488
673A023921582A012825867A003066165I96114276I89347351I80699506I71971019
666I62190277I53686321I48515238I42237510I31601913I19964872I10388124
659I02758305H94903514H90291155H95126037I02447289H99609204H92582449
652H87284372H85390452H86115361H90239214H99890136I09043193I07729728
645I02817908I02030696I06869785I14436045I18705294I20448354I21960915
638I17197632I05708751H88286382H72577365H63056327H57436619H56996976
631H56118506H42787080H27848507H19351711H14480904H08011680H01783004
624G96045786G84611671G73213419G66945615G61706198G56630392G56638996
617G65100621G81654506G89749090G91006344G98260771H02458170H00345936
610H01701105H09029705H21388013H31290348H29618699H27273453H30473428
603H35231686H38827339H40264596H38212655H37987307H40050929H36362825
596H30450629H28179558H28224150H28899003H30659271H34784255H41350514
589H49314965H57593697H65509536H72729984H79168747H84554125H88956147
582H93469147H99044451I06348494I16262699I25042814I25003120I24205859
575I27100783I25987607I21660073I19948982I24160136I36342900I37365824
568I21547211I09903826I03262011H98587787H94784308H94378894H98279283
561I02535532H93126791H73216418H62535789H57374378H50705807H46952071
554H48131759H51542888H57038742H61748891H62076299H61992139H62088860
547H63904775H71637157H87290213I05360804I05518071H97512357H93314644
540H90324128H86703855H86555695H94843660I10873176I24436294I27970712
533I28081690I29123519I30152786I31461290I35480948I40999412I40540236
526I32082318I25993950I24587469I19970525I10965941I04216288H93001869
519H66652482H46961618H41313710H40955589H40319865H37303976H33391151
512H30572724H30578754H33227855H34272196H34169068H37264847H41864269
505H45477194H50095269H56020717H62966828H70758247H73763523H73348374
498H75387439H79798630H85121956H91297184H97274384I01648771I06646384
491I12993324I17828457I19328206I17436735I15697884I15941572I14812379
484I10456897I05789268I02500549I00821677I01095512I01337190H98988302
477H96617620H95374749H94696756H97857226I03203664I05239840I05126286
470I04576167I03685450I03207746I03664033I04708500I06043445I08936737
463I15284745I24377319I32638466I38368650I41943012I43584137I43626783
456I42496397I40794036I39509022I39460284I39838314I39493383I39469265
449I40738390I42212953I42892767I42797364I42677090I43542434I45183057
442I46755598I47998783I48856652I49333100I49646252I49882905I49528867
435I48082315I45502866I41966564I38125904I34870032I32660951I31127664
428I29275635I26592116I23656996I21279280I19493574I17981139I16934600
421I16520142I16227968I15657750I14942325I13706049I11442200I08353958
414I04331160H99074786H92612094H85260506H78040120H72537986H70235951
407H71557582H75670130H80018766H77932722H64823567H49419600H41480963
400H35435052H22415270H02289724G79823580G60207643G47047552G41427593
393G42051447G46181329G51154385G55449824G58453341G60440151G62278237
386G64160915G65802794G67196462G68612302G70971867G75422061G82011622
379G89706633G97200038H03529706H08271635H11611667H14152616H16306994
372H18722959H21546347H23122845H21576180H16356296H08097850G97955031
365G86994035G76382619G67143454G60152625G56470550G56257951G58824965
358G63484555G69258075G75016207G79634722G82528579G84245135G85723341
351G87706320G90307751G93066826G96222271H00335447H05081835H10135031
344H15181444H19369171H22717808H26756370H32666619H39167623H43949434
337H46355789H47755299H51032399H57688535H66376638H75498669H83883732
330H90921477H96764587I01494833I05440254I09245178I13174394I16983714
323I20277270I22790647I24906461I27275573I30153352I33510090I36664907
316I38834797I40020892I40336556I39523090I37343653I34777833I35056692
309I40186763I47669553I54288130I59268722I62608126I64651902I66628600
302I69254275I72264198I75161698I77638648I79318524I79981820I80496517
295I80440305I78224504I75617733I75548144I77626024I79747679I80468882
288I79500348I77825747I76829579I76656485I76613462I77323612I79791580
281I83223749I86440995I89340819I91756533I93588086I95189267I96560074
274I98241521A000690396A002819965A003946457A004644107A005069933A004943442
267A004345276A003120995A001020254I98539159I96876366I96882333I97975788
260I98848417I98971077I98970261I99062963I98573451I97694354I97676391
253I99363365A002499528A006157234A009204275A011281338A012765134A013669229
246A014480998A015614022A016022764A015215202A014213946A013531683A012450914
239A010480057A008513910A007426107A006483700A004497392A001215267I97433268
232I94461532I93356017I94496326I97468565A001083814A003806964A004548642
225A003799616A003055049A001789504I98302945I92806463I86245103I79250066
218I72654413I67007322I62385353I58754591I57182364I58419897I59980944
211I59942318I60192852I62524029I65715524I68292147I71323864I75345908
204I78855392I81332027I82624578I79381707I68361297I52600089I39449795
197I35901435I44292842I59954503I75171998I85662764I91970011I95651143
190I97909590I99355325I99857147I99288814I97297293I93989732I89839625
183I84363681I75968946I64432206I53486409I46732736I43772493I43122951
176I43385733I42072393I37865447I32476301I28659067I27701524I28788888
169I31076540I35437486I41959090I47611708I49562657I48981385I46626091
162I38825439I23719864I06809680H96636337H98070578I07931021I16969897
155I18820606I12732113I00433786H82582639H58488308H31709265H09327784
148G97018653G97859691H09942782H27014064H43763088H57744432H68830412
141H78340271H85987864H91288014H95053056H98495211I02536285I05623020
134I06297935I08388439I16338255I22951494I26083072I27470021I27420655
127I26244861I23799503I19891075I16105684I13403197I10023535I05007645
120H99186141H93427130H89847052H90143623H91520586H91058332H90491506
113H90247442H87867527H83067063H78225273H75279161H73386120H71600478
106H71507337H73924055H76486987H77620952H79669752H83725649H86793919
99H87519958H88553685H91811504H96487549I00561659I01590550I00325131
92H99418713H98871922H98924365I00149462I01718047I04044199I07967700
85I12286692I16102481I19375499I20771931I19354270I15456833I12709001
78I15118434I19427063I20562912I17339574I10415822I03994645I01760190
71I04279219I12561343I22701525I28966064I31691852I30424737I24786439
64I20417265I20218546I20773439I21081628I22118370I25036093I31221119
57I37170622I40748250I45873296I52249128I54323490I53001922I51276574
50I46430324I39320478I34738767I34200770I35175961I34816396I34614725
43I33791022I27694679I19176906I13983966I13322805I16195497I18420971
36I16509905I14601665I18903573I25381527I25182871I24299503I31482958
29I40326256I46174829I55092865I66780152I72353885I70100902I69841324
22I75590413I80180539I83584759I92562524A001563151A000314376I91970764
15I84139526I80803953I80938735I82790512I90230657I94448845I87047891
8I80309354I77389181I75032506I74852189I80544061I88492119I91490046
1I85857086
##END=


$$ === CHEMSPECTRA PEAK TABLE EDIT ===
##TITLE=X9714
##JCAMP-DX=5.00
##DATA TYPE=INFRAREDPEAKTABLE
##DATA CLASS=PEAKTABLE
##$CSTHRESHOLD=0.93
##MAXX=3996.5625
##MAXY=1.0190081556951218
##MINX=399.65625
##MINY=0.7036335438751028
##$CSSOLVENTNAME=- - -
##$CSSOLVENTVALUE=0
##$CSSOLVENTX=0
##NPOINTS=35
##PEAKTABLE= (XY..XY)
407.8125, 0.9251593911213817
426.1640625, 0.9308077657370109
460.828125, 0.8771836131244258
468.984375, 0.8679801195071244
477.140625, 0.8667664490119664
526.078125, 0.8733106816832137
544.4296875, 0.8557932348428069
558.703125, 0.8661839334867253
583.171875, 0.8530521954376266
613.7578125, 0.827082511948626
638.2265625, 0.8444873654784155
699.3984375, 0.7563908662689208
721.828125, 0.8509305687123261
746.296875, 0.8804122171245571
758.53125, 0.8950475415096603
799.3125, 0.8881941401213055
831.9375, 0.9095647302763941
1031.765625, 0.8871278133961749
1131.6796875, 0.7177079288251602
1201.0078125, 0.7036335438751028
1229.5546875, 0.8258759344685602
1366.171875, 0.8490898572719268
1441.6171875, 0.7882345285659171
1494.6328125, 0.8413637844140834
1517.0625, 0.8180523483121166
1529.296875, 0.8037789432663962
1545.609375, 0.8487881981920181
1610.859375, 0.7859633534848174
1659.796875, 0.7180613847569175
1710.7734375, 0.8560499518806087
1725.046875, 0.8402579393264356
1737.28125, 0.8449088304612214
2970.9140625, 0.8988242114166427
3030.046875, 0.899409409836407
3268.6171875, 0.9118212429166088
##END=


$$ === CHEMSPECTRA PEAK TABLE AUTO ===
##TITLE=X9714
##JCAMP-DX=5.00
##DATA TYPE=INFRAREDPEAKTABLE
##DATA CLASS=PEAKTABLE
##$CSTHRESHOLD=0.93
##MAXX=3996.5625
##MAXY=1.0190081556951218
##MINX=399.65625
##MINY=0.7036335438751028
##NPOINTS=80
##PEAKTABLE= (XY..XY)
3317.5546875, 0.9232680757539358
3305.3203125, 0.9191523750997559
3293.0859375, 0.9162594641248418
3266.578125, 0.9116364088511302
3258.421875, 0.9109033902506379
3250.265625, 0.9108431897797578
3238.03125, 0.9117686716601153
3229.875, 0.9124209253605017
3217.640625, 0.9140073625542214
3205.40625, 0.9145833810522588
3174.8203125, 0.9209941589387443
3162.5859375, 0.9231154288305319
3142.1953125, 0.9260462486210546
3127.921875, 0.9281135161261963
3105.4921875, 0.9243088926790023
3083.0625, 0.9193193276305319
3058.59375, 0.9132874575853245
3028.0078125, 0.8989269699780761
3007.6171875, 0.9063941202633204
2997.421875, 0.9086195191090747
2989.265625, 0.9082443086703655
2968.875, 0.8982339470998271
2950.5234375, 0.9065456947881352
2928.09375, 0.9106433354908561
2891.390625, 0.9251763786742516
2809.828125, 0.945007022487017
2793.515625, 0.9471697173331496
1737.28125, 0.8449088304612214
1725.046875, 0.8402579393264356
1710.7734375, 0.8560499518806087
1659.796875, 0.7180613847569175
1643.484375, 0.7595485420161807
1631.25, 0.7851034369153609
1619.015625, 0.795271155421867
1610.859375, 0.7859633534848174
1572.1171875, 0.8770947425992326
1563.9609375, 0.8730548586272445
1545.609375, 0.8487881981920181
1529.296875, 0.8037789432663962
1517.0625, 0.8180523483121166
1494.6328125, 0.8413637844140834
1441.6171875, 0.7882345285659171
1433.4609375, 0.7916475500094203
1415.109375, 0.8288297026398621
1390.640625, 0.8690204590724652
1378.40625, 0.854902562261428
1366.171875, 0.8490898572719268
1351.8984375, 0.8571670021099738
1321.3125, 0.8915715778611851
1315.1953125, 0.8915801010574045
1305.0, 0.8946244081403769
1229.5546875, 0.8258759344685602
1201.0078125, 0.7036335438751028
1131.6796875, 0.7177079288251602
1031.765625, 0.8871278133961749
993.0234375, 0.9258198700240431
976.7109375, 0.9268308837585886
933.890625, 0.9460608923060597
915.5390625, 0.9468201362716923
868.640625, 0.94271999204023
833.9765625, 0.9083902801498092
827.859375, 0.9110095463226453
799.3125, 0.8881941401213055
758.53125, 0.8950475415096603
746.296875, 0.8804122171245571
721.828125, 0.8509305687123261
699.3984375, 0.7563908662689208
638.2265625, 0.8444873654784155
613.7578125, 0.827082511948626
583.171875, 0.8530521954376266
558.703125, 0.8661839334867253
544.4296875, 0.8557932348428069
526.078125, 0.8733106816832137
493.453125, 0.886580166009481
477.140625, 0.8667664490119664
468.984375, 0.8679801195071244
460.828125, 0.8771836131244258
444.515625, 0.9204039534614972
426.1640625, 0.9308077657370109
407.8125, 0.9251593911213817
##END=

##END=

